EXPLAIN
TAG	PWR800_READVOLTAGE
TITLE	LABEL	PWR Read Voltage	Test Identifier
DATE	LABEL	25.5.2024	Date
TIME	LABEL	2:47:23	Time
NOTES	NOTES	1	Notes...
	
PSTAT	PSTAT	REF600-12055	Potentiostat
CAPACITY	QUANT	1.00000E+000	Capacity (A-hr)
CELLTYPE	SELECTOR	1	Cell Type
WORKINGCONNECTION	SELECTOR	0	Working Connection
MAXTIME	VARIABLEANDUNITS	6.00000E+002	s	6.00000E+002	second(s)	Max Time
SAMPLETIME	QUANT	1.00000E+000	Sample Period (s)
STOPAT1	MULTIPARAM	0	0.00000E+000	Stop At 1	None	N/A
STOPAT2	MULTIPARAM	0	0.00000E+000	Stop At 2	None	N/A
AESBHCSELECTOR	TOGGLE	F	Save Both Half Cells
EOC	QUANT	3.936351	Open Circuit (V)
SEQUENCER	TOGGLE	TRUE	Run as Sequence
PSTATMODEL	IQUANT	4	Pstat Model
PSTATSECTION	LABEL	REF600-12055	Pstat Section
PSTATSERIALNO	LABEL	12055	Pstat Serial Number
CTRLMODE	IQUANT	0	Control Mode
ELECTROMETER	IQUANT	0	RE=0 or CS=1
IESTAB	IQUANT	0	I/E Stability
CASPEED	IQUANT	4	Control Amp Speed
CONVENTION	IQUANT	1	Current Convention
ICHRANGE	IQUANT	2	Ich Range
ICHRANGEMODE	TOGGLE	T	Ich Auto Range
ICHOFFSETENABLE	TOGGLE	F	Ich Offset Enable
ICHOFFSET	QUANT	0	Ich Offset (V)
ICHFILTER	IQUANT	1	Ich Filter
VCHRANGE	IQUANT	3	Vch Range
VCHRANGEMODE	TOGGLE	T	Vch Auto Range
VCHOFFSETENABLE	TOGGLE	F	Vch Offset Enable
VCHOFFSET	QUANT	0	Vch Offset (V)
VCHFILTER	IQUANT	1	Vch Filter
ACHRANGE	IQUANT	2	Ach Range
ACHOFFSETENABLE	TOGGLE	F	Ach Offset Enable
ACHOFFSET	QUANT	0	Ach Offset (V)
ACHFILTER	IQUANT	1	Ach Filter
IERANGELOWERLIMIT	IQUANT	7	I/E Range Lower Limit
IERANGEMODE	TOGGLE	F	I/E AutoRange
IERANGE	IQUANT	11	I/E Range
POSFEEDENABLE	TOGGLE	F	Positive Feedback IR Comp
POSFEEDRESISTANCE	QUANT	0	Positive Feedback Resistance (ohm)
ACHSELECT	IQUANT	4	Ach Select
SENSECABLEID	IQUANT	14	Sense Cable ID
PWRCABLEID	IQUANT	14	Power Cable ID
DCCALDATE	LABEL	2/12/2024	DC Calibration Date
ACCALDATE	LABEL	2/12/2024	AC Calibration Date
THERMOSELECT	IQUANT	1	Thermo Select
FRAMEWORKVERSION	LABEL	7.10.3	Framework Version
INSTRUMENTVERSION	LABEL	4.91	Instrument Version
COMMVERSION	LABEL	2.24	Communications Version
CPUPLDVERSION	LABEL	0.00	CPU PLD Version
CTRLPLDVERSION	LABEL	0.00	CTRL PLD Version
PSTATPLDVERSION	LABEL	0.00	PSTAT PLD Version
CURVE	TABLE	600
	Pt	T	Vf	Im	Vu	Pwr	Sig	Ach	Temp	IERange	Over
	#	s	V	A	V	W	V	V	deg C	#	bits
	0	1	3.85234E+000	1.71097E-006	0.00000E+000	6.59124E-006	0.00000E+000	9.81057E-004	-3.27687E+002	7	...........
	1	2	3.85328E+000	1.71151E-006	0.00000E+000	6.59495E-006	0.00000E+000	9.77407E-004	-3.27687E+002	7	...........
	2	3	3.85387E+000	1.71205E-006	0.00000E+000	6.59801E-006	0.00000E+000	9.82207E-004	-3.27687E+002	7	...........
	3	4	3.85439E+000	1.71141E-006	0.00000E+000	6.59644E-006	0.00000E+000	9.85157E-004	-3.27687E+002	7	...........
	4	5	3.85483E+000	1.71056E-006	0.00000E+000	6.59391E-006	0.00000E+000	9.79924E-004	-3.27687E+002	7	...........
	5	6	3.85518E+000	1.70958E-006	0.00000E+000	6.59075E-006	0.00000E+000	9.84507E-004	-3.27687E+002	7	...........
	6	7	3.85551E+000	1.70871E-006	0.00000E+000	6.58795E-006	0.00000E+000	9.89140E-004	-3.27687E+002	7	...........
	7	8	3.85583E+000	1.70756E-006	0.00000E+000	6.58407E-006	0.00000E+000	9.89690E-004	-3.27687E+002	7	...........
	8	9	3.85618E+000	1.70729E-006	0.00000E+000	6.58361E-006	0.00000E+000	9.81524E-004	-3.27687E+002	7	...........
	9	10	3.85647E+000	1.70750E-006	0.00000E+000	6.58491E-006	0.00000E+000	9.76840E-004	-3.27687E+002	7	...........
	10	11	3.85672E+000	1.70632E-006	0.00000E+000	6.58078E-006	0.00000E+000	9.72890E-004	-3.27687E+002	7	...........
	11	12	3.85695E+000	1.70514E-006	0.00000E+000	6.57664E-006	0.00000E+000	9.70124E-004	-3.27687E+002	7	...........
	12	13	3.85719E+000	1.70358E-006	0.00000E+000	6.57104E-006	0.00000E+000	9.75124E-004	-3.27687E+002	7	...........
	13	14	3.85747E+000	1.70345E-006	0.00000E+000	6.57100E-006	0.00000E+000	9.76690E-004	-3.27687E+002	7	...........
	14	15	3.85775E+000	1.70298E-006	0.00000E+000	6.56968E-006	0.00000E+000	9.75174E-004	-3.27687E+002	7	...........
	15	16	3.85796E+000	1.70181E-006	0.00000E+000	6.56551E-006	0.00000E+000	9.75707E-004	-3.27687E+002	7	...........
	16	17	3.85810E+000	1.70073E-006	0.00000E+000	6.56160E-006	0.00000E+000	9.78207E-004	-3.27687E+002	7	...........
	17	18	3.85822E+000	1.69930E-006	0.00000E+000	6.55626E-006	0.00000E+000	9.78157E-004	-3.27687E+002	7	...........
	18	19	3.85833E+000	1.69828E-006	0.00000E+000	6.55254E-006	0.00000E+000	9.78374E-004	-3.27687E+002	7	...........
	19	20	3.85847E+000	1.69782E-006	0.00000E+000	6.55100E-006	0.00000E+000	9.80624E-004	-3.27687E+002	7	...........
	20	21	3.85868E+000	1.69742E-006	0.00000E+000	6.54978E-006	0.00000E+000	8.13657E-004	-3.27687E+002	7	...........
	21	22	3.85897E+000	1.69740E-006	0.00000E+000	6.55023E-006	0.00000E+000	7.31974E-004	-3.27687E+002	7	...........
	22	23	3.85929E+000	1.69652E-006	0.00000E+000	6.54735E-006	0.00000E+000	7.29707E-004	-3.27687E+002	7	...........
	23	24	3.85956E+000	1.69574E-006	0.00000E+000	6.54479E-006	0.00000E+000	7.26874E-004	-3.27687E+002	7	...........
	24	25	3.85977E+000	1.69583E-006	0.00000E+000	6.54551E-006	0.00000E+000	7.27607E-004	-3.27687E+002	7	...........
	25	26	3.85996E+000	1.69473E-006	0.00000E+000	6.54159E-006	0.00000E+000	7.29074E-004	-3.27687E+002	7	...........
	26	27	3.86015E+000	1.69438E-006	0.00000E+000	6.54058E-006	0.00000E+000	7.34274E-004	-3.27687E+002	7	...........
	27	28	3.86035E+000	1.69321E-006	0.00000E+000	6.53638E-006	0.00000E+000	7.41690E-004	-3.27687E+002	7	...........
	28	29	3.86055E+000	1.69260E-006	0.00000E+000	6.53438E-006	0.00000E+000	7.43674E-004	-3.27687E+002	7	...........
	29	30	3.86074E+000	1.69209E-006	0.00000E+000	6.53272E-006	0.00000E+000	7.42807E-004	-3.27687E+002	7	...........
	30	31	3.86094E+000	1.69147E-006	0.00000E+000	6.53067E-006	0.00000E+000	7.39324E-004	-3.27687E+002	7	...........
	31	32	3.86112E+000	1.69134E-006	0.00000E+000	6.53046E-006	0.00000E+000	7.40424E-004	-3.27687E+002	7	...........
	32	33	3.86129E+000	1.69193E-006	0.00000E+000	6.53303E-006	0.00000E+000	7.35140E-004	-3.27687E+002	7	...........
	33	34	3.86144E+000	1.69142E-006	0.00000E+000	6.53131E-006	0.00000E+000	7.36824E-004	-3.27687E+002	7	...........
	34	35	3.86158E+000	1.69007E-006	0.00000E+000	6.52636E-006	0.00000E+000	7.37107E-004	-3.27687E+002	7	...........
	35	36	3.86174E+000	1.68884E-006	0.00000E+000	6.52187E-006	0.00000E+000	7.43624E-004	-3.27687E+002	7	...........
	36	37	3.86190E+000	1.68896E-006	0.00000E+000	6.52260E-006	0.00000E+000	7.46607E-004	-3.27687E+002	7	...........
	37	38	3.86204E+000	1.68883E-006	0.00000E+000	6.52234E-006	0.00000E+000	7.49424E-004	-3.27687E+002	7	...........
	38	39	3.86218E+000	1.68829E-006	0.00000E+000	6.52048E-006	0.00000E+000	7.49340E-004	-3.27687E+002	7	...........
	39	40	3.86231E+000	1.68787E-006	0.00000E+000	6.51908E-006	0.00000E+000	7.46907E-004	-3.27687E+002	7	...........
	40	41	3.86247E+000	1.68744E-006	0.00000E+000	6.51768E-006	0.00000E+000	7.41274E-004	-3.27687E+002	7	...........
	41	42	3.86262E+000	1.68623E-006	0.00000E+000	6.51326E-006	0.00000E+000	7.35824E-004	-3.27687E+002	7	...........
	42	43	3.86276E+000	1.68577E-006	0.00000E+000	6.51172E-006	0.00000E+000	7.32040E-004	-3.27687E+002	7	...........
	43	44	3.86288E+000	1.68565E-006	0.00000E+000	6.51148E-006	0.00000E+000	7.29007E-004	-3.27687E+002	7	...........
	44	45	3.86300E+000	1.68600E-006	0.00000E+000	6.51302E-006	0.00000E+000	7.25557E-004	-3.27687E+002	7	...........
	45	46	3.86310E+000	1.68590E-006	0.00000E+000	6.51281E-006	0.00000E+000	7.26340E-004	-3.27687E+002	7	...........
	46	47	3.86322E+000	1.68511E-006	0.00000E+000	6.50995E-006	0.00000E+000	7.29040E-004	-3.27687E+002	7	...........
	47	48	3.86335E+000	1.68441E-006	0.00000E+000	6.50745E-006	0.00000E+000	7.25690E-004	-3.27687E+002	7	...........
	48	49	3.86349E+000	1.68389E-006	0.00000E+000	6.50568E-006	0.00000E+000	7.27357E-004	-3.27687E+002	7	...........
	49	50	3.86364E+000	1.68419E-006	0.00000E+000	6.50709E-006	0.00000E+000	7.27340E-004	-3.27687E+002	7	...........
	50	51	3.86377E+000	1.68363E-006	0.00000E+000	6.50516E-006	0.00000E+000	7.26174E-004	-3.27687E+002	7	...........
	51	52	3.86391E+000	1.68301E-006	0.00000E+000	6.50300E-006	0.00000E+000	7.23757E-004	-3.27687E+002	7	...........
	52	53	3.86406E+000	1.68251E-006	0.00000E+000	6.50131E-006	0.00000E+000	7.19774E-004	-3.27687E+002	7	...........
	53	54	3.86420E+000	1.68144E-006	0.00000E+000	6.49740E-006	0.00000E+000	7.16157E-004	-3.27687E+002	7	...........
	54	55	3.86431E+000	1.68118E-006	0.00000E+000	6.49661E-006	0.00000E+000	7.19624E-004	-3.27687E+002	7	...........
	55	56	3.86442E+000	1.68127E-006	0.00000E+000	6.49713E-006	0.00000E+000	7.18340E-004	-3.27687E+002	7	...........
	56	57	3.86451E+000	1.68131E-006	0.00000E+000	6.49745E-006	0.00000E+000	7.18040E-004	-3.27687E+002	7	...........
	57	58	3.86457E+000	1.68054E-006	0.00000E+000	6.49456E-006	0.00000E+000	7.21424E-004	-3.27687E+002	7	...........
	58	59	3.86463E+000	1.68039E-006	0.00000E+000	6.49406E-006	0.00000E+000	7.23624E-004	-3.27687E+002	7	...........
	59	60	3.86468E+000	1.67933E-006	0.00000E+000	6.49006E-006	0.00000E+000	7.26540E-004	-3.27687E+002	7	...........
	60	61	3.86473E+000	1.67973E-006	0.00000E+000	6.49171E-006	0.00000E+000	7.31524E-004	-3.27687E+002	7	...........
	61	62	3.86479E+000	1.67933E-006	0.00000E+000	6.49024E-006	0.00000E+000	7.34007E-004	-3.27687E+002	7	...........
	62	63	3.86485E+000	1.67929E-006	0.00000E+000	6.49019E-006	0.00000E+000	7.34657E-004	-3.27687E+002	7	...........
	63	64	3.86493E+000	1.67867E-006	0.00000E+000	6.48794E-006	0.00000E+000	7.36040E-004	-3.27687E+002	7	...........
	64	65	3.86502E+000	1.67816E-006	0.00000E+000	6.48610E-006	0.00000E+000	7.34057E-004	-3.27687E+002	7	...........
	65	66	3.86513E+000	1.67749E-006	0.00000E+000	6.48370E-006	0.00000E+000	7.33740E-004	-3.27687E+002	7	...........
	66	67	3.86526E+000	1.67750E-006	0.00000E+000	6.48399E-006	0.00000E+000	7.32557E-004	-3.27687E+002	7	...........
	67	68	3.86541E+000	1.67746E-006	0.00000E+000	6.48406E-006	0.00000E+000	7.33707E-004	-3.27687E+002	7	...........
	68	69	3.86557E+000	1.67780E-006	0.00000E+000	6.48566E-006	0.00000E+000	7.30607E-004	-3.27687E+002	7	...........
	69	70	3.86572E+000	1.67648E-006	0.00000E+000	6.48080E-006	0.00000E+000	7.27390E-004	-3.27687E+002	7	...........
	70	71	3.86585E+000	1.67618E-006	0.00000E+000	6.47987E-006	0.00000E+000	7.28857E-004	-3.27687E+002	7	...........
	71	72	3.86598E+000	1.67555E-006	0.00000E+000	6.47763E-006	0.00000E+000	7.27924E-004	-3.27687E+002	7	...........
	72	73	3.86609E+000	1.67582E-006	0.00000E+000	6.47885E-006	0.00000E+000	7.23674E-004	-3.27687E+002	7	...........
	73	74	3.86618E+000	1.67615E-006	0.00000E+000	6.48028E-006	0.00000E+000	7.24474E-004	-3.27687E+002	7	...........
	74	75	3.86627E+000	1.67561E-006	0.00000E+000	6.47835E-006	0.00000E+000	7.27290E-004	-3.27687E+002	7	...........
	75	76	3.86635E+000	1.67540E-006	0.00000E+000	6.47768E-006	0.00000E+000	7.29490E-004	-3.27687E+002	7	...........
	76	77	3.86644E+000	1.67487E-006	0.00000E+000	6.47579E-006	0.00000E+000	7.31757E-004	-3.27687E+002	7	...........
	77	78	3.86652E+000	1.67440E-006	0.00000E+000	6.47410E-006	0.00000E+000	7.33307E-004	-3.27687E+002	7	...........
	78	79	3.86661E+000	1.67401E-006	0.00000E+000	6.47274E-006	0.00000E+000	7.36940E-004	-3.27687E+002	7	...........
	79	80	3.86669E+000	1.67394E-006	0.00000E+000	6.47259E-006	0.00000E+000	7.36540E-004	-3.27687E+002	7	...........
	80	81	3.86679E+000	1.67360E-006	0.00000E+000	6.47145E-006	0.00000E+000	7.40690E-004	-3.27687E+002	7	...........
	81	82	3.86687E+000	1.67356E-006	0.00000E+000	6.47144E-006	0.00000E+000	7.42507E-004	-3.27687E+002	7	...........
	82	83	3.86695E+000	1.67353E-006	0.00000E+000	6.47146E-006	0.00000E+000	7.40107E-004	-3.27687E+002	7	...........
	83	84	3.86704E+000	1.67282E-006	0.00000E+000	6.46886E-006	0.00000E+000	7.45274E-004	-3.27687E+002	7	...........
	84	85	3.86713E+000	1.67313E-006	0.00000E+000	6.47019E-006	0.00000E+000	7.41640E-004	-3.27687E+002	7	...........
	85	86	3.86722E+000	1.67309E-006	0.00000E+000	6.47021E-006	0.00000E+000	7.40640E-004	-3.27687E+002	7	...........
	86	87	3.86730E+000	1.67225E-006	0.00000E+000	6.46709E-006	0.00000E+000	7.39174E-004	-3.27687E+002	7	...........
	87	88	3.86738E+000	1.67182E-006	0.00000E+000	6.46558E-006	0.00000E+000	7.37190E-004	-3.27687E+002	7	...........
	88	89	3.86746E+000	1.67117E-006	0.00000E+000	6.46317E-006	0.00000E+000	7.36057E-004	-3.27687E+002	7	...........
	89	90	3.86753E+000	1.67130E-006	0.00000E+000	6.46379E-006	0.00000E+000	7.34890E-004	-3.27687E+002	7	...........
	90	91	3.86759E+000	1.67116E-006	0.00000E+000	6.46337E-006	0.00000E+000	7.34424E-004	-3.27687E+002	7	...........
	91	92	3.86766E+000	1.67181E-006	0.00000E+000	6.46598E-006	0.00000E+000	7.29990E-004	-3.27687E+002	7	...........
	92	93	3.86773E+000	1.67211E-006	0.00000E+000	6.46726E-006	0.00000E+000	7.30957E-004	-3.27687E+002	7	...........
	93	94	3.86780E+000	1.67083E-006	0.00000E+000	6.46243E-006	0.00000E+000	7.32540E-004	-3.27687E+002	7	...........
	94	95	3.86786E+000	1.67096E-006	0.00000E+000	6.46305E-006	0.00000E+000	7.32607E-004	-3.27687E+002	7	...........
	95	96	3.86792E+000	1.67073E-006	0.00000E+000	6.46224E-006	0.00000E+000	7.32557E-004	-3.27687E+002	7	...........
	96	97	3.86798E+000	1.67009E-006	0.00000E+000	6.45987E-006	0.00000E+000	7.35707E-004	-3.27687E+002	7	...........
	97	98	3.86805E+000	1.66974E-006	0.00000E+000	6.45863E-006	0.00000E+000	7.37790E-004	-3.27687E+002	7	...........
	98	99	3.86811E+000	1.66974E-006	0.00000E+000	6.45874E-006	0.00000E+000	7.37057E-004	-3.27687E+002	7	...........
	99	100	3.86819E+000	1.66921E-006	0.00000E+000	6.45682E-006	0.00000E+000	7.38107E-004	-3.27687E+002	7	...........
	100	101	3.86825E+000	1.66870E-006	0.00000E+000	6.45496E-006	0.00000E+000	7.36607E-004	-3.27687E+002	7	...........
	101	102	3.86831E+000	1.66839E-006	0.00000E+000	6.45387E-006	0.00000E+000	7.41890E-004	-3.27687E+002	7	...........
	102	103	3.86837E+000	1.66836E-006	0.00000E+000	6.45385E-006	0.00000E+000	7.41840E-004	-3.27687E+002	7	...........
	103	104	3.86843E+000	1.66935E-006	0.00000E+000	6.45778E-006	0.00000E+000	7.43657E-004	-3.27687E+002	7	...........
	104	105	3.86850E+000	1.66853E-006	0.00000E+000	6.45469E-006	0.00000E+000	7.43590E-004	-3.27687E+002	7	...........
	105	106	3.86856E+000	1.66798E-006	0.00000E+000	6.45269E-006	0.00000E+000	7.43224E-004	-3.27687E+002	7	...........
	106	107	3.86862E+000	1.66862E-006	0.00000E+000	6.45526E-006	0.00000E+000	7.40407E-004	-3.27687E+002	7	...........
	107	108	3.86869E+000	1.66842E-006	0.00000E+000	6.45461E-006	0.00000E+000	7.39240E-004	-3.27687E+002	7	...........
	108	109	3.86876E+000	1.66826E-006	0.00000E+000	6.45409E-006	0.00000E+000	7.37590E-004	-3.27687E+002	7	...........
	109	110	3.86883E+000	1.66777E-006	0.00000E+000	6.45233E-006	0.00000E+000	7.36107E-004	-3.27687E+002	7	...........
	110	111	3.86889E+000	1.66762E-006	0.00000E+000	6.45183E-006	0.00000E+000	7.32774E-004	-3.27687E+002	7	...........
	111	112	3.86895E+000	1.66725E-006	0.00000E+000	6.45050E-006	0.00000E+000	7.29090E-004	-3.27687E+002	7	...........
	112	113	3.86902E+000	1.66706E-006	0.00000E+000	6.44990E-006	0.00000E+000	7.28007E-004	-3.27687E+002	7	...........
	113	114	3.86908E+000	1.66672E-006	0.00000E+000	6.44868E-006	0.00000E+000	7.25790E-004	-3.27687E+002	7	...........
	114	115	3.86914E+000	1.66738E-006	0.00000E+000	6.45132E-006	0.00000E+000	7.21174E-004	-3.27687E+002	7	...........
	115	116	3.86920E+000	1.66726E-006	0.00000E+000	6.45095E-006	0.00000E+000	7.18774E-004	-3.27687E+002	7	...........
	116	117	3.86925E+000	1.66625E-006	0.00000E+000	6.44713E-006	0.00000E+000	7.18007E-004	-3.27687E+002	7	...........
	117	118	3.86930E+000	1.66612E-006	0.00000E+000	6.44674E-006	0.00000E+000	7.15340E-004	-3.27687E+002	7	...........
	118	119	3.86934E+000	1.66547E-006	0.00000E+000	6.44425E-006	0.00000E+000	7.14540E-004	-3.27687E+002	7	...........
	119	120	3.86939E+000	1.66615E-006	0.00000E+000	6.44700E-006	0.00000E+000	7.10874E-004	-3.27687E+002	7	...........
	120	121	3.86944E+000	1.66578E-006	0.00000E+000	6.44563E-006	0.00000E+000	7.14340E-004	-3.27687E+002	7	...........
	121	122	3.86949E+000	1.66536E-006	0.00000E+000	6.44410E-006	0.00000E+000	7.10790E-004	-3.27687E+002	7	...........
	122	123	3.86953E+000	1.66530E-006	0.00000E+000	6.44392E-006	0.00000E+000	7.09590E-004	-3.27687E+002	7	...........
	123	124	3.86957E+000	1.66418E-006	0.00000E+000	6.43965E-006	0.00000E+000	7.11390E-004	-3.27687E+002	7	...........
	124	125	3.86961E+000	1.66389E-006	0.00000E+000	6.43861E-006	0.00000E+000	7.12540E-004	-3.27687E+002	7	...........
	125	126	3.86966E+000	1.66378E-006	0.00000E+000	6.43828E-006	0.00000E+000	7.11524E-004	-3.27687E+002	7	...........
	126	127	3.86970E+000	1.66418E-006	0.00000E+000	6.43989E-006	0.00000E+000	7.12907E-004	-3.27687E+002	7	...........
	127	128	3.86974E+000	1.66465E-006	0.00000E+000	6.44178E-006	0.00000E+000	7.13974E-004	-3.27687E+002	7	...........
	128	129	3.86979E+000	1.66382E-006	0.00000E+000	6.43864E-006	0.00000E+000	7.17040E-004	-3.27687E+002	7	...........
	129	130	3.86984E+000	1.66352E-006	0.00000E+000	6.43758E-006	0.00000E+000	7.17774E-004	-3.27687E+002	7	...........
	130	131	3.86988E+000	1.66335E-006	0.00000E+000	6.43696E-006	0.00000E+000	7.17607E-004	-3.27687E+002	7	...........
	131	132	3.86993E+000	1.66421E-006	0.00000E+000	6.44038E-006	0.00000E+000	7.24324E-004	-3.27687E+002	7	...........
	132	133	3.86997E+000	1.66439E-006	0.00000E+000	6.44114E-006	0.00000E+000	7.26774E-004	-3.27687E+002	7	...........
	133	134	3.87001E+000	1.66405E-006	0.00000E+000	6.43990E-006	0.00000E+000	7.23474E-004	-3.27687E+002	7	...........
	134	135	3.87006E+000	1.66311E-006	0.00000E+000	6.43633E-006	0.00000E+000	7.26507E-004	-3.27687E+002	7	...........
	135	136	3.87010E+000	1.66321E-006	0.00000E+000	6.43679E-006	0.00000E+000	7.25474E-004	-3.27687E+002	7	...........
	136	137	3.87013E+000	1.66220E-006	0.00000E+000	6.43295E-006	0.00000E+000	7.26607E-004	-3.27687E+002	7	...........
	137	138	3.87019E+000	1.66268E-006	0.00000E+000	6.43489E-006	0.00000E+000	7.28824E-004	-3.27687E+002	7	...........
	138	139	3.87025E+000	1.66293E-006	0.00000E+000	6.43596E-006	0.00000E+000	7.29540E-004	-3.27687E+002	7	...........
	139	140	3.87030E+000	1.66347E-006	0.00000E+000	6.43813E-006	0.00000E+000	7.29340E-004	-3.27687E+002	7	...........
	140	141	3.87035E+000	1.66266E-006	0.00000E+000	6.43507E-006	0.00000E+000	7.30357E-004	-3.27687E+002	7	...........
	141	142	3.87040E+000	1.66288E-006	0.00000E+000	6.43599E-006	0.00000E+000	7.29590E-004	-3.27687E+002	7	...........
	142	143	3.87046E+000	1.66294E-006	0.00000E+000	6.43632E-006	0.00000E+000	7.29674E-004	-3.27687E+002	7	...........
	143	144	3.87050E+000	1.66293E-006	0.00000E+000	6.43638E-006	0.00000E+000	7.33174E-004	-3.27687E+002	7	...........
	144	145	3.87054E+000	1.66261E-006	0.00000E+000	6.43520E-006	0.00000E+000	7.29424E-004	-3.27687E+002	7	...........
	145	146	3.87058E+000	1.66259E-006	0.00000E+000	6.43520E-006	0.00000E+000	7.31174E-004	-3.27687E+002	7	...........
	146	147	3.87062E+000	1.66168E-006	0.00000E+000	6.43174E-006	0.00000E+000	7.29640E-004	-3.27687E+002	7	...........
	147	148	3.87067E+000	1.66121E-006	0.00000E+000	6.42997E-006	0.00000E+000	7.30124E-004	-3.27687E+002	7	...........
	148	149	3.87069E+000	1.66106E-006	0.00000E+000	6.42947E-006	0.00000E+000	7.31940E-004	-3.27687E+002	7	...........
	149	150	3.87074E+000	1.66052E-006	0.00000E+000	6.42744E-006	0.00000E+000	7.30874E-004	-3.27687E+002	7	...........
	150	151	3.87078E+000	1.66149E-006	0.00000E+000	6.43125E-006	0.00000E+000	7.31440E-004	-3.27687E+002	7	...........
	151	152	3.87079E+000	1.66170E-006	0.00000E+000	6.43207E-006	0.00000E+000	7.30257E-004	-3.27687E+002	7	...........
	152	153	3.87083E+000	1.66085E-006	0.00000E+000	6.42888E-006	0.00000E+000	7.29890E-004	-3.27687E+002	7	...........
	153	154	3.87085E+000	1.66043E-006	0.00000E+000	6.42729E-006	0.00000E+000	7.25740E-004	-3.27687E+002	7	...........
	154	155	3.87087E+000	1.66022E-006	0.00000E+000	6.42651E-006	0.00000E+000	7.27590E-004	-3.27687E+002	7	...........
	155	156	3.87090E+000	1.66028E-006	0.00000E+000	6.42676E-006	0.00000E+000	7.29690E-004	-3.27687E+002	7	...........
	156	157	3.87092E+000	1.66029E-006	0.00000E+000	6.42683E-006	0.00000E+000	7.31407E-004	-3.27687E+002	7	...........
	157	158	3.87094E+000	1.66019E-006	0.00000E+000	6.42648E-006	0.00000E+000	7.28557E-004	-3.27687E+002	7	...........
	158	159	3.87096E+000	1.65989E-006	0.00000E+000	6.42538E-006	0.00000E+000	7.31190E-004	-3.27687E+002	7	...........
	159	160	3.87098E+000	1.65926E-006	0.00000E+000	6.42296E-006	0.00000E+000	7.31907E-004	-3.27687E+002	7	...........
	160	161	3.87100E+000	1.65923E-006	0.00000E+000	6.42288E-006	0.00000E+000	7.30957E-004	-3.27687E+002	7	...........
	161	162	3.87102E+000	1.65929E-006	0.00000E+000	6.42312E-006	0.00000E+000	7.30840E-004	-3.27687E+002	7	...........
	162	163	3.87103E+000	1.66001E-006	0.00000E+000	6.42593E-006	0.00000E+000	7.32907E-004	-3.27687E+002	7	...........
	163	164	3.87105E+000	1.66019E-006	0.00000E+000	6.42667E-006	0.00000E+000	7.32907E-004	-3.27687E+002	7	...........
	164	165	3.87106E+000	1.65932E-006	0.00000E+000	6.42335E-006	0.00000E+000	7.31257E-004	-3.27687E+002	7	...........
	165	166	3.87108E+000	1.65919E-006	0.00000E+000	6.42288E-006	0.00000E+000	7.34940E-004	-3.27687E+002	7	...........
	166	167	3.87110E+000	1.65900E-006	0.00000E+000	6.42218E-006	0.00000E+000	7.34774E-004	-3.27687E+002	7	...........
	167	168	3.87112E+000	1.65968E-006	0.00000E+000	6.42481E-006	0.00000E+000	7.33274E-004	-3.27687E+002	7	...........
	168	169	3.87114E+000	1.65975E-006	0.00000E+000	6.42513E-006	0.00000E+000	7.35574E-004	-3.27687E+002	7	...........
	169	170	3.87116E+000	1.65954E-006	0.00000E+000	6.42436E-006	0.00000E+000	7.33757E-004	-3.27687E+002	7	...........
	170	171	3.87118E+000	1.65886E-006	0.00000E+000	6.42174E-006	0.00000E+000	7.36790E-004	-3.27687E+002	7	...........
	171	172	3.87121E+000	1.65882E-006	0.00000E+000	6.42165E-006	0.00000E+000	7.36257E-004	-3.27687E+002	7	...........
	172	173	3.87123E+000	1.65874E-006	0.00000E+000	6.42135E-006	0.00000E+000	7.37140E-004	-3.27687E+002	7	...........
	173	174	3.87125E+000	1.65892E-006	0.00000E+000	6.42209E-006	0.00000E+000	7.38674E-004	-3.27687E+002	7	...........
	174	175	3.87127E+000	1.65966E-006	0.00000E+000	6.42500E-006	0.00000E+000	7.39657E-004	-3.27687E+002	7	...........
	175	176	3.87130E+000	1.65923E-006	0.00000E+000	6.42337E-006	0.00000E+000	7.37924E-004	-3.27687E+002	7	...........
	176	177	3.87132E+000	1.65888E-006	0.00000E+000	6.42207E-006	0.00000E+000	7.39357E-004	-3.27687E+002	7	...........
	177	178	3.87135E+000	1.65898E-006	0.00000E+000	6.42249E-006	0.00000E+000	7.38074E-004	-3.27687E+002	7	...........
	178	179	3.87139E+000	1.65905E-006	0.00000E+000	6.42284E-006	0.00000E+000	7.38857E-004	-3.27687E+002	7	...........
	179	180	3.87142E+000	1.65853E-006	0.00000E+000	6.42088E-006	0.00000E+000	7.38807E-004	-3.27687E+002	7	...........
	180	181	3.87144E+000	1.65826E-006	0.00000E+000	6.41984E-006	0.00000E+000	7.38774E-004	-3.27687E+002	7	...........
	181	182	3.87148E+000	1.65747E-006	0.00000E+000	6.41685E-006	0.00000E+000	7.38340E-004	-3.27687E+002	7	...........
	182	183	3.87152E+000	1.65682E-006	0.00000E+000	6.41440E-006	0.00000E+000	7.39457E-004	-3.27687E+002	7	...........
	183	184	3.87154E+000	1.65669E-006	0.00000E+000	6.41395E-006	0.00000E+000	7.37390E-004	-3.27687E+002	7	...........
	184	185	3.87159E+000	1.65677E-006	0.00000E+000	6.41433E-006	0.00000E+000	7.34840E-004	-3.27687E+002	7	...........
	185	186	3.87161E+000	1.65734E-006	0.00000E+000	6.41657E-006	0.00000E+000	7.37357E-004	-3.27687E+002	7	...........
	186	187	3.87164E+000	1.65754E-006	0.00000E+000	6.41739E-006	0.00000E+000	7.35757E-004	-3.27687E+002	7	...........
	187	188	3.87170E+000	1.65766E-006	0.00000E+000	6.41794E-006	0.00000E+000	7.37674E-004	-3.27687E+002	7	...........
	188	189	3.87175E+000	1.65714E-006	0.00000E+000	6.41604E-006	0.00000E+000	7.35824E-004	-3.27687E+002	7	...........
	189	190	3.87179E+000	1.65708E-006	0.00000E+000	6.41589E-006	0.00000E+000	7.35390E-004	-3.27687E+002	7	...........
	190	191	3.87182E+000	1.65707E-006	0.00000E+000	6.41587E-006	0.00000E+000	7.35157E-004	-3.27687E+002	7	...........
	191	192	3.87186E+000	1.65747E-006	0.00000E+000	6.41750E-006	0.00000E+000	7.33790E-004	-3.27687E+002	7	...........
	192	193	3.87192E+000	1.65697E-006	0.00000E+000	6.41567E-006	0.00000E+000	7.34557E-004	-3.27687E+002	7	...........
	193	194	3.87194E+000	1.65732E-006	0.00000E+000	6.41706E-006	0.00000E+000	7.34140E-004	-3.27687E+002	7	...........
	194	195	3.87200E+000	1.65657E-006	0.00000E+000	6.41423E-006	0.00000E+000	7.31990E-004	-3.27687E+002	7	...........
	195	196	3.87204E+000	1.65649E-006	0.00000E+000	6.41400E-006	0.00000E+000	7.34307E-004	-3.27687E+002	7	...........
	196	197	3.87208E+000	1.65628E-006	0.00000E+000	6.41323E-006	0.00000E+000	7.34090E-004	-3.27687E+002	7	...........
	197	198	3.87212E+000	1.65614E-006	0.00000E+000	6.41279E-006	0.00000E+000	7.33174E-004	-3.27687E+002	7	...........
	198	199	3.87215E+000	1.65640E-006	0.00000E+000	6.41384E-006	0.00000E+000	7.34540E-004	-3.27687E+002	7	...........
	199	200	3.87219E+000	1.65658E-006	0.00000E+000	6.41460E-006	0.00000E+000	7.29357E-004	-3.27687E+002	7	...........
	200	201	3.87224E+000	1.65609E-006	0.00000E+000	6.41276E-006	0.00000E+000	7.31440E-004	-3.27687E+002	7	...........
	201	202	3.87227E+000	1.65564E-006	0.00000E+000	6.41108E-006	0.00000E+000	7.28857E-004	-3.27687E+002	7	...........
	202	203	3.87230E+000	1.65582E-006	0.00000E+000	6.41183E-006	0.00000E+000	7.29024E-004	-3.27687E+002	7	...........
	203	204	3.87233E+000	1.65580E-006	0.00000E+000	6.41180E-006	0.00000E+000	7.30274E-004	-3.27687E+002	7	...........
	204	205	3.87237E+000	1.65620E-006	0.00000E+000	6.41343E-006	0.00000E+000	7.30774E-004	-3.27687E+002	7	...........
	205	206	3.87239E+000	1.65552E-006	0.00000E+000	6.41081E-006	0.00000E+000	7.29974E-004	-3.27687E+002	7	...........
	206	207	3.87242E+000	1.65508E-006	0.00000E+000	6.40916E-006	0.00000E+000	7.29374E-004	-3.27687E+002	7	...........
	207	208	3.87244E+000	1.65462E-006	0.00000E+000	6.40742E-006	0.00000E+000	7.29674E-004	-3.27687E+002	7	...........
	208	209	3.87247E+000	1.65455E-006	0.00000E+000	6.40721E-006	0.00000E+000	7.29240E-004	-3.27687E+002	7	...........
	209	210	3.87250E+000	1.65508E-006	0.00000E+000	6.40930E-006	0.00000E+000	7.30607E-004	-3.27687E+002	7	...........
	210	211	3.87252E+000	1.65526E-006	0.00000E+000	6.41002E-006	0.00000E+000	7.29807E-004	-3.27687E+002	7	...........
	211	212	3.87255E+000	1.65463E-006	0.00000E+000	6.40763E-006	0.00000E+000	7.29590E-004	-3.27687E+002	7	...........
	212	213	3.87257E+000	1.65452E-006	0.00000E+000	6.40722E-006	0.00000E+000	7.28840E-004	-3.27687E+002	7	...........
	213	214	3.87260E+000	1.65448E-006	0.00000E+000	6.40715E-006	0.00000E+000	7.30824E-004	-3.27687E+002	7	...........
	214	215	3.87262E+000	1.65451E-006	0.00000E+000	6.40728E-006	0.00000E+000	7.30540E-004	-3.27687E+002	7	...........
	215	216	3.87264E+000	1.65427E-006	0.00000E+000	6.40639E-006	0.00000E+000	7.28874E-004	-3.27687E+002	7	...........
	216	217	3.87265E+000	1.65485E-006	0.00000E+000	6.40867E-006	0.00000E+000	7.29740E-004	-3.27687E+002	7	...........
	217	218	3.87267E+000	1.65384E-006	0.00000E+000	6.40478E-006	0.00000E+000	7.32057E-004	-3.27687E+002	7	...........
	218	219	3.87270E+000	1.65414E-006	0.00000E+000	6.40600E-006	0.00000E+000	7.32024E-004	-3.27687E+002	7	...........
	219	220	3.87272E+000	1.65401E-006	0.00000E+000	6.40552E-006	0.00000E+000	7.33090E-004	-3.27687E+002	7	...........
	220	221	3.87274E+000	1.65413E-006	0.00000E+000	6.40599E-006	0.00000E+000	7.33540E-004	-3.27687E+002	7	...........
	221	222	3.87275E+000	1.65433E-006	0.00000E+000	6.40679E-006	0.00000E+000	7.35624E-004	-3.27687E+002	7	...........
	222	223	3.87278E+000	1.65553E-006	0.00000E+000	6.41151E-006	0.00000E+000	7.33524E-004	-3.27687E+002	7	...........
	223	224	3.87280E+000	1.65433E-006	0.00000E+000	6.40689E-006	0.00000E+000	7.36090E-004	-3.27687E+002	7	...........
	224	225	3.87282E+000	1.65460E-006	0.00000E+000	6.40797E-006	0.00000E+000	7.34524E-004	-3.27687E+002	7	...........
	225	226	3.87284E+000	1.65393E-006	0.00000E+000	6.40540E-006	0.00000E+000	7.34857E-004	-3.27687E+002	7	...........
	226	227	3.87286E+000	1.65414E-006	0.00000E+000	6.40626E-006	0.00000E+000	7.35840E-004	-3.27687E+002	7	...........
	227	228	3.87289E+000	1.65432E-006	0.00000E+000	6.40699E-006	0.00000E+000	7.36874E-004	-3.27687E+002	7	...........
	228	229	3.87291E+000	1.65447E-006	0.00000E+000	6.40761E-006	0.00000E+000	7.37674E-004	-3.27687E+002	7	...........
	229	230	3.87293E+000	1.65460E-006	0.00000E+000	6.40816E-006	0.00000E+000	7.38357E-004	-3.27687E+002	7	...........
	230	231	3.87295E+000	1.65388E-006	0.00000E+000	6.40537E-006	0.00000E+000	7.36040E-004	-3.27687E+002	7	...........
	231	232	3.87297E+000	1.65346E-006	0.00000E+000	6.40378E-006	0.00000E+000	7.39057E-004	-3.27687E+002	7	...........
	232	233	3.87299E+000	1.65337E-006	0.00000E+000	6.40349E-006	0.00000E+000	7.40124E-004	-3.27687E+002	7	...........
	233	234	3.87302E+000	1.65313E-006	0.00000E+000	6.40259E-006	0.00000E+000	7.40074E-004	-3.27687E+002	7	...........
	234	235	3.87304E+000	1.65361E-006	0.00000E+000	6.40449E-006	0.00000E+000	7.38507E-004	-3.27687E+002	7	...........
	235	236	3.87306E+000	1.65308E-006	0.00000E+000	6.40248E-006	0.00000E+000	7.40390E-004	-3.27687E+002	7	...........
	236	237	3.87308E+000	1.65310E-006	0.00000E+000	6.40261E-006	0.00000E+000	7.39590E-004	-3.27687E+002	7	...........
	237	238	3.87311E+000	1.65287E-006	0.00000E+000	6.40173E-006	0.00000E+000	7.40907E-004	-3.27687E+002	7	...........
	238	239	3.87313E+000	1.65293E-006	0.00000E+000	6.40201E-006	0.00000E+000	7.41857E-004	-3.27687E+002	7	...........
	239	240	3.87315E+000	1.65308E-006	0.00000E+000	6.40262E-006	0.00000E+000	7.42190E-004	-3.27687E+002	7	...........
	240	241	3.87316E+000	1.65274E-006	0.00000E+000	6.40131E-006	0.00000E+000	7.43207E-004	-3.27687E+002	7	...........
	241	242	3.87318E+000	1.65191E-006	0.00000E+000	6.39814E-006	0.00000E+000	7.44590E-004	-3.27687E+002	7	...........
	242	243	3.87320E+000	1.65262E-006	0.00000E+000	6.40091E-006	0.00000E+000	7.42207E-004	-3.27687E+002	7	...........
	243	244	3.87322E+000	1.65225E-006	0.00000E+000	6.39953E-006	0.00000E+000	7.43557E-004	-3.27687E+002	7	...........
	244	245	3.87324E+000	1.65217E-006	0.00000E+000	6.39926E-006	0.00000E+000	7.45174E-004	-3.27687E+002	7	...........
	245	246	3.87325E+000	1.65240E-006	0.00000E+000	6.40015E-006	0.00000E+000	7.44407E-004	-3.27687E+002	7	...........
	246	247	3.87327E+000	1.65292E-006	0.00000E+000	6.40219E-006	0.00000E+000	7.46207E-004	-3.27687E+002	7	...........
	247	248	3.87329E+000	1.65211E-006	0.00000E+000	6.39910E-006	0.00000E+000	7.44707E-004	-3.27687E+002	7	...........
	248	249	3.87332E+000	1.65193E-006	0.00000E+000	6.39845E-006	0.00000E+000	7.43540E-004	-3.27687E+002	7	...........
	249	250	3.87334E+000	1.65202E-006	0.00000E+000	6.39883E-006	0.00000E+000	7.42190E-004	-3.27687E+002	7	...........
	250	251	3.87335E+000	1.65169E-006	0.00000E+000	6.39759E-006	0.00000E+000	7.44890E-004	-3.27687E+002	7	...........
	251	252	3.87336E+000	1.65216E-006	0.00000E+000	6.39942E-006	0.00000E+000	7.44074E-004	-3.27687E+002	7	...........
	252	253	3.87339E+000	1.65135E-006	0.00000E+000	6.39632E-006	0.00000E+000	7.46340E-004	-3.27687E+002	7	...........
	253	254	3.87340E+000	1.65150E-006	0.00000E+000	6.39693E-006	0.00000E+000	7.46224E-004	-3.27687E+002	7	...........
	254	255	3.87343E+000	1.65079E-006	0.00000E+000	6.39423E-006	0.00000E+000	7.45574E-004	-3.27687E+002	7	...........
	255	256	3.87344E+000	1.65054E-006	0.00000E+000	6.39328E-006	0.00000E+000	7.46440E-004	-3.27687E+002	7	...........
	256	257	3.87346E+000	1.65090E-006	0.00000E+000	6.39470E-006	0.00000E+000	7.44840E-004	-3.27687E+002	7	...........
	257	258	3.87349E+000	1.65090E-006	0.00000E+000	6.39475E-006	0.00000E+000	7.44490E-004	-3.27687E+002	7	...........
	258	259	3.87351E+000	1.65146E-006	0.00000E+000	6.39693E-006	0.00000E+000	7.47140E-004	-3.27687E+002	7	...........
	259	260	3.87352E+000	1.65092E-006	0.00000E+000	6.39486E-006	0.00000E+000	7.45140E-004	-3.27687E+002	7	...........
	260	261	3.87354E+000	1.65083E-006	0.00000E+000	6.39456E-006	0.00000E+000	7.44374E-004	-3.27687E+002	7	...........
	261	262	3.87356E+000	1.65123E-006	0.00000E+000	6.39616E-006	0.00000E+000	7.45157E-004	-3.27687E+002	7	...........
	262	263	3.87358E+000	1.65111E-006	0.00000E+000	6.39569E-006	0.00000E+000	7.43190E-004	-3.27687E+002	7	...........
	263	264	3.87360E+000	1.65070E-006	0.00000E+000	6.39416E-006	0.00000E+000	7.43257E-004	-3.27687E+002	7	...........
	264	265	3.87362E+000	1.65117E-006	0.00000E+000	6.39600E-006	0.00000E+000	7.45290E-004	-3.27687E+002	7	...........
	265	266	3.87364E+000	1.65108E-006	0.00000E+000	6.39569E-006	0.00000E+000	7.45490E-004	-3.27687E+002	7	...........
	266	267	3.87365E+000	1.65019E-006	0.00000E+000	6.39227E-006	0.00000E+000	7.45757E-004	-3.27687E+002	7	...........
	267	268	3.87365E+000	1.64958E-006	0.00000E+000	6.38990E-006	0.00000E+000	7.45340E-004	-3.27687E+002	7	...........
	268	269	3.87369E+000	1.64987E-006	0.00000E+000	6.39110E-006	0.00000E+000	7.44207E-004	-3.27687E+002	7	...........
	269	270	3.87370E+000	1.65022E-006	0.00000E+000	6.39247E-006	0.00000E+000	7.42724E-004	-3.27687E+002	7	...........
	270	271	3.87372E+000	1.65085E-006	0.00000E+000	6.39494E-006	0.00000E+000	7.39824E-004	-3.27687E+002	7	...........
	271	272	3.87374E+000	1.65030E-006	0.00000E+000	6.39285E-006	0.00000E+000	7.40190E-004	-3.27687E+002	7	...........
	272	273	3.87377E+000	1.65005E-006	0.00000E+000	6.39191E-006	0.00000E+000	7.39840E-004	-3.27687E+002	7	...........
	273	274	3.87379E+000	1.65017E-006	0.00000E+000	6.39242E-006	0.00000E+000	7.43324E-004	-3.27687E+002	7	...........
	274	275	3.87379E+000	1.65009E-006	0.00000E+000	6.39211E-006	0.00000E+000	7.43340E-004	-3.27687E+002	7	...........
	275	276	3.87381E+000	1.64978E-006	0.00000E+000	6.39096E-006	0.00000E+000	7.38440E-004	-3.27687E+002	7	...........
	276	277	3.87383E+000	1.64982E-006	0.00000E+000	6.39112E-006	0.00000E+000	7.40257E-004	-3.27687E+002	7	...........
	277	278	3.87384E+000	1.64965E-006	0.00000E+000	6.39046E-006	0.00000E+000	7.38974E-004	-3.27687E+002	7	...........
	278	279	3.87386E+000	1.64970E-006	0.00000E+000	6.39071E-006	0.00000E+000	7.38057E-004	-3.27687E+002	7	...........
	279	280	3.87387E+000	1.64927E-006	0.00000E+000	6.38904E-006	0.00000E+000	7.37790E-004	-3.27687E+002	7	...........
	280	281	3.87389E+000	1.64951E-006	0.00000E+000	6.39000E-006	0.00000E+000	7.37424E-004	-3.27687E+002	7	...........
	281	282	3.87390E+000	1.64985E-006	0.00000E+000	6.39137E-006	0.00000E+000	7.38707E-004	-3.27687E+002	7	...........
	282	283	3.87391E+000	1.65109E-006	0.00000E+000	6.39617E-006	0.00000E+000	7.37457E-004	-3.27687E+002	7	...........
	283	284	3.87393E+000	1.64979E-006	0.00000E+000	6.39116E-006	0.00000E+000	7.36790E-004	-3.27687E+002	7	...........
	284	285	3.87394E+000	1.64924E-006	0.00000E+000	6.38904E-006	0.00000E+000	7.36707E-004	-3.27687E+002	7	...........
	285	286	3.87396E+000	1.64945E-006	0.00000E+000	6.38992E-006	0.00000E+000	7.37340E-004	-3.27687E+002	7	...........
	286	287	3.87398E+000	1.64991E-006	0.00000E+000	6.39170E-006	0.00000E+000	7.35140E-004	-3.27687E+002	7	...........
	287	288	3.87400E+000	1.64926E-006	0.00000E+000	6.38924E-006	0.00000E+000	7.35457E-004	-3.27687E+002	7	...........
	288	289	3.87401E+000	1.64941E-006	0.00000E+000	6.38983E-006	0.00000E+000	7.34257E-004	-3.27687E+002	7	...........
	289	290	3.87402E+000	1.64879E-006	0.00000E+000	6.38746E-006	0.00000E+000	7.33457E-004	-3.27687E+002	7	...........
	290	291	3.87404E+000	1.64868E-006	0.00000E+000	6.38705E-006	0.00000E+000	7.31590E-004	-3.27687E+002	7	...........
	291	292	3.87405E+000	1.64831E-006	0.00000E+000	6.38564E-006	0.00000E+000	7.33674E-004	-3.27687E+002	7	...........
	292	293	3.87406E+000	1.64832E-006	0.00000E+000	6.38570E-006	0.00000E+000	7.32357E-004	-3.27687E+002	7	...........
	293	294	3.87408E+000	1.64863E-006	0.00000E+000	6.38693E-006	0.00000E+000	7.32307E-004	-3.27687E+002	7	...........
	294	295	3.87409E+000	1.64985E-006	0.00000E+000	6.39166E-006	0.00000E+000	7.32840E-004	-3.27687E+002	7	...........
	295	296	3.87410E+000	1.64914E-006	0.00000E+000	6.38892E-006	0.00000E+000	7.33040E-004	-3.27687E+002	7	...........
	296	297	3.87411E+000	1.64832E-006	0.00000E+000	6.38577E-006	0.00000E+000	7.33790E-004	-3.27687E+002	7	...........
	297	298	3.87413E+000	1.64849E-006	0.00000E+000	6.38648E-006	0.00000E+000	7.33240E-004	-3.27687E+002	7	...........
	298	299	3.87415E+000	1.64836E-006	0.00000E+000	6.38599E-006	0.00000E+000	7.32474E-004	-3.27687E+002	7	...........
	299	300	3.87416E+000	1.64860E-006	0.00000E+000	6.38692E-006	0.00000E+000	7.33924E-004	-3.27687E+002	7	...........
	300	301	3.87416E+000	1.64900E-006	0.00000E+000	6.38849E-006	0.00000E+000	7.31524E-004	-3.27687E+002	7	...........
	301	302	3.87418E+000	1.64852E-006	0.00000E+000	6.38669E-006	0.00000E+000	7.34640E-004	-3.27687E+002	7	...........
	302	303	3.87419E+000	1.64852E-006	0.00000E+000	6.38670E-006	0.00000E+000	7.33190E-004	-3.27687E+002	7	...........
	303	304	3.87421E+000	1.64794E-006	0.00000E+000	6.38446E-006	0.00000E+000	7.35307E-004	-3.27687E+002	7	...........
	304	305	3.87422E+000	1.64771E-006	0.00000E+000	6.38360E-006	0.00000E+000	7.33990E-004	-3.27687E+002	7	...........
	305	306	3.87423E+000	1.64795E-006	0.00000E+000	6.38455E-006	0.00000E+000	7.36124E-004	-3.27687E+002	7	...........
	306	307	3.87424E+000	1.64980E-006	0.00000E+000	6.39172E-006	0.00000E+000	7.34157E-004	-3.27687E+002	7	...........
	307	308	3.87426E+000	1.64885E-006	0.00000E+000	6.38808E-006	0.00000E+000	7.33774E-004	-3.27687E+002	7	...........
	308	309	3.87427E+000	1.64817E-006	0.00000E+000	6.38547E-006	0.00000E+000	7.34307E-004	-3.27687E+002	7	...........
	309	310	3.87427E+000	1.64869E-006	0.00000E+000	6.38747E-006	0.00000E+000	7.33624E-004	-3.27687E+002	7	...........
	310	311	3.87429E+000	1.64903E-006	0.00000E+000	6.38882E-006	0.00000E+000	7.35824E-004	-3.27687E+002	7	...........
	311	312	3.87432E+000	1.64901E-006	0.00000E+000	6.38878E-006	0.00000E+000	7.32574E-004	-3.27687E+002	7	...........
	312	313	3.87432E+000	1.64827E-006	0.00000E+000	6.38592E-006	0.00000E+000	7.35524E-004	-3.27687E+002	7	...........
	313	314	3.87433E+000	1.64809E-006	0.00000E+000	6.38524E-006	0.00000E+000	7.35640E-004	-3.27687E+002	7	...........
	314	315	3.87435E+000	1.64849E-006	0.00000E+000	6.38682E-006	0.00000E+000	7.36040E-004	-3.27687E+002	7	...........
	315	316	3.87436E+000	1.64771E-006	0.00000E+000	6.38380E-006	0.00000E+000	7.34740E-004	-3.27687E+002	7	...........
	316	317	3.87437E+000	1.64718E-006	0.00000E+000	6.38178E-006	0.00000E+000	7.38407E-004	-3.27687E+002	7	...........
	317	318	3.87438E+000	1.64793E-006	0.00000E+000	6.38472E-006	0.00000E+000	7.36740E-004	-3.27687E+002	7	...........
	318	319	3.87439E+000	1.64867E-006	0.00000E+000	6.38761E-006	0.00000E+000	7.33107E-004	-3.27687E+002	7	...........
	319	320	3.87441E+000	1.64845E-006	0.00000E+000	6.38677E-006	0.00000E+000	7.35840E-004	-3.27687E+002	7	...........
	320	321	3.87443E+000	1.64802E-006	0.00000E+000	6.38513E-006	0.00000E+000	7.38807E-004	-3.27687E+002	7	...........
	321	322	3.87444E+000	1.64793E-006	0.00000E+000	6.38479E-006	0.00000E+000	7.39774E-004	-3.27687E+002	7	...........
	322	323	3.87445E+000	1.64825E-006	0.00000E+000	6.38604E-006	0.00000E+000	7.38674E-004	-3.27687E+002	7	...........
	323	324	3.87445E+000	1.64808E-006	0.00000E+000	6.38541E-006	0.00000E+000	7.40807E-004	-3.27687E+002	7	...........
	324	325	3.87447E+000	1.64829E-006	0.00000E+000	6.38624E-006	0.00000E+000	7.40790E-004	-3.27687E+002	7	...........
	325	326	3.87447E+000	1.64792E-006	0.00000E+000	6.38482E-006	0.00000E+000	7.41557E-004	-3.27687E+002	7	...........
	326	327	3.87449E+000	1.64800E-006	0.00000E+000	6.38517E-006	0.00000E+000	7.40290E-004	-3.27687E+002	7	...........
	327	328	3.87450E+000	1.64747E-006	0.00000E+000	6.38314E-006	0.00000E+000	7.41440E-004	-3.27687E+002	7	...........
	328	329	3.87452E+000	1.64763E-006	0.00000E+000	6.38378E-006	0.00000E+000	7.40290E-004	-3.27687E+002	7	...........
	329	330	3.87453E+000	1.64813E-006	0.00000E+000	6.38571E-006	0.00000E+000	7.40190E-004	-3.27687E+002	7	...........
	330	331	3.87454E+000	1.64823E-006	0.00000E+000	6.38614E-006	0.00000E+000	7.40224E-004	-3.27687E+002	7	...........
	331	332	3.87455E+000	1.64827E-006	0.00000E+000	6.38629E-006	0.00000E+000	7.39257E-004	-3.27687E+002	7	...........
	332	333	3.87456E+000	1.64787E-006	0.00000E+000	6.38476E-006	0.00000E+000	7.42374E-004	-3.27687E+002	7	...........
	333	334	3.87457E+000	1.64781E-006	0.00000E+000	6.38456E-006	0.00000E+000	7.40540E-004	-3.27687E+002	7	...........
	334	335	3.87458E+000	1.64744E-006	0.00000E+000	6.38314E-006	0.00000E+000	7.40590E-004	-3.27687E+002	7	...........
	335	336	3.87460E+000	1.64815E-006	0.00000E+000	6.38591E-006	0.00000E+000	7.43174E-004	-3.27687E+002	7	...........
	336	337	3.87461E+000	1.64831E-006	0.00000E+000	6.38656E-006	0.00000E+000	7.41140E-004	-3.27687E+002	7	...........
	337	338	3.87462E+000	1.64816E-006	0.00000E+000	6.38600E-006	0.00000E+000	7.42740E-004	-3.27687E+002	7	...........
	338	339	3.87463E+000	1.64791E-006	0.00000E+000	6.38503E-006	0.00000E+000	7.42207E-004	-3.27687E+002	7	...........
	339	340	3.87464E+000	1.64760E-006	0.00000E+000	6.38384E-006	0.00000E+000	7.44790E-004	-3.27687E+002	7	...........
	340	341	3.87465E+000	1.64672E-006	0.00000E+000	6.38044E-006	0.00000E+000	7.41024E-004	-3.27687E+002	7	...........
	341	342	3.87465E+000	1.64746E-006	0.00000E+000	6.38333E-006	0.00000E+000	7.43907E-004	-3.27687E+002	7	...........
	342	343	3.87467E+000	1.64835E-006	0.00000E+000	6.38682E-006	0.00000E+000	7.41374E-004	-3.27687E+002	7	...........
	343	344	3.87468E+000	1.64916E-006	0.00000E+000	6.38996E-006	0.00000E+000	7.45024E-004	-3.27687E+002	7	...........
	344	345	3.87469E+000	1.64811E-006	0.00000E+000	6.38591E-006	0.00000E+000	7.45590E-004	-3.27687E+002	7	...........
	345	346	3.87470E+000	1.64717E-006	0.00000E+000	6.38230E-006	0.00000E+000	7.44557E-004	-3.27687E+002	7	...........
	346	347	3.87471E+000	1.64683E-006	0.00000E+000	6.38098E-006	0.00000E+000	7.46357E-004	-3.27687E+002	7	...........
	347	348	3.87473E+000	1.64686E-006	0.00000E+000	6.38115E-006	0.00000E+000	7.45440E-004	-3.27687E+002	7	...........
	348	349	3.87475E+000	1.64711E-006	0.00000E+000	6.38214E-006	0.00000E+000	7.48340E-004	-3.27687E+002	7	...........
	349	350	3.87475E+000	1.64682E-006	0.00000E+000	6.38103E-006	0.00000E+000	7.45957E-004	-3.27687E+002	7	...........
	350	351	3.87475E+000	1.64646E-006	0.00000E+000	6.37962E-006	0.00000E+000	7.46857E-004	-3.27687E+002	7	...........
	351	352	3.87476E+000	1.64692E-006	0.00000E+000	6.38142E-006	0.00000E+000	7.48990E-004	-3.27687E+002	7	...........
	352	353	3.87477E+000	1.64581E-006	0.00000E+000	6.37714E-006	0.00000E+000	7.44907E-004	-3.27687E+002	7	...........
	353	354	3.87479E+000	1.64613E-006	0.00000E+000	6.37839E-006	0.00000E+000	7.47790E-004	-3.27687E+002	7	...........
	354	355	3.87479E+000	1.64648E-006	0.00000E+000	6.37975E-006	0.00000E+000	7.49140E-004	-3.27687E+002	7	...........
	355	356	3.87481E+000	1.64685E-006	0.00000E+000	6.38123E-006	0.00000E+000	7.47740E-004	-3.27687E+002	7	...........
	356	357	3.87482E+000	1.64645E-006	0.00000E+000	6.37969E-006	0.00000E+000	7.47540E-004	-3.27687E+002	7	...........
	357	358	3.87481E+000	1.64657E-006	0.00000E+000	6.38016E-006	0.00000E+000	7.46524E-004	-3.27687E+002	7	...........
	358	359	3.87482E+000	1.64656E-006	0.00000E+000	6.38011E-006	0.00000E+000	7.47240E-004	-3.27687E+002	7	...........
	359	360	3.87483E+000	1.64694E-006	0.00000E+000	6.38161E-006	0.00000E+000	7.48607E-004	-3.27687E+002	7	...........
	360	361	3.87485E+000	1.64669E-006	0.00000E+000	6.38066E-006	0.00000E+000	7.47240E-004	-3.27687E+002	7	...........
	361	362	3.87486E+000	1.64672E-006	0.00000E+000	6.38080E-006	0.00000E+000	7.49640E-004	-3.27687E+002	7	...........
	362	363	3.87487E+000	1.64658E-006	0.00000E+000	6.38028E-006	0.00000E+000	7.48757E-004	-3.27687E+002	7	...........
	363	364	3.87487E+000	1.64571E-006	0.00000E+000	6.37690E-006	0.00000E+000	7.47007E-004	-3.27687E+002	7	...........
	364	365	3.87489E+000	1.64577E-006	0.00000E+000	6.37718E-006	0.00000E+000	7.47607E-004	-3.27687E+002	7	...........
	365	366	3.87489E+000	1.64595E-006	0.00000E+000	6.37786E-006	0.00000E+000	7.48040E-004	-3.27687E+002	7	...........
	366	367	3.87491E+000	1.64661E-006	0.00000E+000	6.38045E-006	0.00000E+000	7.47657E-004	-3.27687E+002	7	...........
	367	368	3.87492E+000	1.64704E-006	0.00000E+000	6.38214E-006	0.00000E+000	7.49374E-004	-3.27687E+002	7	...........
	368	369	3.87493E+000	1.64650E-006	0.00000E+000	6.38008E-006	0.00000E+000	7.48557E-004	-3.27687E+002	7	...........
	369	370	3.87494E+000	1.64642E-006	0.00000E+000	6.37979E-006	0.00000E+000	7.47407E-004	-3.27687E+002	7	...........
	370	371	3.87494E+000	1.64602E-006	0.00000E+000	6.37823E-006	0.00000E+000	7.48240E-004	-3.27687E+002	7	...........
	371	372	3.87496E+000	1.64610E-006	0.00000E+000	6.37858E-006	0.00000E+000	7.44707E-004	-3.27687E+002	7	...........
	372	373	3.87497E+000	1.64587E-006	0.00000E+000	6.37769E-006	0.00000E+000	7.47640E-004	-3.27687E+002	7	...........
	373	374	3.87497E+000	1.64674E-006	0.00000E+000	6.38106E-006	0.00000E+000	7.48774E-004	-3.27687E+002	7	...........
	374	375	3.87498E+000	1.64667E-006	0.00000E+000	6.38079E-006	0.00000E+000	7.49890E-004	-3.27687E+002	7	...........
	375	376	3.87499E+000	1.64582E-006	0.00000E+000	6.37752E-006	0.00000E+000	7.48740E-004	-3.27687E+002	7	...........
	376	377	3.87500E+000	1.64646E-006	0.00000E+000	6.38002E-006	0.00000E+000	7.49457E-004	-3.27687E+002	7	...........
	377	378	3.87501E+000	1.64599E-006	0.00000E+000	6.37823E-006	0.00000E+000	7.48307E-004	-3.27687E+002	7	...........
	378	379	3.87503E+000	1.64608E-006	0.00000E+000	6.37860E-006	0.00000E+000	7.47307E-004	-3.27687E+002	7	...........
	379	380	3.87503E+000	1.64686E-006	0.00000E+000	6.38163E-006	0.00000E+000	7.47840E-004	-3.27687E+002	7	...........
	380	381	3.87504E+000	1.64704E-006	0.00000E+000	6.38235E-006	0.00000E+000	7.46890E-004	-3.27687E+002	7	...........
	381	382	3.87505E+000	1.64623E-006	0.00000E+000	6.37922E-006	0.00000E+000	7.48190E-004	-3.27687E+002	7	...........
	382	383	3.87506E+000	1.64640E-006	0.00000E+000	6.37987E-006	0.00000E+000	7.48974E-004	-3.27687E+002	7	...........
	383	384	3.87507E+000	1.64643E-006	0.00000E+000	6.38003E-006	0.00000E+000	7.46557E-004	-3.27687E+002	7	...........
	384	385	3.87508E+000	1.64601E-006	0.00000E+000	6.37841E-006	0.00000E+000	7.47374E-004	-3.27687E+002	7	...........
	385	386	3.87509E+000	1.64610E-006	0.00000E+000	6.37878E-006	0.00000E+000	7.50207E-004	-3.27687E+002	7	...........
	386	387	3.87509E+000	1.64603E-006	0.00000E+000	6.37853E-006	0.00000E+000	7.49407E-004	-3.27687E+002	7	...........
	387	388	3.87511E+000	1.64571E-006	0.00000E+000	6.37731E-006	0.00000E+000	7.45990E-004	-3.27687E+002	7	...........
	388	389	3.87512E+000	1.64513E-006	0.00000E+000	6.37507E-006	0.00000E+000	7.45907E-004	-3.27687E+002	7	...........
	389	390	3.87513E+000	1.64522E-006	0.00000E+000	6.37543E-006	0.00000E+000	7.46774E-004	-3.27687E+002	7	...........
	390	391	3.87514E+000	1.64512E-006	0.00000E+000	6.37506E-006	0.00000E+000	7.47924E-004	-3.27687E+002	7	...........
	391	392	3.87514E+000	1.64614E-006	0.00000E+000	6.37902E-006	0.00000E+000	7.44507E-004	-3.27687E+002	7	...........
	392	393	3.87515E+000	1.64698E-006	0.00000E+000	6.38230E-006	0.00000E+000	7.46757E-004	-3.27687E+002	7	...........
	393	394	3.87517E+000	1.64658E-006	0.00000E+000	6.38080E-006	0.00000E+000	7.44324E-004	-3.27687E+002	7	...........
	394	395	3.87517E+000	1.64621E-006	0.00000E+000	6.37936E-006	0.00000E+000	7.43774E-004	-3.27687E+002	7	...........
	395	396	3.87520E+000	1.64548E-006	0.00000E+000	6.37654E-006	0.00000E+000	7.44340E-004	-3.27687E+002	7	...........
	396	397	3.87520E+000	1.64601E-006	0.00000E+000	6.37862E-006	0.00000E+000	7.45090E-004	-3.27687E+002	7	...........
	397	398	3.87521E+000	1.64618E-006	0.00000E+000	6.37929E-006	0.00000E+000	7.44174E-004	-3.27687E+002	7	...........
	398	399	3.87522E+000	1.64644E-006	0.00000E+000	6.38033E-006	0.00000E+000	7.42307E-004	-3.27687E+002	7	...........
	399	400	3.87524E+000	1.64564E-006	0.00000E+000	6.37725E-006	0.00000E+000	7.43940E-004	-3.27687E+002	7	...........
	400	401	3.87524E+000	1.64549E-006	0.00000E+000	6.37668E-006	0.00000E+000	7.41274E-004	-3.27687E+002	7	...........
	401	402	3.87525E+000	1.64508E-006	0.00000E+000	6.37511E-006	0.00000E+000	7.42090E-004	-3.27687E+002	7	...........
	402	403	3.87526E+000	1.64411E-006	0.00000E+000	6.37134E-006	0.00000E+000	7.41707E-004	-3.27687E+002	7	...........
	403	404	3.87527E+000	1.64485E-006	0.00000E+000	6.37424E-006	0.00000E+000	7.42857E-004	-3.27687E+002	7	...........
	404	405	3.87528E+000	1.64649E-006	0.00000E+000	6.38060E-006	0.00000E+000	7.42074E-004	-3.27687E+002	7	...........
	405	406	3.87529E+000	1.64555E-006	0.00000E+000	6.37698E-006	0.00000E+000	7.42157E-004	-3.27687E+002	7	...........
	406	407	3.87530E+000	1.64611E-006	0.00000E+000	6.37915E-006	0.00000E+000	7.41440E-004	-3.27687E+002	7	...........
	407	408	3.87531E+000	1.64537E-006	0.00000E+000	6.37631E-006	0.00000E+000	7.43157E-004	-3.27687E+002	7	...........
	408	409	3.87532E+000	1.64565E-006	0.00000E+000	6.37741E-006	0.00000E+000	7.42740E-004	-3.27687E+002	7	...........
	409	410	3.87532E+000	1.64504E-006	0.00000E+000	6.37505E-006	0.00000E+000	7.40924E-004	-3.27687E+002	7	...........
	410	411	3.87534E+000	1.64496E-006	0.00000E+000	6.37477E-006	0.00000E+000	7.39524E-004	-3.27687E+002	7	...........
	411	412	3.87535E+000	1.64553E-006	0.00000E+000	6.37702E-006	0.00000E+000	7.37574E-004	-3.27687E+002	7	...........
	412	413	3.87536E+000	1.64563E-006	0.00000E+000	6.37739E-006	0.00000E+000	7.39707E-004	-3.27687E+002	7	...........
	413	414	3.87537E+000	1.64540E-006	0.00000E+000	6.37652E-006	0.00000E+000	7.38807E-004	-3.27687E+002	7	...........
	414	415	3.87538E+000	1.64589E-006	0.00000E+000	6.37844E-006	0.00000E+000	7.40024E-004	-3.27687E+002	7	...........
	415	416	3.87538E+000	1.64591E-006	0.00000E+000	6.37851E-006	0.00000E+000	7.38224E-004	-3.27687E+002	7	...........
	416	417	3.87539E+000	1.64635E-006	0.00000E+000	6.38025E-006	0.00000E+000	7.39924E-004	-3.27687E+002	7	...........
	417	418	3.87540E+000	1.64588E-006	0.00000E+000	6.37844E-006	0.00000E+000	7.39290E-004	-3.27687E+002	7	...........
	418	419	3.87541E+000	1.64532E-006	0.00000E+000	6.37628E-006	0.00000E+000	7.40057E-004	-3.27687E+002	7	...........
	419	420	3.87542E+000	1.64502E-006	0.00000E+000	6.37515E-006	0.00000E+000	7.39157E-004	-3.27687E+002	7	...........
	420	421	3.87543E+000	1.64552E-006	0.00000E+000	6.37710E-006	0.00000E+000	7.38890E-004	-3.27687E+002	7	...........
	421	422	3.87544E+000	1.64496E-006	0.00000E+000	6.37494E-006	0.00000E+000	7.38057E-004	-3.27687E+002	7	...........
	422	423	3.87545E+000	1.64512E-006	0.00000E+000	6.37557E-006	0.00000E+000	7.38624E-004	-3.27687E+002	7	...........
	423	424	3.87545E+000	1.64473E-006	0.00000E+000	6.37409E-006	0.00000E+000	7.34940E-004	-3.27687E+002	7	...........
	424	425	3.87546E+000	1.64494E-006	0.00000E+000	6.37488E-006	0.00000E+000	7.34840E-004	-3.27687E+002	7	...........
	425	426	3.87546E+000	1.64422E-006	0.00000E+000	6.37212E-006	0.00000E+000	7.37374E-004	-3.27687E+002	7	...........
	426	427	3.87548E+000	1.64434E-006	0.00000E+000	6.37259E-006	0.00000E+000	7.36207E-004	-3.27687E+002	7	...........
	427	428	3.87548E+000	1.64440E-006	0.00000E+000	6.37285E-006	0.00000E+000	7.36390E-004	-3.27687E+002	7	...........
	428	429	3.87549E+000	1.64507E-006	0.00000E+000	6.37546E-006	0.00000E+000	7.38257E-004	-3.27687E+002	7	...........
	429	430	3.87550E+000	1.64515E-006	0.00000E+000	6.37576E-006	0.00000E+000	7.36557E-004	-3.27687E+002	7	...........
	430	431	3.87551E+000	1.64484E-006	0.00000E+000	6.37459E-006	0.00000E+000	7.32890E-004	-3.27687E+002	7	...........
	431	432	3.87552E+000	1.64459E-006	0.00000E+000	6.37366E-006	0.00000E+000	7.32257E-004	-3.27687E+002	7	...........
	432	433	3.87554E+000	1.64499E-006	0.00000E+000	6.37523E-006	0.00000E+000	7.33890E-004	-3.27687E+002	7	...........
	433	434	3.87555E+000	1.64593E-006	0.00000E+000	6.37889E-006	0.00000E+000	7.35557E-004	-3.27687E+002	7	...........
	434	435	3.87556E+000	1.64583E-006	0.00000E+000	6.37853E-006	0.00000E+000	7.30324E-004	-3.27687E+002	7	...........
	435	436	3.87555E+000	1.64583E-006	0.00000E+000	6.37852E-006	0.00000E+000	7.30674E-004	-3.27687E+002	7	...........
	436	437	3.87557E+000	1.64438E-006	0.00000E+000	6.37291E-006	0.00000E+000	7.32374E-004	-3.27687E+002	7	...........
	437	438	3.87558E+000	1.64443E-006	0.00000E+000	6.37312E-006	0.00000E+000	7.30790E-004	-3.27687E+002	7	...........
	438	439	3.87557E+000	1.64490E-006	0.00000E+000	6.37492E-006	0.00000E+000	7.32107E-004	-3.27687E+002	7	...........
	439	440	3.87559E+000	1.64492E-006	0.00000E+000	6.37503E-006	0.00000E+000	7.34357E-004	-3.27687E+002	7	...........
	440	441	3.87559E+000	1.64472E-006	0.00000E+000	6.37428E-006	0.00000E+000	7.35107E-004	-3.27687E+002	7	...........
	441	442	3.87560E+000	1.64489E-006	0.00000E+000	6.37493E-006	0.00000E+000	7.31124E-004	-3.27687E+002	7	...........
	442	443	3.87560E+000	1.64443E-006	0.00000E+000	6.37317E-006	0.00000E+000	7.33640E-004	-3.27687E+002	7	...........
	443	444	3.87560E+000	1.64483E-006	0.00000E+000	6.37472E-006	0.00000E+000	7.32157E-004	-3.27687E+002	7	...........
	444	445	3.87562E+000	1.64417E-006	0.00000E+000	6.37218E-006	0.00000E+000	7.30974E-004	-3.27687E+002	7	...........
	445	446	3.87562E+000	1.64460E-006	0.00000E+000	6.37385E-006	0.00000E+000	7.31657E-004	-3.27687E+002	7	...........
	446	447	3.87563E+000	1.64454E-006	0.00000E+000	6.37363E-006	0.00000E+000	7.30757E-004	-3.27687E+002	7	...........
	447	448	3.87564E+000	1.64412E-006	0.00000E+000	6.37204E-006	0.00000E+000	7.32507E-004	-3.27687E+002	7	...........
	448	449	3.87565E+000	1.64390E-006	0.00000E+000	6.37119E-006	0.00000E+000	7.29690E-004	-3.27687E+002	7	...........
	449	450	3.87564E+000	1.64387E-006	0.00000E+000	6.37105E-006	0.00000E+000	7.31190E-004	-3.27687E+002	7	...........
	450	451	3.87566E+000	1.64369E-006	0.00000E+000	6.37038E-006	0.00000E+000	7.29707E-004	-3.27687E+002	7	...........
	451	452	3.87567E+000	1.64403E-006	0.00000E+000	6.37172E-006	0.00000E+000	7.28457E-004	-3.27687E+002	7	...........
	452	453	3.87568E+000	1.64441E-006	0.00000E+000	6.37321E-006	0.00000E+000	7.28424E-004	-3.27687E+002	7	...........
	453	454	3.87568E+000	1.64456E-006	0.00000E+000	6.37381E-006	0.00000E+000	7.29107E-004	-3.27687E+002	7	...........
	454	455	3.87570E+000	1.64363E-006	0.00000E+000	6.37021E-006	0.00000E+000	7.29574E-004	-3.27687E+002	7	...........
	455	456	3.87570E+000	1.64353E-006	0.00000E+000	6.36983E-006	0.00000E+000	7.30290E-004	-3.27687E+002	7	...........
	456	457	3.87570E+000	1.64363E-006	0.00000E+000	6.37021E-006	0.00000E+000	7.28740E-004	-3.27687E+002	7	...........
	457	458	3.87570E+000	1.64434E-006	0.00000E+000	6.37296E-006	0.00000E+000	7.30640E-004	-3.27687E+002	7	...........
	458	459	3.87572E+000	1.64415E-006	0.00000E+000	6.37225E-006	0.00000E+000	7.30174E-004	-3.27687E+002	7	...........
	459	460	3.87573E+000	1.64469E-006	0.00000E+000	6.37436E-006	0.00000E+000	7.33174E-004	-3.27687E+002	7	...........
	460	461	3.87572E+000	1.64497E-006	0.00000E+000	6.37546E-006	0.00000E+000	7.28557E-004	-3.27687E+002	7	...........
	461	462	3.87573E+000	1.64440E-006	0.00000E+000	6.37324E-006	0.00000E+000	7.30657E-004	-3.27687E+002	7	...........
	462	463	3.87574E+000	1.64340E-006	0.00000E+000	6.36939E-006	0.00000E+000	7.29224E-004	-3.27687E+002	7	...........
	463	464	3.87575E+000	1.64356E-006	0.00000E+000	6.37004E-006	0.00000E+000	7.27490E-004	-3.27687E+002	7	...........
	464	465	3.87575E+000	1.64407E-006	0.00000E+000	6.37202E-006	0.00000E+000	7.29557E-004	-3.27687E+002	7	...........
	465	466	3.87577E+000	1.64463E-006	0.00000E+000	6.37420E-006	0.00000E+000	7.28707E-004	-3.27687E+002	7	...........
	466	467	3.87577E+000	1.64417E-006	0.00000E+000	6.37244E-006	0.00000E+000	7.29307E-004	-3.27687E+002	7	...........
	467	468	3.87578E+000	1.64429E-006	0.00000E+000	6.37289E-006	0.00000E+000	7.29390E-004	-3.27687E+002	7	...........
	468	469	3.87578E+000	1.64361E-006	0.00000E+000	6.37026E-006	0.00000E+000	7.27657E-004	-3.27687E+002	7	...........
	469	470	3.87579E+000	1.64456E-006	0.00000E+000	6.37396E-006	0.00000E+000	7.29990E-004	-3.27687E+002	7	...........
	470	471	3.87579E+000	1.64488E-006	0.00000E+000	6.37522E-006	0.00000E+000	7.28590E-004	-3.27687E+002	7	...........
	471	472	3.87579E+000	1.64480E-006	0.00000E+000	6.37491E-006	0.00000E+000	7.26757E-004	-3.27687E+002	7	...........
	472	473	3.87579E+000	1.64433E-006	0.00000E+000	6.37307E-006	0.00000E+000	7.30257E-004	-3.27687E+002	7	...........
	473	474	3.87581E+000	1.64385E-006	0.00000E+000	6.37126E-006	0.00000E+000	7.29674E-004	-3.27687E+002	7	...........
	474	475	3.87581E+000	1.64390E-006	0.00000E+000	6.37146E-006	0.00000E+000	7.29990E-004	-3.27687E+002	7	...........
	475	476	3.87582E+000	1.64361E-006	0.00000E+000	6.37036E-006	0.00000E+000	7.28940E-004	-3.27687E+002	7	...........
	476	477	3.87583E+000	1.64400E-006	0.00000E+000	6.37186E-006	0.00000E+000	7.29057E-004	-3.27687E+002	7	...........
	477	478	3.87583E+000	1.64438E-006	0.00000E+000	6.37334E-006	0.00000E+000	7.28540E-004	-3.27687E+002	7	...........
	478	479	3.87585E+000	1.64451E-006	0.00000E+000	6.37389E-006	0.00000E+000	7.29540E-004	-3.27687E+002	7	...........
	479	480	3.87584E+000	1.64353E-006	0.00000E+000	6.37005E-006	0.00000E+000	7.28090E-004	-3.27687E+002	7	...........
	480	481	3.87585E+000	1.64303E-006	0.00000E+000	6.36816E-006	0.00000E+000	7.28924E-004	-3.27687E+002	7	...........
	481	482	3.87586E+000	1.64331E-006	0.00000E+000	6.36923E-006	0.00000E+000	7.30524E-004	-3.27687E+002	7	...........
	482	483	3.87587E+000	1.64345E-006	0.00000E+000	6.36980E-006	0.00000E+000	7.27074E-004	-3.27687E+002	7	...........
	483	484	3.87587E+000	1.64274E-006	0.00000E+000	6.36707E-006	0.00000E+000	7.27657E-004	-3.27687E+002	7	...........
	484	485	3.87588E+000	1.64281E-006	0.00000E+000	6.36732E-006	0.00000E+000	7.27674E-004	-3.27687E+002	7	...........
	485	486	3.87589E+000	1.64292E-006	0.00000E+000	6.36779E-006	0.00000E+000	7.27107E-004	-3.27687E+002	7	...........
	486	487	3.87590E+000	1.64280E-006	0.00000E+000	6.36733E-006	0.00000E+000	7.27174E-004	-3.27687E+002	7	...........
	487	488	3.87590E+000	1.64254E-006	0.00000E+000	6.36634E-006	0.00000E+000	7.24557E-004	-3.27687E+002	7	...........
	488	489	3.87590E+000	1.64296E-006	0.00000E+000	6.36794E-006	0.00000E+000	7.25324E-004	-3.27687E+002	7	...........
	489	490	3.87591E+000	1.64329E-006	0.00000E+000	6.36924E-006	0.00000E+000	7.24674E-004	-3.27687E+002	7	...........
	490	491	3.87592E+000	1.64398E-006	0.00000E+000	6.37192E-006	0.00000E+000	7.25057E-004	-3.27687E+002	7	...........
	491	492	3.87592E+000	1.64316E-006	0.00000E+000	6.36874E-006	0.00000E+000	7.27574E-004	-3.27687E+002	7	...........
	492	493	3.87593E+000	1.64281E-006	0.00000E+000	6.36743E-006	0.00000E+000	7.26690E-004	-3.27687E+002	7	...........
	493	494	3.87593E+000	1.64277E-006	0.00000E+000	6.36727E-006	0.00000E+000	7.26024E-004	-3.27687E+002	7	...........
	494	495	3.87595E+000	1.64306E-006	0.00000E+000	6.36842E-006	0.00000E+000	7.28074E-004	-3.27687E+002	7	...........
	495	496	3.87594E+000	1.64349E-006	0.00000E+000	6.37006E-006	0.00000E+000	7.30024E-004	-3.27687E+002	7	...........
	496	497	3.87595E+000	1.64285E-006	0.00000E+000	6.36760E-006	0.00000E+000	7.25990E-004	-3.27687E+002	7	...........
	497	498	3.87596E+000	1.64254E-006	0.00000E+000	6.36643E-006	0.00000E+000	7.27440E-004	-3.27687E+002	7	...........
	498	499	3.87597E+000	1.64309E-006	0.00000E+000	6.36855E-006	0.00000E+000	7.27390E-004	-3.27687E+002	7	...........
	499	500	3.87598E+000	1.64227E-006	0.00000E+000	6.36539E-006	0.00000E+000	7.26174E-004	-3.27687E+002	7	...........
	500	501	3.87599E+000	1.64292E-006	0.00000E+000	6.36796E-006	0.00000E+000	7.24924E-004	-3.27687E+002	7	...........
	501	502	3.87599E+000	1.64303E-006	0.00000E+000	6.36835E-006	0.00000E+000	7.27340E-004	-3.27687E+002	7	...........
	502	503	3.87599E+000	1.64379E-006	0.00000E+000	6.37132E-006	0.00000E+000	7.26007E-004	-3.27687E+002	7	...........
	503	504	3.87600E+000	1.64367E-006	0.00000E+000	6.37088E-006	0.00000E+000	7.28024E-004	-3.27687E+002	7	...........
	504	505	3.87601E+000	1.64396E-006	0.00000E+000	6.37201E-006	0.00000E+000	7.27807E-004	-3.27687E+002	7	...........
	505	506	3.87601E+000	1.64340E-006	0.00000E+000	6.36983E-006	0.00000E+000	7.26190E-004	-3.27687E+002	7	...........
	506	507	3.87602E+000	1.64389E-006	0.00000E+000	6.37176E-006	0.00000E+000	7.29407E-004	-3.27687E+002	7	...........
	507	508	3.87602E+000	1.64382E-006	0.00000E+000	6.37150E-006	0.00000E+000	7.29874E-004	-3.27687E+002	7	...........
	508	509	3.87603E+000	1.64371E-006	0.00000E+000	6.37108E-006	0.00000E+000	7.26074E-004	-3.27687E+002	7	...........
	509	510	3.87603E+000	1.64312E-006	0.00000E+000	6.36878E-006	0.00000E+000	7.31690E-004	-3.27687E+002	7	...........
	510	511	3.87604E+000	1.64260E-006	0.00000E+000	6.36678E-006	0.00000E+000	7.27990E-004	-3.27687E+002	7	...........
	511	512	3.87604E+000	1.64272E-006	0.00000E+000	6.36726E-006	0.00000E+000	7.25307E-004	-3.27687E+002	7	...........
	512	513	3.87605E+000	1.64342E-006	0.00000E+000	6.36998E-006	0.00000E+000	7.25357E-004	-3.27687E+002	7	...........
	513	514	3.87606E+000	1.64272E-006	0.00000E+000	6.36726E-006	0.00000E+000	7.26524E-004	-3.27687E+002	7	...........
	514	515	3.87606E+000	1.64362E-006	0.00000E+000	6.37076E-006	0.00000E+000	7.29124E-004	-3.27687E+002	7	...........
	515	516	3.87607E+000	1.64333E-006	0.00000E+000	6.36967E-006	0.00000E+000	7.28707E-004	-3.27687E+002	7	...........
	516	517	3.87607E+000	1.64329E-006	0.00000E+000	6.36952E-006	0.00000E+000	7.29740E-004	-3.27687E+002	7	...........
	517	518	3.87608E+000	1.64303E-006	0.00000E+000	6.36850E-006	0.00000E+000	7.28357E-004	-3.27687E+002	7	...........
	518	519	3.87608E+000	1.64319E-006	0.00000E+000	6.36911E-006	0.00000E+000	7.29474E-004	-3.27687E+002	7	...........
	519	520	3.87609E+000	1.64316E-006	0.00000E+000	6.36902E-006	0.00000E+000	7.27274E-004	-3.27687E+002	7	...........
	520	521	3.87610E+000	1.64334E-006	0.00000E+000	6.36974E-006	0.00000E+000	7.29107E-004	-3.27687E+002	7	...........
	521	522	3.87609E+000	1.64298E-006	0.00000E+000	6.36835E-006	0.00000E+000	7.31074E-004	-3.27687E+002	7	...........
	522	523	3.87610E+000	1.64307E-006	0.00000E+000	6.36871E-006	0.00000E+000	7.29940E-004	-3.27687E+002	7	...........
	523	524	3.87610E+000	1.64296E-006	0.00000E+000	6.36827E-006	0.00000E+000	7.27507E-004	-3.27687E+002	7	...........
	524	525	3.87611E+000	1.64325E-006	0.00000E+000	6.36943E-006	0.00000E+000	7.28690E-004	-3.27687E+002	7	...........
	525	526	3.87612E+000	1.64335E-006	0.00000E+000	6.36984E-006	0.00000E+000	7.29207E-004	-3.27687E+002	7	...........
	526	527	3.87612E+000	1.64382E-006	0.00000E+000	6.37162E-006	0.00000E+000	7.27757E-004	-3.27687E+002	7	...........
	527	528	3.87613E+000	1.64389E-006	0.00000E+000	6.37193E-006	0.00000E+000	7.28757E-004	-3.27687E+002	7	...........
	528	529	3.87613E+000	1.64371E-006	0.00000E+000	6.37123E-006	0.00000E+000	7.30257E-004	-3.27687E+002	7	...........
	529	530	3.87615E+000	1.64343E-006	0.00000E+000	6.37020E-006	0.00000E+000	7.30107E-004	-3.27687E+002	7	...........
	530	531	3.87615E+000	1.64293E-006	0.00000E+000	6.36823E-006	0.00000E+000	7.28690E-004	-3.27687E+002	7	...........
	531	532	3.87615E+000	1.64314E-006	0.00000E+000	6.36905E-006	0.00000E+000	7.28640E-004	-3.27687E+002	7	...........
	532	533	3.87616E+000	1.64347E-006	0.00000E+000	6.37034E-006	0.00000E+000	7.27840E-004	-3.27687E+002	7	...........
	533	534	3.87617E+000	1.64291E-006	0.00000E+000	6.36819E-006	0.00000E+000	7.30707E-004	-3.27687E+002	7	...........
	534	535	3.87616E+000	1.64278E-006	0.00000E+000	6.36767E-006	0.00000E+000	7.30357E-004	-3.27687E+002	7	...........
	535	536	3.87617E+000	1.64225E-006	0.00000E+000	6.36565E-006	0.00000E+000	7.31607E-004	-3.27687E+002	7	...........
	536	537	3.87619E+000	1.64231E-006	0.00000E+000	6.36589E-006	0.00000E+000	7.29024E-004	-3.27687E+002	7	...........
	537	538	3.87619E+000	1.64238E-006	0.00000E+000	6.36619E-006	0.00000E+000	7.30574E-004	-3.27687E+002	7	...........
	538	539	3.87619E+000	1.64264E-006	0.00000E+000	6.36718E-006	0.00000E+000	7.30374E-004	-3.27687E+002	7	...........
	539	540	3.87620E+000	1.64316E-006	0.00000E+000	6.36920E-006	0.00000E+000	7.30190E-004	-3.27687E+002	7	...........
	540	541	3.87620E+000	1.64209E-006	0.00000E+000	6.36507E-006	0.00000E+000	7.29374E-004	-3.27687E+002	7	...........
	541	542	3.87622E+000	1.64209E-006	0.00000E+000	6.36510E-006	0.00000E+000	7.32907E-004	-3.27687E+002	7	...........
	542	543	3.87621E+000	1.64275E-006	0.00000E+000	6.36766E-006	0.00000E+000	7.29607E-004	-3.27687E+002	7	...........
	543	544	3.87622E+000	1.64285E-006	0.00000E+000	6.36804E-006	0.00000E+000	7.31957E-004	-3.27687E+002	7	...........
	544	545	3.87623E+000	1.64317E-006	0.00000E+000	6.36929E-006	0.00000E+000	7.32174E-004	-3.27687E+002	7	...........
	545	546	3.87624E+000	1.64276E-006	0.00000E+000	6.36773E-006	0.00000E+000	7.29057E-004	-3.27687E+002	7	...........
	546	547	3.87623E+000	1.64256E-006	0.00000E+000	6.36694E-006	0.00000E+000	7.30607E-004	-3.27687E+002	7	...........
	547	548	3.87624E+000	1.64243E-006	0.00000E+000	6.36646E-006	0.00000E+000	7.30757E-004	-3.27687E+002	7	...........
	548	549	3.87624E+000	1.64213E-006	0.00000E+000	6.36528E-006	0.00000E+000	7.33640E-004	-3.27687E+002	7	...........
	549	550	3.87625E+000	1.64184E-006	0.00000E+000	6.36419E-006	0.00000E+000	7.30274E-004	-3.27687E+002	7	...........
	550	551	3.87625E+000	1.64214E-006	0.00000E+000	6.36536E-006	0.00000E+000	7.29357E-004	-3.27687E+002	7	...........
	551	552	3.87626E+000	1.64292E-006	0.00000E+000	6.36840E-006	0.00000E+000	7.33090E-004	-3.27687E+002	7	...........
	552	553	3.87626E+000	1.64224E-006	0.00000E+000	6.36575E-006	0.00000E+000	7.33007E-004	-3.27687E+002	7	...........
	553	554	3.87627E+000	1.64218E-006	0.00000E+000	6.36552E-006	0.00000E+000	7.35507E-004	-3.27687E+002	7	...........
	554	555	3.87627E+000	1.64192E-006	0.00000E+000	6.36452E-006	0.00000E+000	7.31524E-004	-3.27687E+002	7	...........
	555	556	3.87627E+000	1.64252E-006	0.00000E+000	6.36686E-006	0.00000E+000	7.35157E-004	-3.27687E+002	7	...........
	556	557	3.87628E+000	1.64281E-006	0.00000E+000	6.36800E-006	0.00000E+000	7.35040E-004	-3.27687E+002	7	...........
	557	558	3.87627E+000	1.64286E-006	0.00000E+000	6.36818E-006	0.00000E+000	7.34257E-004	-3.27687E+002	7	...........
	558	559	3.87628E+000	1.64207E-006	0.00000E+000	6.36512E-006	0.00000E+000	7.32224E-004	-3.27687E+002	7	...........
	559	560	3.87629E+000	1.64188E-006	0.00000E+000	6.36440E-006	0.00000E+000	7.30840E-004	-3.27687E+002	7	...........
	560	561	3.87630E+000	1.64156E-006	0.00000E+000	6.36320E-006	0.00000E+000	7.30490E-004	-3.27687E+002	7	...........
	561	562	3.87631E+000	1.64158E-006	0.00000E+000	6.36328E-006	0.00000E+000	7.31157E-004	-3.27687E+002	7	...........
	562	563	3.87631E+000	1.64239E-006	0.00000E+000	6.36639E-006	0.00000E+000	7.30774E-004	-3.27687E+002	7	...........
	563	564	3.87632E+000	1.64236E-006	0.00000E+000	6.36630E-006	0.00000E+000	7.29207E-004	-3.27687E+002	7	...........
	564	565	3.87633E+000	1.64247E-006	0.00000E+000	6.36675E-006	0.00000E+000	7.33424E-004	-3.27687E+002	7	...........
	565	566	3.87632E+000	1.64190E-006	0.00000E+000	6.36452E-006	0.00000E+000	7.34257E-004	-3.27687E+002	7	...........
	566	567	3.87633E+000	1.64223E-006	0.00000E+000	6.36582E-006	0.00000E+000	7.34174E-004	-3.27687E+002	7	...........
	567	568	3.87633E+000	1.64156E-006	0.00000E+000	6.36321E-006	0.00000E+000	7.33840E-004	-3.27687E+002	7	...........
	568	569	3.87634E+000	1.64216E-006	0.00000E+000	6.36557E-006	0.00000E+000	7.35957E-004	-3.27687E+002	7	...........
	569	570	3.87634E+000	1.64191E-006	0.00000E+000	6.36460E-006	0.00000E+000	7.32957E-004	-3.27687E+002	7	...........
	570	571	3.87635E+000	1.64184E-006	0.00000E+000	6.36434E-006	0.00000E+000	7.34374E-004	-3.27687E+002	7	...........
	571	572	3.87636E+000	1.64157E-006	0.00000E+000	6.36331E-006	0.00000E+000	7.33124E-004	-3.27687E+002	7	...........
	572	573	3.87636E+000	1.64152E-006	0.00000E+000	6.36311E-006	0.00000E+000	7.31390E-004	-3.27687E+002	7	...........
	573	574	3.87636E+000	1.64114E-006	0.00000E+000	6.36167E-006	0.00000E+000	7.32107E-004	-3.27687E+002	7	...........
	574	575	3.87637E+000	1.64088E-006	0.00000E+000	6.36067E-006	0.00000E+000	7.33440E-004	-3.27687E+002	7	...........
	575	576	3.87637E+000	1.64156E-006	0.00000E+000	6.36330E-006	0.00000E+000	7.31090E-004	-3.27687E+002	7	...........
	576	577	3.87637E+000	1.64211E-006	0.00000E+000	6.36544E-006	0.00000E+000	7.34107E-004	-3.27687E+002	7	...........
	577	578	3.87639E+000	1.64120E-006	0.00000E+000	6.36193E-006	0.00000E+000	7.35274E-004	-3.27687E+002	7	...........
	578	579	3.87638E+000	1.64122E-006	0.00000E+000	6.36201E-006	0.00000E+000	7.32040E-004	-3.27687E+002	7	...........
	579	580	3.87639E+000	1.64128E-006	0.00000E+000	6.36224E-006	0.00000E+000	7.33907E-004	-3.27687E+002	7	...........
	580	581	3.87639E+000	1.64176E-006	0.00000E+000	6.36410E-006	0.00000E+000	7.34624E-004	-3.27687E+002	7	...........
	581	582	3.87639E+000	1.64151E-006	0.00000E+000	6.36314E-006	0.00000E+000	7.33890E-004	-3.27687E+002	7	...........
	582	583	3.87640E+000	1.64150E-006	0.00000E+000	6.36312E-006	0.00000E+000	7.31640E-004	-3.27687E+002	7	...........
	583	584	3.87641E+000	1.64156E-006	0.00000E+000	6.36335E-006	0.00000E+000	7.31674E-004	-3.27687E+002	7	...........
	584	585	3.87642E+000	1.64134E-006	0.00000E+000	6.36251E-006	0.00000E+000	7.37440E-004	-3.27687E+002	7	...........
	585	586	3.87642E+000	1.64124E-006	0.00000E+000	6.36212E-006	0.00000E+000	7.36090E-004	-3.27687E+002	7	...........
	586	587	3.87643E+000	1.64135E-006	0.00000E+000	6.36257E-006	0.00000E+000	7.34890E-004	-3.27687E+002	7	...........
	587	588	3.87643E+000	1.64150E-006	0.00000E+000	6.36318E-006	0.00000E+000	7.35674E-004	-3.27687E+002	7	...........
	588	589	3.87644E+000	1.64279E-006	0.00000E+000	6.36817E-006	0.00000E+000	7.34357E-004	-3.27687E+002	7	...........
	589	590	3.87644E+000	1.64258E-006	0.00000E+000	6.36736E-006	0.00000E+000	7.33957E-004	-3.27687E+002	7	...........
	590	591	3.87645E+000	1.64226E-006	0.00000E+000	6.36612E-006	0.00000E+000	7.35674E-004	-3.27687E+002	7	...........
	591	592	3.87645E+000	1.64192E-006	0.00000E+000	6.36483E-006	0.00000E+000	7.34574E-004	-3.27687E+002	7	...........
	592	593	3.87645E+000	1.64194E-006	0.00000E+000	6.36490E-006	0.00000E+000	7.34290E-004	-3.27687E+002	7	...........
	593	594	3.87646E+000	1.64262E-006	0.00000E+000	6.36755E-006	0.00000E+000	7.33407E-004	-3.27687E+002	7	...........
	594	595	3.87646E+000	1.64211E-006	0.00000E+000	6.36557E-006	0.00000E+000	7.32857E-004	-3.27687E+002	7	...........
	595	596	3.87647E+000	1.64138E-006	0.00000E+000	6.36276E-006	0.00000E+000	7.33540E-004	-3.27687E+002	7	...........
	596	597	3.87646E+000	1.64190E-006	0.00000E+000	6.36475E-006	0.00000E+000	7.35824E-004	-3.27687E+002	7	...........
	597	598	3.87647E+000	1.64133E-006	0.00000E+000	6.36256E-006	0.00000E+000	7.33190E-004	-3.27687E+002	7	...........
	598	599	3.87649E+000	1.64092E-006	0.00000E+000	6.36102E-006	0.00000E+000	7.34107E-004	-3.27687E+002	7	...........
	599	600	3.87649E+000	1.64101E-006	0.00000E+000	6.36137E-006	0.00000E+000	7.33557E-004	-3.27687E+002	7	...........
