EXPLAIN
TAG	PWR800_READVOLTAGE
TITLE	LABEL	PWR Read Voltage	Test Identifier
DATE	LABEL	25.5.2024	Date
TIME	LABEL	4:11:55	Time
NOTES	NOTES	1	Notes...
	
PSTAT	PSTAT	REF600-12055	Potentiostat
CAPACITY	QUANT	1.00000E+000	Capacity (A-hr)
CELLTYPE	SELECTOR	1	Cell Type
WORKINGCONNECTION	SELECTOR	0	Working Connection
MAXTIME	VARIABLEANDUNITS	6.00000E+002	s	6.00000E+002	second(s)	Max Time
SAMPLETIME	QUANT	1.00000E+000	Sample Period (s)
STOPAT1	MULTIPARAM	0	0.00000E+000	Stop At 1	None	N/A
STOPAT2	MULTIPARAM	0	0.00000E+000	Stop At 2	None	N/A
AESBHCSELECTOR	TOGGLE	F	Save Both Half Cells
EOC	QUANT	3.876486	Open Circuit (V)
SEQUENCER	TOGGLE	TRUE	Run as Sequence
PSTATMODEL	IQUANT	4	Pstat Model
PSTATSECTION	LABEL	REF600-12055	Pstat Section
PSTATSERIALNO	LABEL	12055	Pstat Serial Number
CTRLMODE	IQUANT	0	Control Mode
ELECTROMETER	IQUANT	0	RE=0 or CS=1
IESTAB	IQUANT	0	I/E Stability
CASPEED	IQUANT	4	Control Amp Speed
CONVENTION	IQUANT	1	Current Convention
ICHRANGE	IQUANT	2	Ich Range
ICHRANGEMODE	TOGGLE	T	Ich Auto Range
ICHOFFSETENABLE	TOGGLE	F	Ich Offset Enable
ICHOFFSET	QUANT	0	Ich Offset (V)
ICHFILTER	IQUANT	1	Ich Filter
VCHRANGE	IQUANT	3	Vch Range
VCHRANGEMODE	TOGGLE	T	Vch Auto Range
VCHOFFSETENABLE	TOGGLE	F	Vch Offset Enable
VCHOFFSET	QUANT	0	Vch Offset (V)
VCHFILTER	IQUANT	1	Vch Filter
ACHRANGE	IQUANT	2	Ach Range
ACHOFFSETENABLE	TOGGLE	F	Ach Offset Enable
ACHOFFSET	QUANT	0	Ach Offset (V)
ACHFILTER	IQUANT	1	Ach Filter
IERANGELOWERLIMIT	IQUANT	7	I/E Range Lower Limit
IERANGEMODE	TOGGLE	F	I/E AutoRange
IERANGE	IQUANT	11	I/E Range
POSFEEDENABLE	TOGGLE	F	Positive Feedback IR Comp
POSFEEDRESISTANCE	QUANT	0	Positive Feedback Resistance (ohm)
ACHSELECT	IQUANT	4	Ach Select
SENSECABLEID	IQUANT	14	Sense Cable ID
PWRCABLEID	IQUANT	14	Power Cable ID
DCCALDATE	LABEL	2/12/2024	DC Calibration Date
ACCALDATE	LABEL	2/12/2024	AC Calibration Date
THERMOSELECT	IQUANT	1	Thermo Select
FRAMEWORKVERSION	LABEL	7.10.3	Framework Version
INSTRUMENTVERSION	LABEL	4.91	Instrument Version
COMMVERSION	LABEL	2.24	Communications Version
CPUPLDVERSION	LABEL	0.00	CPU PLD Version
CTRLPLDVERSION	LABEL	0.00	CTRL PLD Version
PSTATPLDVERSION	LABEL	0.00	PSTAT PLD Version
CURVE	TABLE	600
	Pt	T	Vf	Im	Vu	Pwr	Sig	Ach	Temp	IERange	Over
	#	s	V	A	V	W	V	V	deg C	#	bits
	0	1	3.74227E+000	-1.89852E-006	0.00000E+000	-7.10478E-006	0.00000E+000	9.25407E-004	-3.27687E+002	7	...........
	1	2	3.74255E+000	-1.89817E-006	0.00000E+000	-7.10399E-006	0.00000E+000	9.25790E-004	-3.27687E+002	7	...........
	2	3	3.74275E+000	-1.89775E-006	0.00000E+000	-7.10280E-006	0.00000E+000	9.28307E-004	-3.27687E+002	7	...........
	3	4	3.74289E+000	-1.89747E-006	0.00000E+000	-7.10202E-006	0.00000E+000	9.30390E-004	-3.27687E+002	7	...........
	4	5	3.74299E+000	-1.89732E-006	0.00000E+000	-7.10164E-006	0.00000E+000	9.29824E-004	-3.27687E+002	7	...........
	5	6	3.74307E+000	-1.89679E-006	0.00000E+000	-7.09984E-006	0.00000E+000	9.31290E-004	-3.27687E+002	7	...........
	6	7	3.74313E+000	-1.89627E-006	0.00000E+000	-7.09800E-006	0.00000E+000	9.34607E-004	-3.27687E+002	7	...........
	7	8	3.74320E+000	-1.89600E-006	0.00000E+000	-7.09710E-006	0.00000E+000	9.37857E-004	-3.27687E+002	7	...........
	8	9	3.74325E+000	-1.89537E-006	0.00000E+000	-7.09486E-006	0.00000E+000	9.37990E-004	-3.27687E+002	7	...........
	9	10	3.74332E+000	-1.89527E-006	0.00000E+000	-7.09459E-006	0.00000E+000	9.37674E-004	-3.27687E+002	7	...........
	10	11	3.74340E+000	-1.89590E-006	0.00000E+000	-7.09712E-006	0.00000E+000	9.38824E-004	-3.27687E+002	7	...........
	11	12	3.74348E+000	-1.89557E-006	0.00000E+000	-7.09605E-006	0.00000E+000	9.38874E-004	-3.27687E+002	7	...........
	12	13	3.74356E+000	-1.89469E-006	0.00000E+000	-7.09288E-006	0.00000E+000	9.38157E-004	-3.27687E+002	7	...........
	13	14	3.74369E+000	-1.89411E-006	0.00000E+000	-7.09094E-006	0.00000E+000	9.36074E-004	-3.27687E+002	7	...........
	14	15	3.74379E+000	-1.89411E-006	0.00000E+000	-7.09116E-006	0.00000E+000	9.39157E-004	-3.27687E+002	7	...........
	15	16	3.74387E+000	-1.89379E-006	0.00000E+000	-7.09012E-006	0.00000E+000	9.40024E-004	-3.27687E+002	7	...........
	16	17	3.74399E+000	-1.89428E-006	0.00000E+000	-7.09214E-006	0.00000E+000	9.36674E-004	-3.27687E+002	7	...........
	17	18	3.74409E+000	-1.89362E-006	0.00000E+000	-7.08989E-006	0.00000E+000	9.35074E-004	-3.27687E+002	7	...........
	18	19	3.74419E+000	-1.89328E-006	0.00000E+000	-7.08878E-006	0.00000E+000	9.34040E-004	-3.27687E+002	7	...........
	19	20	3.74429E+000	-1.89284E-006	0.00000E+000	-7.08735E-006	0.00000E+000	9.34674E-004	-3.27687E+002	7	...........
	20	21	3.74438E+000	-1.89191E-006	0.00000E+000	-7.08402E-006	0.00000E+000	7.68574E-004	-3.27687E+002	7	...........
	21	22	3.74446E+000	-1.89236E-006	0.00000E+000	-7.08586E-006	0.00000E+000	6.90190E-004	-3.27687E+002	7	...........
	22	23	3.74454E+000	-1.89264E-006	0.00000E+000	-7.08709E-006	0.00000E+000	6.89840E-004	-3.27687E+002	7	...........
	23	24	3.74462E+000	-1.89199E-006	0.00000E+000	-7.08479E-006	0.00000E+000	6.90990E-004	-3.27687E+002	7	...........
	24	25	3.74467E+000	-1.89123E-006	0.00000E+000	-7.08203E-006	0.00000E+000	6.88007E-004	-3.27687E+002	7	...........
	25	26	3.74474E+000	-1.89151E-006	0.00000E+000	-7.08322E-006	0.00000E+000	6.90774E-004	-3.27687E+002	7	...........
	26	27	3.74480E+000	-1.89119E-006	0.00000E+000	-7.08213E-006	0.00000E+000	6.92257E-004	-3.27687E+002	7	...........
	27	28	3.74486E+000	-1.89105E-006	0.00000E+000	-7.08172E-006	0.00000E+000	6.93824E-004	-3.27687E+002	7	...........
	28	29	3.74492E+000	-1.89122E-006	0.00000E+000	-7.08246E-006	0.00000E+000	6.93024E-004	-3.27687E+002	7	...........
	29	30	3.74497E+000	-1.89100E-006	0.00000E+000	-7.08173E-006	0.00000E+000	6.93590E-004	-3.27687E+002	7	...........
	30	31	3.74502E+000	-1.89018E-006	0.00000E+000	-7.07876E-006	0.00000E+000	6.96374E-004	-3.27687E+002	7	...........
	31	32	3.74506E+000	-1.89059E-006	0.00000E+000	-7.08038E-006	0.00000E+000	6.95907E-004	-3.27687E+002	7	...........
	32	33	3.74510E+000	-1.88899E-006	0.00000E+000	-7.07446E-006	0.00000E+000	6.96374E-004	-3.27687E+002	7	...........
	33	34	3.74515E+000	-1.88947E-006	0.00000E+000	-7.07635E-006	0.00000E+000	6.97840E-004	-3.27687E+002	7	...........
	34	35	3.74520E+000	-1.88963E-006	0.00000E+000	-7.07705E-006	0.00000E+000	6.94374E-004	-3.27687E+002	7	...........
	35	36	3.74525E+000	-1.88924E-006	0.00000E+000	-7.07567E-006	0.00000E+000	6.98040E-004	-3.27687E+002	7	...........
	36	37	3.74529E+000	-1.88897E-006	0.00000E+000	-7.07474E-006	0.00000E+000	6.98174E-004	-3.27687E+002	7	...........
	37	38	3.74534E+000	-1.88862E-006	0.00000E+000	-7.07352E-006	0.00000E+000	6.97157E-004	-3.27687E+002	7	...........
	38	39	3.74539E+000	-1.88834E-006	0.00000E+000	-7.07256E-006	0.00000E+000	6.98574E-004	-3.27687E+002	7	...........
	39	40	3.74543E+000	-1.88859E-006	0.00000E+000	-7.07359E-006	0.00000E+000	6.97157E-004	-3.27687E+002	7	...........
	40	41	3.74548E+000	-1.88837E-006	0.00000E+000	-7.07285E-006	0.00000E+000	6.98057E-004	-3.27687E+002	7	...........
	41	42	3.74552E+000	-1.88789E-006	0.00000E+000	-7.07115E-006	0.00000E+000	6.98474E-004	-3.27687E+002	7	...........
	42	43	3.74557E+000	-1.88780E-006	0.00000E+000	-7.07089E-006	0.00000E+000	6.96257E-004	-3.27687E+002	7	...........
	43	44	3.74563E+000	-1.88794E-006	0.00000E+000	-7.07153E-006	0.00000E+000	6.97040E-004	-3.27687E+002	7	...........
	44	45	3.74567E+000	-1.88673E-006	0.00000E+000	-7.06705E-006	0.00000E+000	6.97974E-004	-3.27687E+002	7	...........
	45	46	3.74571E+000	-1.88645E-006	0.00000E+000	-7.06610E-006	0.00000E+000	6.93540E-004	-3.27687E+002	7	...........
	46	47	3.74576E+000	-1.88742E-006	0.00000E+000	-7.06982E-006	0.00000E+000	6.94557E-004	-3.27687E+002	7	...........
	47	48	3.74580E+000	-1.88664E-006	0.00000E+000	-7.06699E-006	0.00000E+000	6.93824E-004	-3.27687E+002	7	...........
	48	49	3.74586E+000	-1.88617E-006	0.00000E+000	-7.06534E-006	0.00000E+000	6.96524E-004	-3.27687E+002	7	...........
	49	50	3.74589E+000	-1.88605E-006	0.00000E+000	-7.06495E-006	0.00000E+000	6.96240E-004	-3.27687E+002	7	...........
	50	51	3.74594E+000	-1.88555E-006	0.00000E+000	-7.06317E-006	0.00000E+000	6.92507E-004	-3.27687E+002	7	...........
	51	52	3.74598E+000	-1.88606E-006	0.00000E+000	-7.06516E-006	0.00000E+000	6.93457E-004	-3.27687E+002	7	...........
	52	53	3.74602E+000	-1.88626E-006	0.00000E+000	-7.06597E-006	0.00000E+000	6.94274E-004	-3.27687E+002	7	...........
	53	54	3.74607E+000	-1.88614E-006	0.00000E+000	-7.06560E-006	0.00000E+000	6.94390E-004	-3.27687E+002	7	...........
	54	55	3.74611E+000	-1.88570E-006	0.00000E+000	-7.06404E-006	0.00000E+000	6.90690E-004	-3.27687E+002	7	...........
	55	56	3.74615E+000	-1.88610E-006	0.00000E+000	-7.06563E-006	0.00000E+000	6.95057E-004	-3.27687E+002	7	...........
	56	57	3.74619E+000	-1.88565E-006	0.00000E+000	-7.06400E-006	0.00000E+000	6.93674E-004	-3.27687E+002	7	...........
	57	58	3.74623E+000	-1.88438E-006	0.00000E+000	-7.05931E-006	0.00000E+000	6.94840E-004	-3.27687E+002	7	...........
	58	59	3.74627E+000	-1.88488E-006	0.00000E+000	-7.06126E-006	0.00000E+000	6.95974E-004	-3.27687E+002	7	...........
	59	60	3.74629E+000	-1.88541E-006	0.00000E+000	-7.06331E-006	0.00000E+000	6.93457E-004	-3.27687E+002	7	...........
	60	61	3.74633E+000	-1.88492E-006	0.00000E+000	-7.06154E-006	0.00000E+000	6.94374E-004	-3.27687E+002	7	...........
	61	62	3.74637E+000	-1.88449E-006	0.00000E+000	-7.06001E-006	0.00000E+000	6.95690E-004	-3.27687E+002	7	...........
	62	63	3.74640E+000	-1.88478E-006	0.00000E+000	-7.06114E-006	0.00000E+000	6.96340E-004	-3.27687E+002	7	...........
	63	64	3.74643E+000	-1.88460E-006	0.00000E+000	-7.06050E-006	0.00000E+000	6.94274E-004	-3.27687E+002	7	...........
	64	65	3.74646E+000	-1.88497E-006	0.00000E+000	-7.06197E-006	0.00000E+000	6.97107E-004	-3.27687E+002	7	...........
	65	66	3.74650E+000	-1.88472E-006	0.00000E+000	-7.06111E-006	0.00000E+000	6.97457E-004	-3.27687E+002	7	...........
	66	67	3.74651E+000	-1.88466E-006	0.00000E+000	-7.06091E-006	0.00000E+000	6.97624E-004	-3.27687E+002	7	...........
	67	68	3.74654E+000	-1.88456E-006	0.00000E+000	-7.06059E-006	0.00000E+000	6.97190E-004	-3.27687E+002	7	...........
	68	69	3.74658E+000	-1.88442E-006	0.00000E+000	-7.06011E-006	0.00000E+000	6.98224E-004	-3.27687E+002	7	...........
	69	70	3.74660E+000	-1.88371E-006	0.00000E+000	-7.05749E-006	0.00000E+000	6.99374E-004	-3.27687E+002	7	...........
	70	71	3.74663E+000	-1.88379E-006	0.00000E+000	-7.05785E-006	0.00000E+000	6.98674E-004	-3.27687E+002	7	...........
	71	72	3.74665E+000	-1.88414E-006	0.00000E+000	-7.05920E-006	0.00000E+000	6.97140E-004	-3.27687E+002	7	...........
	72	73	3.74668E+000	-1.88419E-006	0.00000E+000	-7.05946E-006	0.00000E+000	6.97507E-004	-3.27687E+002	7	...........
	73	74	3.74670E+000	-1.88347E-006	0.00000E+000	-7.05679E-006	0.00000E+000	6.96124E-004	-3.27687E+002	7	...........
	74	75	3.74672E+000	-1.88340E-006	0.00000E+000	-7.05658E-006	0.00000E+000	6.97840E-004	-3.27687E+002	7	...........
	75	76	3.74674E+000	-1.88373E-006	0.00000E+000	-7.05784E-006	0.00000E+000	6.98507E-004	-3.27687E+002	7	...........
	76	77	3.74676E+000	-1.88302E-006	0.00000E+000	-7.05521E-006	0.00000E+000	6.99257E-004	-3.27687E+002	7	...........
	77	78	3.74679E+000	-1.88356E-006	0.00000E+000	-7.05728E-006	0.00000E+000	6.97257E-004	-3.27687E+002	7	...........
	78	79	3.74681E+000	-1.88306E-006	0.00000E+000	-7.05545E-006	0.00000E+000	6.97807E-004	-3.27687E+002	7	...........
	79	80	3.74683E+000	-1.88303E-006	0.00000E+000	-7.05542E-006	0.00000E+000	6.98324E-004	-3.27687E+002	7	...........
	80	81	3.74686E+000	-1.88287E-006	0.00000E+000	-7.05484E-006	0.00000E+000	6.97807E-004	-3.27687E+002	7	...........
	81	82	3.74688E+000	-1.88262E-006	0.00000E+000	-7.05393E-006	0.00000E+000	6.96590E-004	-3.27687E+002	7	...........
	82	83	3.74690E+000	-1.88190E-006	0.00000E+000	-7.05130E-006	0.00000E+000	7.00890E-004	-3.27687E+002	7	...........
	83	84	3.74693E+000	-1.88286E-006	0.00000E+000	-7.05495E-006	0.00000E+000	6.97707E-004	-3.27687E+002	7	...........
	84	85	3.74697E+000	-1.88291E-006	0.00000E+000	-7.05521E-006	0.00000E+000	6.95957E-004	-3.27687E+002	7	...........
	85	86	3.74698E+000	-1.88235E-006	0.00000E+000	-7.05313E-006	0.00000E+000	6.95157E-004	-3.27687E+002	7	...........
	86	87	3.74702E+000	-1.88211E-006	0.00000E+000	-7.05232E-006	0.00000E+000	6.95757E-004	-3.27687E+002	7	...........
	87	88	3.74704E+000	-1.88157E-006	0.00000E+000	-7.05032E-006	0.00000E+000	6.97040E-004	-3.27687E+002	7	...........
	88	89	3.74707E+000	-1.88151E-006	0.00000E+000	-7.05016E-006	0.00000E+000	6.94840E-004	-3.27687E+002	7	...........
	89	90	3.74710E+000	-1.88165E-006	0.00000E+000	-7.05074E-006	0.00000E+000	6.96924E-004	-3.27687E+002	7	...........
	90	91	3.74713E+000	-1.88164E-006	0.00000E+000	-7.05073E-006	0.00000E+000	6.93340E-004	-3.27687E+002	7	...........
	91	92	3.74716E+000	-1.88146E-006	0.00000E+000	-7.05012E-006	0.00000E+000	6.93657E-004	-3.27687E+002	7	...........
	92	93	3.74719E+000	-1.88128E-006	0.00000E+000	-7.04949E-006	0.00000E+000	6.93307E-004	-3.27687E+002	7	...........
	93	94	3.74721E+000	-1.88066E-006	0.00000E+000	-7.04721E-006	0.00000E+000	6.91824E-004	-3.27687E+002	7	...........
	94	95	3.74724E+000	-1.87960E-006	0.00000E+000	-7.04333E-006	0.00000E+000	6.94690E-004	-3.27687E+002	7	...........
	95	96	3.74726E+000	-1.88052E-006	0.00000E+000	-7.04681E-006	0.00000E+000	6.88624E-004	-3.27687E+002	7	...........
	96	97	3.74730E+000	-1.88071E-006	0.00000E+000	-7.04758E-006	0.00000E+000	6.90740E-004	-3.27687E+002	7	...........
	97	98	3.74733E+000	-1.88005E-006	0.00000E+000	-7.04518E-006	0.00000E+000	6.90940E-004	-3.27687E+002	7	...........
	98	99	3.74736E+000	-1.88053E-006	0.00000E+000	-7.04703E-006	0.00000E+000	6.88924E-004	-3.27687E+002	7	...........
	99	100	3.74737E+000	-1.88052E-006	0.00000E+000	-7.04703E-006	0.00000E+000	6.88324E-004	-3.27687E+002	7	...........
	100	101	3.74741E+000	-1.88038E-006	0.00000E+000	-7.04654E-006	0.00000E+000	6.89874E-004	-3.27687E+002	7	...........
	101	102	3.74742E+000	-1.88044E-006	0.00000E+000	-7.04682E-006	0.00000E+000	6.88124E-004	-3.27687E+002	7	...........
	102	103	3.74746E+000	-1.88056E-006	0.00000E+000	-7.04731E-006	0.00000E+000	6.89390E-004	-3.27687E+002	7	...........
	103	104	3.74749E+000	-1.88037E-006	0.00000E+000	-7.04666E-006	0.00000E+000	6.87157E-004	-3.27687E+002	7	...........
	104	105	3.74752E+000	-1.88019E-006	0.00000E+000	-7.04606E-006	0.00000E+000	6.90307E-004	-3.27687E+002	7	...........
	105	106	3.74754E+000	-1.88063E-006	0.00000E+000	-7.04773E-006	0.00000E+000	6.88507E-004	-3.27687E+002	7	...........
	106	107	3.74756E+000	-1.87963E-006	0.00000E+000	-7.04401E-006	0.00000E+000	6.88974E-004	-3.27687E+002	7	...........
	107	108	3.74758E+000	-1.87958E-006	0.00000E+000	-7.04388E-006	0.00000E+000	6.89907E-004	-3.27687E+002	7	...........
	108	109	3.74761E+000	-1.87949E-006	0.00000E+000	-7.04359E-006	0.00000E+000	6.88207E-004	-3.27687E+002	7	...........
	109	110	3.74763E+000	-1.87944E-006	0.00000E+000	-7.04345E-006	0.00000E+000	6.88807E-004	-3.27687E+002	7	...........
	110	111	3.74766E+000	-1.87928E-006	0.00000E+000	-7.04289E-006	0.00000E+000	6.88090E-004	-3.27687E+002	7	...........
	111	112	3.74768E+000	-1.87902E-006	0.00000E+000	-7.04199E-006	0.00000E+000	6.88890E-004	-3.27687E+002	7	...........
	112	113	3.74769E+000	-1.87927E-006	0.00000E+000	-7.04295E-006	0.00000E+000	6.87507E-004	-3.27687E+002	7	...........
	113	114	3.74772E+000	-1.87993E-006	0.00000E+000	-7.04543E-006	0.00000E+000	6.88557E-004	-3.27687E+002	7	...........
	114	115	3.74774E+000	-1.87972E-006	0.00000E+000	-7.04469E-006	0.00000E+000	6.87340E-004	-3.27687E+002	7	...........
	115	116	3.74777E+000	-1.87926E-006	0.00000E+000	-7.04303E-006	0.00000E+000	6.87990E-004	-3.27687E+002	7	...........
	116	117	3.74779E+000	-1.87928E-006	0.00000E+000	-7.04315E-006	0.00000E+000	6.88874E-004	-3.27687E+002	7	...........
	117	118	3.74781E+000	-1.87926E-006	0.00000E+000	-7.04313E-006	0.00000E+000	6.87757E-004	-3.27687E+002	7	...........
	118	119	3.74783E+000	-1.87883E-006	0.00000E+000	-7.04153E-006	0.00000E+000	6.85090E-004	-3.27687E+002	7	...........
	119	120	3.74785E+000	-1.87894E-006	0.00000E+000	-7.04201E-006	0.00000E+000	6.89657E-004	-3.27687E+002	7	...........
	120	121	3.74788E+000	-1.87946E-006	0.00000E+000	-7.04400E-006	0.00000E+000	6.89307E-004	-3.27687E+002	7	...........
	121	122	3.74789E+000	-1.87850E-006	0.00000E+000	-7.04041E-006	0.00000E+000	6.87790E-004	-3.27687E+002	7	...........
	122	123	3.74792E+000	-1.87839E-006	0.00000E+000	-7.04005E-006	0.00000E+000	6.89807E-004	-3.27687E+002	7	...........
	123	124	3.74793E+000	-1.87793E-006	0.00000E+000	-7.03836E-006	0.00000E+000	6.89307E-004	-3.27687E+002	7	...........
	124	125	3.74794E+000	-1.87820E-006	0.00000E+000	-7.03937E-006	0.00000E+000	6.89507E-004	-3.27687E+002	7	...........
	125	126	3.74797E+000	-1.87779E-006	0.00000E+000	-7.03788E-006	0.00000E+000	6.89124E-004	-3.27687E+002	7	...........
	126	127	3.74798E+000	-1.87845E-006	0.00000E+000	-7.04039E-006	0.00000E+000	6.89757E-004	-3.27687E+002	7	...........
	127	128	3.74801E+000	-1.87828E-006	0.00000E+000	-7.03980E-006	0.00000E+000	6.91674E-004	-3.27687E+002	7	...........
	128	129	3.74802E+000	-1.87811E-006	0.00000E+000	-7.03921E-006	0.00000E+000	6.90957E-004	-3.27687E+002	7	...........
	129	130	3.74805E+000	-1.87816E-006	0.00000E+000	-7.03945E-006	0.00000E+000	6.93074E-004	-3.27687E+002	7	...........
	130	131	3.74806E+000	-1.87798E-006	0.00000E+000	-7.03877E-006	0.00000E+000	6.92390E-004	-3.27687E+002	7	...........
	131	132	3.74808E+000	-1.87739E-006	0.00000E+000	-7.03660E-006	0.00000E+000	6.90974E-004	-3.27687E+002	7	...........
	132	133	3.74810E+000	-1.87751E-006	0.00000E+000	-7.03708E-006	0.00000E+000	6.92257E-004	-3.27687E+002	7	...........
	133	134	3.74812E+000	-1.87756E-006	0.00000E+000	-7.03730E-006	0.00000E+000	6.92557E-004	-3.27687E+002	7	...........
	134	135	3.74813E+000	-1.87750E-006	0.00000E+000	-7.03711E-006	0.00000E+000	6.92457E-004	-3.27687E+002	7	...........
	135	136	3.74815E+000	-1.87738E-006	0.00000E+000	-7.03672E-006	0.00000E+000	6.91657E-004	-3.27687E+002	7	...........
	136	137	3.74815E+000	-1.87745E-006	0.00000E+000	-7.03697E-006	0.00000E+000	6.92174E-004	-3.27687E+002	7	...........
	137	138	3.74817E+000	-1.87777E-006	0.00000E+000	-7.03820E-006	0.00000E+000	6.92207E-004	-3.27687E+002	7	...........
	138	139	3.74819E+000	-1.87842E-006	0.00000E+000	-7.04068E-006	0.00000E+000	6.94357E-004	-3.27687E+002	7	...........
	139	140	3.74821E+000	-1.87851E-006	0.00000E+000	-7.04104E-006	0.00000E+000	6.95024E-004	-3.27687E+002	7	...........
	140	141	3.74823E+000	-1.87802E-006	0.00000E+000	-7.03926E-006	0.00000E+000	6.97224E-004	-3.27687E+002	7	...........
	141	142	3.74824E+000	-1.87821E-006	0.00000E+000	-7.03998E-006	0.00000E+000	6.94590E-004	-3.27687E+002	7	...........
	142	143	3.74826E+000	-1.87803E-006	0.00000E+000	-7.03934E-006	0.00000E+000	6.95974E-004	-3.27687E+002	7	...........
	143	144	3.74827E+000	-1.87728E-006	0.00000E+000	-7.03656E-006	0.00000E+000	6.95590E-004	-3.27687E+002	7	...........
	144	145	3.74828E+000	-1.87764E-006	0.00000E+000	-7.03792E-006	0.00000E+000	6.96357E-004	-3.27687E+002	7	...........
	145	146	3.74830E+000	-1.87740E-006	0.00000E+000	-7.03705E-006	0.00000E+000	6.97124E-004	-3.27687E+002	7	...........
	146	147	3.74831E+000	-1.87673E-006	0.00000E+000	-7.03457E-006	0.00000E+000	6.94607E-004	-3.27687E+002	7	...........
	147	148	3.74833E+000	-1.87669E-006	0.00000E+000	-7.03446E-006	0.00000E+000	6.98807E-004	-3.27687E+002	7	...........
	148	149	3.74834E+000	-1.87718E-006	0.00000E+000	-7.03630E-006	0.00000E+000	6.95807E-004	-3.27687E+002	7	...........
	149	150	3.74837E+000	-1.87690E-006	0.00000E+000	-7.03529E-006	0.00000E+000	6.97207E-004	-3.27687E+002	7	...........
	150	151	3.74838E+000	-1.87773E-006	0.00000E+000	-7.03846E-006	0.00000E+000	6.99140E-004	-3.27687E+002	7	...........
	151	152	3.74838E+000	-1.87715E-006	0.00000E+000	-7.03627E-006	0.00000E+000	6.98590E-004	-3.27687E+002	7	...........
	152	153	3.74840E+000	-1.87744E-006	0.00000E+000	-7.03742E-006	0.00000E+000	6.99424E-004	-3.27687E+002	7	...........
	153	154	3.74842E+000	-1.87722E-006	0.00000E+000	-7.03661E-006	0.00000E+000	7.01157E-004	-3.27687E+002	7	...........
	154	155	3.74843E+000	-1.87685E-006	0.00000E+000	-7.03525E-006	0.00000E+000	7.02190E-004	-3.27687E+002	7	...........
	155	156	3.74843E+000	-1.87632E-006	0.00000E+000	-7.03326E-006	0.00000E+000	7.01790E-004	-3.27687E+002	7	...........
	156	157	3.74845E+000	-1.87652E-006	0.00000E+000	-7.03407E-006	0.00000E+000	7.00190E-004	-3.27687E+002	7	...........
	157	158	3.74847E+000	-1.87752E-006	0.00000E+000	-7.03782E-006	0.00000E+000	6.99474E-004	-3.27687E+002	7	...........
	158	159	3.74848E+000	-1.87726E-006	0.00000E+000	-7.03689E-006	0.00000E+000	7.03540E-004	-3.27687E+002	7	...........
	159	160	3.74849E+000	-1.87622E-006	0.00000E+000	-7.03298E-006	0.00000E+000	7.00074E-004	-3.27687E+002	7	...........
	160	161	3.74850E+000	-1.87586E-006	0.00000E+000	-7.03166E-006	0.00000E+000	7.02024E-004	-3.27687E+002	7	...........
	161	162	3.74851E+000	-1.87607E-006	0.00000E+000	-7.03249E-006	0.00000E+000	6.99324E-004	-3.27687E+002	7	...........
	162	163	3.74853E+000	-1.87631E-006	0.00000E+000	-7.03341E-006	0.00000E+000	7.01274E-004	-3.27687E+002	7	...........
	163	164	3.74854E+000	-1.87674E-006	0.00000E+000	-7.03503E-006	0.00000E+000	6.99207E-004	-3.27687E+002	7	...........
	164	165	3.74856E+000	-1.87613E-006	0.00000E+000	-7.03278E-006	0.00000E+000	7.02474E-004	-3.27687E+002	7	...........
	165	166	3.74857E+000	-1.87701E-006	0.00000E+000	-7.03611E-006	0.00000E+000	7.02540E-004	-3.27687E+002	7	...........
	166	167	3.74858E+000	-1.87677E-006	0.00000E+000	-7.03522E-006	0.00000E+000	7.06374E-004	-3.27687E+002	7	...........
	167	168	3.74860E+000	-1.87598E-006	0.00000E+000	-7.03231E-006	0.00000E+000	7.02657E-004	-3.27687E+002	7	...........
	168	169	3.74861E+000	-1.87520E-006	0.00000E+000	-7.02937E-006	0.00000E+000	7.01757E-004	-3.27687E+002	7	...........
	169	170	3.74861E+000	-1.87610E-006	0.00000E+000	-7.03278E-006	0.00000E+000	7.04507E-004	-3.27687E+002	7	...........
	170	171	3.74864E+000	-1.87631E-006	0.00000E+000	-7.03362E-006	0.00000E+000	7.02590E-004	-3.27687E+002	7	...........
	171	172	3.74865E+000	-1.87563E-006	0.00000E+000	-7.03107E-006	0.00000E+000	7.03540E-004	-3.27687E+002	7	...........
	172	173	3.74867E+000	-1.87536E-006	0.00000E+000	-7.03010E-006	0.00000E+000	7.03140E-004	-3.27687E+002	7	...........
	173	174	3.74867E+000	-1.87596E-006	0.00000E+000	-7.03236E-006	0.00000E+000	7.05107E-004	-3.27687E+002	7	...........
	174	175	3.74869E+000	-1.87593E-006	0.00000E+000	-7.03226E-006	0.00000E+000	7.02790E-004	-3.27687E+002	7	...........
	175	176	3.74870E+000	-1.87600E-006	0.00000E+000	-7.03256E-006	0.00000E+000	7.00440E-004	-3.27687E+002	7	...........
	176	177	3.74871E+000	-1.87607E-006	0.00000E+000	-7.03285E-006	0.00000E+000	7.00807E-004	-3.27687E+002	7	...........
	177	178	3.74874E+000	-1.87569E-006	0.00000E+000	-7.03146E-006	0.00000E+000	7.04140E-004	-3.27687E+002	7	...........
	178	179	3.74874E+000	-1.87547E-006	0.00000E+000	-7.03065E-006	0.00000E+000	7.03357E-004	-3.27687E+002	7	...........
	179	180	3.74875E+000	-1.87573E-006	0.00000E+000	-7.03166E-006	0.00000E+000	7.01440E-004	-3.27687E+002	7	...........
	180	181	3.74878E+000	-1.87539E-006	0.00000E+000	-7.03041E-006	0.00000E+000	7.01390E-004	-3.27687E+002	7	...........
	181	182	3.74878E+000	-1.87534E-006	0.00000E+000	-7.03024E-006	0.00000E+000	7.02740E-004	-3.27687E+002	7	...........
	182	183	3.74879E+000	-1.87528E-006	0.00000E+000	-7.03003E-006	0.00000E+000	7.05090E-004	-3.27687E+002	7	...........
	183	184	3.74881E+000	-1.87555E-006	0.00000E+000	-7.03107E-006	0.00000E+000	7.05124E-004	-3.27687E+002	7	...........
	184	185	3.74882E+000	-1.87546E-006	0.00000E+000	-7.03076E-006	0.00000E+000	7.03024E-004	-3.27687E+002	7	...........
	185	186	3.74883E+000	-1.87427E-006	0.00000E+000	-7.02633E-006	0.00000E+000	7.01574E-004	-3.27687E+002	7	...........
	186	187	3.74884E+000	-1.87540E-006	0.00000E+000	-7.03059E-006	0.00000E+000	6.97974E-004	-3.27687E+002	7	...........
	187	188	3.74886E+000	-1.87526E-006	0.00000E+000	-7.03010E-006	0.00000E+000	7.02140E-004	-3.27687E+002	7	...........
	188	189	3.74887E+000	-1.87545E-006	0.00000E+000	-7.03081E-006	0.00000E+000	7.02674E-004	-3.27687E+002	7	...........
	189	190	3.74889E+000	-1.87520E-006	0.00000E+000	-7.02991E-006	0.00000E+000	7.03474E-004	-3.27687E+002	7	...........
	190	191	3.74889E+000	-1.87550E-006	0.00000E+000	-7.03106E-006	0.00000E+000	7.00674E-004	-3.27687E+002	7	...........
	191	192	3.74891E+000	-1.87530E-006	0.00000E+000	-7.03035E-006	0.00000E+000	7.03807E-004	-3.27687E+002	7	...........
	192	193	3.74892E+000	-1.87506E-006	0.00000E+000	-7.02944E-006	0.00000E+000	7.04024E-004	-3.27687E+002	7	...........
	193	194	3.74894E+000	-1.87411E-006	0.00000E+000	-7.02593E-006	0.00000E+000	7.02990E-004	-3.27687E+002	7	...........
	194	195	3.74895E+000	-1.87481E-006	0.00000E+000	-7.02856E-006	0.00000E+000	7.00240E-004	-3.27687E+002	7	...........
	195	196	3.74896E+000	-1.87444E-006	0.00000E+000	-7.02719E-006	0.00000E+000	7.02507E-004	-3.27687E+002	7	...........
	196	197	3.74898E+000	-1.87417E-006	0.00000E+000	-7.02621E-006	0.00000E+000	7.00007E-004	-3.27687E+002	7	...........
	197	198	3.74898E+000	-1.87441E-006	0.00000E+000	-7.02714E-006	0.00000E+000	7.00507E-004	-3.27687E+002	7	...........
	198	199	3.74899E+000	-1.87405E-006	0.00000E+000	-7.02579E-006	0.00000E+000	7.01807E-004	-3.27687E+002	7	...........
	199	200	3.74900E+000	-1.87461E-006	0.00000E+000	-7.02793E-006	0.00000E+000	6.99307E-004	-3.27687E+002	7	...........
	200	201	3.74902E+000	-1.87418E-006	0.00000E+000	-7.02633E-006	0.00000E+000	7.02074E-004	-3.27687E+002	7	...........
	201	202	3.74903E+000	-1.87420E-006	0.00000E+000	-7.02644E-006	0.00000E+000	7.02790E-004	-3.27687E+002	7	...........
	202	203	3.74904E+000	-1.87436E-006	0.00000E+000	-7.02706E-006	0.00000E+000	7.01990E-004	-3.27687E+002	7	...........
	203	204	3.74905E+000	-1.87422E-006	0.00000E+000	-7.02654E-006	0.00000E+000	7.00174E-004	-3.27687E+002	7	...........
	204	205	3.74907E+000	-1.87342E-006	0.00000E+000	-7.02356E-006	0.00000E+000	7.01040E-004	-3.27687E+002	7	...........
	205	206	3.74907E+000	-1.87336E-006	0.00000E+000	-7.02337E-006	0.00000E+000	7.00157E-004	-3.27687E+002	7	...........
	206	207	3.74908E+000	-1.87426E-006	0.00000E+000	-7.02675E-006	0.00000E+000	7.00490E-004	-3.27687E+002	7	...........
	207	208	3.74910E+000	-1.87404E-006	0.00000E+000	-7.02597E-006	0.00000E+000	7.00990E-004	-3.27687E+002	7	...........
	208	209	3.74911E+000	-1.87381E-006	0.00000E+000	-7.02511E-006	0.00000E+000	6.98224E-004	-3.27687E+002	7	...........
	209	210	3.74912E+000	-1.87391E-006	0.00000E+000	-7.02553E-006	0.00000E+000	7.01424E-004	-3.27687E+002	7	...........
	210	211	3.74913E+000	-1.87373E-006	0.00000E+000	-7.02486E-006	0.00000E+000	6.98674E-004	-3.27687E+002	7	...........
	211	212	3.74914E+000	-1.87424E-006	0.00000E+000	-7.02680E-006	0.00000E+000	7.01090E-004	-3.27687E+002	7	...........
	212	213	3.74915E+000	-1.87440E-006	0.00000E+000	-7.02739E-006	0.00000E+000	6.99857E-004	-3.27687E+002	7	...........
	213	214	3.74916E+000	-1.87450E-006	0.00000E+000	-7.02779E-006	0.00000E+000	6.98007E-004	-3.27687E+002	7	...........
	214	215	3.74917E+000	-1.87444E-006	0.00000E+000	-7.02757E-006	0.00000E+000	7.00474E-004	-3.27687E+002	7	...........
	215	216	3.74918E+000	-1.87432E-006	0.00000E+000	-7.02715E-006	0.00000E+000	7.00957E-004	-3.27687E+002	7	...........
	216	217	3.74918E+000	-1.87407E-006	0.00000E+000	-7.02623E-006	0.00000E+000	6.98807E-004	-3.27687E+002	7	...........
	217	218	3.74918E+000	-1.87382E-006	0.00000E+000	-7.02529E-006	0.00000E+000	7.00290E-004	-3.27687E+002	7	...........
	218	219	3.74920E+000	-1.87357E-006	0.00000E+000	-7.02439E-006	0.00000E+000	6.98424E-004	-3.27687E+002	7	...........
	219	220	3.74921E+000	-1.87388E-006	0.00000E+000	-7.02557E-006	0.00000E+000	6.98874E-004	-3.27687E+002	7	...........
	220	221	3.74922E+000	-1.87395E-006	0.00000E+000	-7.02585E-006	0.00000E+000	6.97374E-004	-3.27687E+002	7	...........
	221	222	3.74924E+000	-1.87363E-006	0.00000E+000	-7.02468E-006	0.00000E+000	7.00774E-004	-3.27687E+002	7	...........
	222	223	3.74924E+000	-1.87384E-006	0.00000E+000	-7.02546E-006	0.00000E+000	6.99290E-004	-3.27687E+002	7	...........
	223	224	3.74925E+000	-1.87349E-006	0.00000E+000	-7.02418E-006	0.00000E+000	6.99107E-004	-3.27687E+002	7	...........
	224	225	3.74925E+000	-1.87341E-006	0.00000E+000	-7.02391E-006	0.00000E+000	6.97840E-004	-3.27687E+002	7	...........
	225	226	3.74927E+000	-1.87381E-006	0.00000E+000	-7.02542E-006	0.00000E+000	6.98557E-004	-3.27687E+002	7	...........
	226	227	3.74928E+000	-1.87391E-006	0.00000E+000	-7.02580E-006	0.00000E+000	6.96274E-004	-3.27687E+002	7	...........
	227	228	3.74929E+000	-1.87366E-006	0.00000E+000	-7.02489E-006	0.00000E+000	7.00890E-004	-3.27687E+002	7	...........
	228	229	3.74928E+000	-1.87333E-006	0.00000E+000	-7.02365E-006	0.00000E+000	6.97974E-004	-3.27687E+002	7	...........
	229	230	3.74929E+000	-1.87338E-006	0.00000E+000	-7.02386E-006	0.00000E+000	6.98224E-004	-3.27687E+002	7	...........
	230	231	3.74930E+000	-1.87255E-006	0.00000E+000	-7.02074E-006	0.00000E+000	6.97757E-004	-3.27687E+002	7	...........
	231	232	3.74932E+000	-1.87314E-006	0.00000E+000	-7.02300E-006	0.00000E+000	6.99540E-004	-3.27687E+002	7	...........
	232	233	3.74932E+000	-1.87330E-006	0.00000E+000	-7.02362E-006	0.00000E+000	6.98390E-004	-3.27687E+002	7	...........
	233	234	3.74932E+000	-1.87305E-006	0.00000E+000	-7.02266E-006	0.00000E+000	6.97107E-004	-3.27687E+002	7	...........
	234	235	3.74933E+000	-1.87284E-006	0.00000E+000	-7.02191E-006	0.00000E+000	6.96524E-004	-3.27687E+002	7	...........
	235	236	3.74934E+000	-1.87299E-006	0.00000E+000	-7.02249E-006	0.00000E+000	6.96424E-004	-3.27687E+002	7	...........
	236	237	3.74934E+000	-1.87282E-006	0.00000E+000	-7.02184E-006	0.00000E+000	6.99040E-004	-3.27687E+002	7	...........
	237	238	3.74935E+000	-1.87287E-006	0.00000E+000	-7.02206E-006	0.00000E+000	7.01340E-004	-3.27687E+002	7	...........
	238	239	3.74936E+000	-1.87328E-006	0.00000E+000	-7.02360E-006	0.00000E+000	6.99907E-004	-3.27687E+002	7	...........
	239	240	3.74938E+000	-1.87341E-006	0.00000E+000	-7.02410E-006	0.00000E+000	6.99490E-004	-3.27687E+002	7	...........
	240	241	3.74938E+000	-1.87268E-006	0.00000E+000	-7.02138E-006	0.00000E+000	6.99590E-004	-3.27687E+002	7	...........
	241	242	3.74938E+000	-1.87273E-006	0.00000E+000	-7.02157E-006	0.00000E+000	6.99740E-004	-3.27687E+002	7	...........
	242	243	3.74939E+000	-1.87240E-006	0.00000E+000	-7.02035E-006	0.00000E+000	7.00974E-004	-3.27687E+002	7	...........
	243	244	3.74940E+000	-1.87239E-006	0.00000E+000	-7.02034E-006	0.00000E+000	6.98440E-004	-3.27687E+002	7	...........
	244	245	3.74941E+000	-1.87301E-006	0.00000E+000	-7.02269E-006	0.00000E+000	7.01024E-004	-3.27687E+002	7	...........
	245	246	3.74941E+000	-1.87256E-006	0.00000E+000	-7.02098E-006	0.00000E+000	6.99190E-004	-3.27687E+002	7	...........
	246	247	3.74941E+000	-1.87280E-006	0.00000E+000	-7.02188E-006	0.00000E+000	6.99774E-004	-3.27687E+002	7	...........
	247	248	3.74942E+000	-1.87274E-006	0.00000E+000	-7.02172E-006	0.00000E+000	7.02190E-004	-3.27687E+002	7	...........
	248	249	3.74944E+000	-1.87242E-006	0.00000E+000	-7.02054E-006	0.00000E+000	7.00324E-004	-3.27687E+002	7	...........
	249	250	3.74944E+000	-1.87244E-006	0.00000E+000	-7.02062E-006	0.00000E+000	6.99690E-004	-3.27687E+002	7	...........
	250	251	3.74945E+000	-1.87269E-006	0.00000E+000	-7.02158E-006	0.00000E+000	7.01524E-004	-3.27687E+002	7	...........
	251	252	3.74945E+000	-1.87258E-006	0.00000E+000	-7.02114E-006	0.00000E+000	7.00190E-004	-3.27687E+002	7	...........
	252	253	3.74946E+000	-1.87271E-006	0.00000E+000	-7.02165E-006	0.00000E+000	7.00190E-004	-3.27687E+002	7	...........
	253	254	3.74947E+000	-1.87278E-006	0.00000E+000	-7.02191E-006	0.00000E+000	6.99990E-004	-3.27687E+002	7	...........
	254	255	3.74948E+000	-1.87268E-006	0.00000E+000	-7.02156E-006	0.00000E+000	7.01624E-004	-3.27687E+002	7	...........
	255	256	3.74948E+000	-1.87221E-006	0.00000E+000	-7.01982E-006	0.00000E+000	6.97940E-004	-3.27687E+002	7	...........
	256	257	3.74949E+000	-1.87274E-006	0.00000E+000	-7.02182E-006	0.00000E+000	6.99374E-004	-3.27687E+002	7	...........
	257	258	3.74950E+000	-1.87263E-006	0.00000E+000	-7.02143E-006	0.00000E+000	7.00107E-004	-3.27687E+002	7	...........
	258	259	3.74951E+000	-1.87288E-006	0.00000E+000	-7.02237E-006	0.00000E+000	7.01740E-004	-3.27687E+002	7	...........
	259	260	3.74950E+000	-1.87304E-006	0.00000E+000	-7.02297E-006	0.00000E+000	7.02490E-004	-3.27687E+002	7	...........
	260	261	3.74952E+000	-1.87224E-006	0.00000E+000	-7.02000E-006	0.00000E+000	7.00840E-004	-3.27687E+002	7	...........
	261	262	3.74952E+000	-1.87242E-006	0.00000E+000	-7.02067E-006	0.00000E+000	7.01240E-004	-3.27687E+002	7	...........
	262	263	3.74953E+000	-1.87284E-006	0.00000E+000	-7.02228E-006	0.00000E+000	7.02240E-004	-3.27687E+002	7	...........
	263	264	3.74953E+000	-1.87243E-006	0.00000E+000	-7.02075E-006	0.00000E+000	7.01924E-004	-3.27687E+002	7	...........
	264	265	3.74954E+000	-1.87333E-006	0.00000E+000	-7.02412E-006	0.00000E+000	7.01840E-004	-3.27687E+002	7	...........
	265	266	3.74955E+000	-1.87376E-006	0.00000E+000	-7.02575E-006	0.00000E+000	7.02940E-004	-3.27687E+002	7	...........
	266	267	3.74956E+000	-1.87305E-006	0.00000E+000	-7.02312E-006	0.00000E+000	7.03074E-004	-3.27687E+002	7	...........
	267	268	3.74956E+000	-1.87222E-006	0.00000E+000	-7.02000E-006	0.00000E+000	7.04724E-004	-3.27687E+002	7	...........
	268	269	3.74958E+000	-1.87182E-006	0.00000E+000	-7.01854E-006	0.00000E+000	7.01674E-004	-3.27687E+002	7	...........
	269	270	3.74958E+000	-1.87270E-006	0.00000E+000	-7.02185E-006	0.00000E+000	6.99974E-004	-3.27687E+002	7	...........
	270	271	3.74959E+000	-1.87275E-006	0.00000E+000	-7.02204E-006	0.00000E+000	7.00690E-004	-3.27687E+002	7	...........
	271	272	3.74960E+000	-1.87247E-006	0.00000E+000	-7.02102E-006	0.00000E+000	7.01390E-004	-3.27687E+002	7	...........
	272	273	3.74961E+000	-1.87249E-006	0.00000E+000	-7.02112E-006	0.00000E+000	7.02640E-004	-3.27687E+002	7	...........
	273	274	3.74961E+000	-1.87194E-006	0.00000E+000	-7.01907E-006	0.00000E+000	7.03657E-004	-3.27687E+002	7	...........
	274	275	3.74962E+000	-1.87244E-006	0.00000E+000	-7.02095E-006	0.00000E+000	7.03624E-004	-3.27687E+002	7	...........
	275	276	3.74963E+000	-1.87264E-006	0.00000E+000	-7.02171E-006	0.00000E+000	7.03874E-004	-3.27687E+002	7	...........
	276	277	3.74965E+000	-1.87190E-006	0.00000E+000	-7.01895E-006	0.00000E+000	7.04340E-004	-3.27687E+002	7	...........
	277	278	3.74966E+000	-1.87279E-006	0.00000E+000	-7.02231E-006	0.00000E+000	7.04307E-004	-3.27687E+002	7	...........
	278	279	3.74966E+000	-1.87231E-006	0.00000E+000	-7.02054E-006	0.00000E+000	7.02957E-004	-3.27687E+002	7	...........
	279	280	3.74967E+000	-1.87195E-006	0.00000E+000	-7.01917E-006	0.00000E+000	7.00990E-004	-3.27687E+002	7	...........
	280	281	3.74966E+000	-1.87131E-006	0.00000E+000	-7.01678E-006	0.00000E+000	7.04340E-004	-3.27687E+002	7	...........
	281	282	3.74968E+000	-1.87229E-006	0.00000E+000	-7.02048E-006	0.00000E+000	7.07024E-004	-3.27687E+002	7	...........
	282	283	3.74969E+000	-1.87263E-006	0.00000E+000	-7.02180E-006	0.00000E+000	7.06974E-004	-3.27687E+002	7	...........
	283	284	3.74970E+000	-1.87257E-006	0.00000E+000	-7.02158E-006	0.00000E+000	7.05840E-004	-3.27687E+002	7	...........
	284	285	3.74971E+000	-1.87179E-006	0.00000E+000	-7.01866E-006	0.00000E+000	7.06524E-004	-3.27687E+002	7	...........
	285	286	3.74972E+000	-1.87176E-006	0.00000E+000	-7.01857E-006	0.00000E+000	7.05890E-004	-3.27687E+002	7	...........
	286	287	3.74973E+000	-1.87192E-006	0.00000E+000	-7.01918E-006	0.00000E+000	7.07007E-004	-3.27687E+002	7	...........
	287	288	3.74975E+000	-1.87232E-006	0.00000E+000	-7.02072E-006	0.00000E+000	7.07240E-004	-3.27687E+002	7	...........
	288	289	3.74976E+000	-1.87246E-006	0.00000E+000	-7.02129E-006	0.00000E+000	7.07224E-004	-3.27687E+002	7	...........
	289	290	3.74977E+000	-1.87259E-006	0.00000E+000	-7.02179E-006	0.00000E+000	7.09674E-004	-3.27687E+002	7	...........
	290	291	3.74977E+000	-1.87202E-006	0.00000E+000	-7.01966E-006	0.00000E+000	7.07624E-004	-3.27687E+002	7	...........
	291	292	3.74978E+000	-1.87193E-006	0.00000E+000	-7.01930E-006	0.00000E+000	7.07507E-004	-3.27687E+002	7	...........
	292	293	3.74979E+000	-1.87159E-006	0.00000E+000	-7.01807E-006	0.00000E+000	7.07624E-004	-3.27687E+002	7	...........
	293	294	3.74979E+000	-1.87187E-006	0.00000E+000	-7.01911E-006	0.00000E+000	7.06990E-004	-3.27687E+002	7	...........
	294	295	3.74980E+000	-1.87190E-006	0.00000E+000	-7.01925E-006	0.00000E+000	7.05374E-004	-3.27687E+002	7	...........
	295	296	3.74981E+000	-1.87202E-006	0.00000E+000	-7.01971E-006	0.00000E+000	7.09490E-004	-3.27687E+002	7	...........
	296	297	3.74983E+000	-1.87209E-006	0.00000E+000	-7.02003E-006	0.00000E+000	7.09757E-004	-3.27687E+002	7	...........
	297	298	3.74984E+000	-1.87167E-006	0.00000E+000	-7.01847E-006	0.00000E+000	7.08174E-004	-3.27687E+002	7	...........
	298	299	3.74984E+000	-1.87170E-006	0.00000E+000	-7.01857E-006	0.00000E+000	7.05607E-004	-3.27687E+002	7	...........
	299	300	3.74986E+000	-1.87151E-006	0.00000E+000	-7.01787E-006	0.00000E+000	7.07607E-004	-3.27687E+002	7	...........
	300	301	3.74986E+000	-1.87160E-006	0.00000E+000	-7.01826E-006	0.00000E+000	7.04774E-004	-3.27687E+002	7	...........
	301	302	3.74988E+000	-1.87153E-006	0.00000E+000	-7.01800E-006	0.00000E+000	7.04040E-004	-3.27687E+002	7	...........
	302	303	3.74989E+000	-1.87133E-006	0.00000E+000	-7.01728E-006	0.00000E+000	7.09190E-004	-3.27687E+002	7	...........
	303	304	3.74991E+000	-1.87109E-006	0.00000E+000	-7.01642E-006	0.00000E+000	7.06474E-004	-3.27687E+002	7	...........
	304	305	3.74991E+000	-1.87047E-006	0.00000E+000	-7.01408E-006	0.00000E+000	7.05157E-004	-3.27687E+002	7	...........
	305	306	3.74992E+000	-1.86989E-006	0.00000E+000	-7.01193E-006	0.00000E+000	7.06707E-004	-3.27687E+002	7	...........
	306	307	3.74992E+000	-1.87143E-006	0.00000E+000	-7.01771E-006	0.00000E+000	7.04924E-004	-3.27687E+002	7	...........
	307	308	3.74994E+000	-1.87157E-006	0.00000E+000	-7.01827E-006	0.00000E+000	7.07507E-004	-3.27687E+002	7	...........
	308	309	3.74995E+000	-1.87134E-006	0.00000E+000	-7.01745E-006	0.00000E+000	7.07874E-004	-3.27687E+002	7	...........
	309	310	3.74997E+000	-1.87049E-006	0.00000E+000	-7.01426E-006	0.00000E+000	7.08307E-004	-3.27687E+002	7	...........
	310	311	3.74998E+000	-1.87069E-006	0.00000E+000	-7.01505E-006	0.00000E+000	7.06957E-004	-3.27687E+002	7	...........
	311	312	3.74999E+000	-1.87064E-006	0.00000E+000	-7.01487E-006	0.00000E+000	7.09974E-004	-3.27687E+002	7	...........
	312	313	3.75000E+000	-1.87100E-006	0.00000E+000	-7.01625E-006	0.00000E+000	7.06307E-004	-3.27687E+002	7	...........
	313	314	3.75002E+000	-1.87105E-006	0.00000E+000	-7.01646E-006	0.00000E+000	7.05140E-004	-3.27687E+002	7	...........
	314	315	3.75003E+000	-1.87090E-006	0.00000E+000	-7.01592E-006	0.00000E+000	7.07990E-004	-3.27687E+002	7	...........
	315	316	3.75004E+000	-1.87096E-006	0.00000E+000	-7.01616E-006	0.00000E+000	7.05707E-004	-3.27687E+002	7	...........
	316	317	3.75006E+000	-1.87100E-006	0.00000E+000	-7.01635E-006	0.00000E+000	7.07974E-004	-3.27687E+002	7	...........
	317	318	3.75007E+000	-1.87041E-006	0.00000E+000	-7.01415E-006	0.00000E+000	7.03457E-004	-3.27687E+002	7	...........
	318	319	3.75008E+000	-1.87016E-006	0.00000E+000	-7.01326E-006	0.00000E+000	7.06657E-004	-3.27687E+002	7	...........
	319	320	3.75009E+000	-1.87131E-006	0.00000E+000	-7.01757E-006	0.00000E+000	7.04340E-004	-3.27687E+002	7	...........
	320	321	3.75011E+000	-1.87076E-006	0.00000E+000	-7.01554E-006	0.00000E+000	7.06490E-004	-3.27687E+002	7	...........
	321	322	3.75012E+000	-1.87020E-006	0.00000E+000	-7.01346E-006	0.00000E+000	7.04940E-004	-3.27687E+002	7	...........
	322	323	3.75012E+000	-1.87057E-006	0.00000E+000	-7.01487E-006	0.00000E+000	7.06707E-004	-3.27687E+002	7	...........
	323	324	3.75014E+000	-1.87053E-006	0.00000E+000	-7.01476E-006	0.00000E+000	7.09090E-004	-3.27687E+002	7	...........
	324	325	3.75016E+000	-1.87105E-006	0.00000E+000	-7.01674E-006	0.00000E+000	7.05307E-004	-3.27687E+002	7	...........
	325	326	3.75016E+000	-1.87071E-006	0.00000E+000	-7.01547E-006	0.00000E+000	7.07474E-004	-3.27687E+002	7	...........
	326	327	3.75017E+000	-1.87068E-006	0.00000E+000	-7.01536E-006	0.00000E+000	7.07107E-004	-3.27687E+002	7	...........
	327	328	3.75020E+000	-1.87122E-006	0.00000E+000	-7.01743E-006	0.00000E+000	7.06790E-004	-3.27687E+002	7	...........
	328	329	3.75021E+000	-1.87064E-006	0.00000E+000	-7.01528E-006	0.00000E+000	7.09240E-004	-3.27687E+002	7	...........
	329	330	3.75022E+000	-1.87042E-006	0.00000E+000	-7.01447E-006	0.00000E+000	7.07874E-004	-3.27687E+002	7	...........
	330	331	3.75025E+000	-1.86964E-006	0.00000E+000	-7.01163E-006	0.00000E+000	7.06540E-004	-3.27687E+002	7	...........
	331	332	3.75027E+000	-1.87045E-006	0.00000E+000	-7.01471E-006	0.00000E+000	7.04457E-004	-3.27687E+002	7	...........
	332	333	3.75027E+000	-1.87007E-006	0.00000E+000	-7.01328E-006	0.00000E+000	7.08007E-004	-3.27687E+002	7	...........
	333	334	3.75028E+000	-1.86986E-006	0.00000E+000	-7.01249E-006	0.00000E+000	7.04857E-004	-3.27687E+002	7	...........
	334	335	3.75030E+000	-1.86984E-006	0.00000E+000	-7.01244E-006	0.00000E+000	7.00724E-004	-3.27687E+002	7	...........
	335	336	3.75032E+000	-1.86972E-006	0.00000E+000	-7.01204E-006	0.00000E+000	7.05007E-004	-3.27687E+002	7	...........
	336	337	3.75031E+000	-1.86993E-006	0.00000E+000	-7.01283E-006	0.00000E+000	7.05890E-004	-3.27687E+002	7	...........
	337	338	3.75034E+000	-1.86982E-006	0.00000E+000	-7.01248E-006	0.00000E+000	7.04057E-004	-3.27687E+002	7	...........
	338	339	3.75036E+000	-1.87010E-006	0.00000E+000	-7.01353E-006	0.00000E+000	7.04124E-004	-3.27687E+002	7	...........
	339	340	3.75037E+000	-1.87009E-006	0.00000E+000	-7.01354E-006	0.00000E+000	7.02790E-004	-3.27687E+002	7	...........
	340	341	3.75036E+000	-1.87027E-006	0.00000E+000	-7.01419E-006	0.00000E+000	7.04690E-004	-3.27687E+002	7	...........
	341	342	3.75038E+000	-1.87042E-006	0.00000E+000	-7.01478E-006	0.00000E+000	7.04390E-004	-3.27687E+002	7	...........
	342	343	3.75040E+000	-1.86924E-006	0.00000E+000	-7.01039E-006	0.00000E+000	7.05940E-004	-3.27687E+002	7	...........
	343	344	3.75042E+000	-1.87009E-006	0.00000E+000	-7.01362E-006	0.00000E+000	7.03774E-004	-3.27687E+002	7	...........
	344	345	3.75043E+000	-1.87020E-006	0.00000E+000	-7.01403E-006	0.00000E+000	7.01990E-004	-3.27687E+002	7	...........
	345	346	3.75044E+000	-1.86980E-006	0.00000E+000	-7.01257E-006	0.00000E+000	7.03457E-004	-3.27687E+002	7	...........
	346	347	3.75045E+000	-1.87012E-006	0.00000E+000	-7.01381E-006	0.00000E+000	7.04107E-004	-3.27687E+002	7	...........
	347	348	3.75046E+000	-1.87000E-006	0.00000E+000	-7.01335E-006	0.00000E+000	7.01924E-004	-3.27687E+002	7	...........
	348	349	3.75047E+000	-1.87008E-006	0.00000E+000	-7.01369E-006	0.00000E+000	7.02040E-004	-3.27687E+002	7	...........
	349	350	3.75049E+000	-1.87057E-006	0.00000E+000	-7.01557E-006	0.00000E+000	7.01124E-004	-3.27687E+002	7	...........
	350	351	3.75050E+000	-1.87068E-006	0.00000E+000	-7.01598E-006	0.00000E+000	7.02007E-004	-3.27687E+002	7	...........
	351	352	3.75052E+000	-1.86971E-006	0.00000E+000	-7.01239E-006	0.00000E+000	7.03107E-004	-3.27687E+002	7	...........
	352	353	3.75052E+000	-1.87007E-006	0.00000E+000	-7.01372E-006	0.00000E+000	7.01074E-004	-3.27687E+002	7	...........
	353	354	3.75054E+000	-1.87038E-006	0.00000E+000	-7.01493E-006	0.00000E+000	7.01590E-004	-3.27687E+002	7	...........
	354	355	3.75057E+000	-1.87012E-006	0.00000E+000	-7.01400E-006	0.00000E+000	7.02124E-004	-3.27687E+002	7	...........
	355	356	3.75058E+000	-1.86978E-006	0.00000E+000	-7.01276E-006	0.00000E+000	7.01390E-004	-3.27687E+002	7	...........
	356	357	3.75059E+000	-1.86961E-006	0.00000E+000	-7.01215E-006	0.00000E+000	7.01274E-004	-3.27687E+002	7	...........
	357	358	3.75059E+000	-1.86982E-006	0.00000E+000	-7.01293E-006	0.00000E+000	7.00374E-004	-3.27687E+002	7	...........
	358	359	3.75061E+000	-1.87010E-006	0.00000E+000	-7.01401E-006	0.00000E+000	7.01824E-004	-3.27687E+002	7	...........
	359	360	3.75063E+000	-1.87005E-006	0.00000E+000	-7.01387E-006	0.00000E+000	6.99624E-004	-3.27687E+002	7	...........
	360	361	3.75064E+000	-1.86996E-006	0.00000E+000	-7.01352E-006	0.00000E+000	7.01940E-004	-3.27687E+002	7	...........
	361	362	3.75065E+000	-1.86998E-006	0.00000E+000	-7.01363E-006	0.00000E+000	7.01490E-004	-3.27687E+002	7	...........
	362	363	3.75067E+000	-1.87010E-006	0.00000E+000	-7.01412E-006	0.00000E+000	6.98590E-004	-3.27687E+002	7	...........
	363	364	3.75069E+000	-1.87049E-006	0.00000E+000	-7.01561E-006	0.00000E+000	7.00890E-004	-3.27687E+002	7	...........
	364	365	3.75068E+000	-1.87013E-006	0.00000E+000	-7.01428E-006	0.00000E+000	7.01324E-004	-3.27687E+002	7	...........
	365	366	3.75071E+000	-1.87054E-006	0.00000E+000	-7.01586E-006	0.00000E+000	6.99957E-004	-3.27687E+002	7	...........
	366	367	3.75072E+000	-1.87021E-006	0.00000E+000	-7.01465E-006	0.00000E+000	7.00024E-004	-3.27687E+002	7	...........
	367	368	3.75073E+000	-1.86929E-006	0.00000E+000	-7.01122E-006	0.00000E+000	6.95824E-004	-3.27687E+002	7	...........
	368	369	3.75074E+000	-1.86990E-006	0.00000E+000	-7.01353E-006	0.00000E+000	6.98024E-004	-3.27687E+002	7	...........
	369	370	3.75075E+000	-1.87003E-006	0.00000E+000	-7.01399E-006	0.00000E+000	6.99174E-004	-3.27687E+002	7	...........
	370	371	3.75077E+000	-1.86980E-006	0.00000E+000	-7.01319E-006	0.00000E+000	6.97057E-004	-3.27687E+002	7	...........
	371	372	3.75077E+000	-1.86992E-006	0.00000E+000	-7.01363E-006	0.00000E+000	6.96824E-004	-3.27687E+002	7	...........
	372	373	3.75077E+000	-1.86944E-006	0.00000E+000	-7.01186E-006	0.00000E+000	6.98624E-004	-3.27687E+002	7	...........
	373	374	3.75078E+000	-1.86921E-006	0.00000E+000	-7.01101E-006	0.00000E+000	6.99840E-004	-3.27687E+002	7	...........
	374	375	3.75081E+000	-1.86963E-006	0.00000E+000	-7.01261E-006	0.00000E+000	6.97007E-004	-3.27687E+002	7	...........
	375	376	3.75081E+000	-1.86971E-006	0.00000E+000	-7.01292E-006	0.00000E+000	6.97790E-004	-3.27687E+002	7	...........
	376	377	3.75082E+000	-1.87029E-006	0.00000E+000	-7.01511E-006	0.00000E+000	6.97174E-004	-3.27687E+002	7	...........
	377	378	3.75084E+000	-1.86970E-006	0.00000E+000	-7.01296E-006	0.00000E+000	6.99057E-004	-3.27687E+002	7	...........
	378	379	3.75085E+000	-1.86992E-006	0.00000E+000	-7.01379E-006	0.00000E+000	6.99574E-004	-3.27687E+002	7	...........
	379	380	3.75086E+000	-1.87022E-006	0.00000E+000	-7.01493E-006	0.00000E+000	6.99024E-004	-3.27687E+002	7	...........
	380	381	3.75087E+000	-1.86913E-006	0.00000E+000	-7.01087E-006	0.00000E+000	6.98807E-004	-3.27687E+002	7	...........
	381	382	3.75089E+000	-1.86980E-006	0.00000E+000	-7.01342E-006	0.00000E+000	6.99007E-004	-3.27687E+002	7	...........
	382	383	3.75089E+000	-1.87015E-006	0.00000E+000	-7.01472E-006	0.00000E+000	6.98307E-004	-3.27687E+002	7	...........
	383	384	3.75091E+000	-1.87003E-006	0.00000E+000	-7.01432E-006	0.00000E+000	6.96890E-004	-3.27687E+002	7	...........
	384	385	3.75093E+000	-1.86957E-006	0.00000E+000	-7.01261E-006	0.00000E+000	6.95490E-004	-3.27687E+002	7	...........
	385	386	3.75094E+000	-1.86955E-006	0.00000E+000	-7.01259E-006	0.00000E+000	6.95607E-004	-3.27687E+002	7	...........
	386	387	3.75095E+000	-1.87044E-006	0.00000E+000	-7.01594E-006	0.00000E+000	6.95824E-004	-3.27687E+002	7	...........
	387	388	3.75096E+000	-1.87024E-006	0.00000E+000	-7.01520E-006	0.00000E+000	6.93407E-004	-3.27687E+002	7	...........
	388	389	3.75098E+000	-1.87009E-006	0.00000E+000	-7.01468E-006	0.00000E+000	6.97290E-004	-3.27687E+002	7	...........
	389	390	3.75099E+000	-1.87038E-006	0.00000E+000	-7.01579E-006	0.00000E+000	6.99124E-004	-3.27687E+002	7	...........
	390	391	3.75099E+000	-1.87036E-006	0.00000E+000	-7.01571E-006	0.00000E+000	6.98107E-004	-3.27687E+002	7	...........
	391	392	3.75100E+000	-1.87052E-006	0.00000E+000	-7.01631E-006	0.00000E+000	6.96640E-004	-3.27687E+002	7	...........
	392	393	3.75101E+000	-1.87050E-006	0.00000E+000	-7.01625E-006	0.00000E+000	6.99274E-004	-3.27687E+002	7	...........
	393	394	3.75102E+000	-1.86954E-006	0.00000E+000	-7.01268E-006	0.00000E+000	6.97207E-004	-3.27687E+002	7	...........
	394	395	3.75103E+000	-1.86985E-006	0.00000E+000	-7.01386E-006	0.00000E+000	6.95507E-004	-3.27687E+002	7	...........
	395	396	3.75104E+000	-1.87030E-006	0.00000E+000	-7.01556E-006	0.00000E+000	6.99174E-004	-3.27687E+002	7	...........
	396	397	3.75104E+000	-1.86983E-006	0.00000E+000	-7.01382E-006	0.00000E+000	6.99374E-004	-3.27687E+002	7	...........
	397	398	3.75106E+000	-1.86977E-006	0.00000E+000	-7.01362E-006	0.00000E+000	6.97940E-004	-3.27687E+002	7	...........
	398	399	3.75106E+000	-1.86989E-006	0.00000E+000	-7.01409E-006	0.00000E+000	6.96307E-004	-3.27687E+002	7	...........
	399	400	3.75108E+000	-1.86959E-006	0.00000E+000	-7.01299E-006	0.00000E+000	6.98324E-004	-3.27687E+002	7	...........
	400	401	3.75109E+000	-1.86984E-006	0.00000E+000	-7.01392E-006	0.00000E+000	6.97957E-004	-3.27687E+002	7	...........
	401	402	3.75109E+000	-1.87003E-006	0.00000E+000	-7.01466E-006	0.00000E+000	6.97690E-004	-3.27687E+002	7	...........
	402	403	3.75110E+000	-1.86999E-006	0.00000E+000	-7.01454E-006	0.00000E+000	6.98340E-004	-3.27687E+002	7	...........
	403	404	3.75111E+000	-1.86929E-006	0.00000E+000	-7.01190E-006	0.00000E+000	6.98807E-004	-3.27687E+002	7	...........
	404	405	3.75113E+000	-1.86918E-006	0.00000E+000	-7.01154E-006	0.00000E+000	6.98324E-004	-3.27687E+002	7	...........
	405	406	3.75114E+000	-1.86862E-006	0.00000E+000	-7.00945E-006	0.00000E+000	7.00240E-004	-3.27687E+002	7	...........
	406	407	3.75115E+000	-1.86897E-006	0.00000E+000	-7.01078E-006	0.00000E+000	6.98740E-004	-3.27687E+002	7	...........
	407	408	3.75116E+000	-1.86923E-006	0.00000E+000	-7.01177E-006	0.00000E+000	6.97074E-004	-3.27687E+002	7	...........
	408	409	3.75117E+000	-1.86949E-006	0.00000E+000	-7.01277E-006	0.00000E+000	6.98374E-004	-3.27687E+002	7	...........
	409	410	3.75117E+000	-1.86947E-006	0.00000E+000	-7.01272E-006	0.00000E+000	6.99757E-004	-3.27687E+002	7	...........
	410	411	3.75118E+000	-1.86953E-006	0.00000E+000	-7.01293E-006	0.00000E+000	7.00174E-004	-3.27687E+002	7	...........
	411	412	3.75119E+000	-1.86953E-006	0.00000E+000	-7.01295E-006	0.00000E+000	6.98007E-004	-3.27687E+002	7	...........
	412	413	3.75119E+000	-1.86964E-006	0.00000E+000	-7.01340E-006	0.00000E+000	6.98407E-004	-3.27687E+002	7	...........
	413	414	3.75121E+000	-1.86883E-006	0.00000E+000	-7.01039E-006	0.00000E+000	6.99474E-004	-3.27687E+002	7	...........
	414	415	3.75122E+000	-1.86946E-006	0.00000E+000	-7.01278E-006	0.00000E+000	6.99024E-004	-3.27687E+002	7	...........
	415	416	3.75122E+000	-1.86984E-006	0.00000E+000	-7.01417E-006	0.00000E+000	6.99040E-004	-3.27687E+002	7	...........
	416	417	3.75124E+000	-1.86973E-006	0.00000E+000	-7.01380E-006	0.00000E+000	6.98890E-004	-3.27687E+002	7	...........
	417	418	3.75124E+000	-1.86909E-006	0.00000E+000	-7.01139E-006	0.00000E+000	6.99574E-004	-3.27687E+002	7	...........
	418	419	3.75126E+000	-1.86855E-006	0.00000E+000	-7.00940E-006	0.00000E+000	7.01174E-004	-3.27687E+002	7	...........
	419	420	3.75127E+000	-1.86927E-006	0.00000E+000	-7.01213E-006	0.00000E+000	6.99424E-004	-3.27687E+002	7	...........
	420	421	3.75128E+000	-1.86968E-006	0.00000E+000	-7.01368E-006	0.00000E+000	6.98690E-004	-3.27687E+002	7	...........
	421	422	3.75128E+000	-1.86912E-006	0.00000E+000	-7.01161E-006	0.00000E+000	6.97557E-004	-3.27687E+002	7	...........
	422	423	3.75131E+000	-1.86886E-006	0.00000E+000	-7.01066E-006	0.00000E+000	6.95240E-004	-3.27687E+002	7	...........
	423	424	3.75131E+000	-1.86950E-006	0.00000E+000	-7.01308E-006	0.00000E+000	6.99307E-004	-3.27687E+002	7	...........
	424	425	3.75131E+000	-1.86935E-006	0.00000E+000	-7.01252E-006	0.00000E+000	6.97924E-004	-3.27687E+002	7	...........
	425	426	3.75132E+000	-1.87024E-006	0.00000E+000	-7.01585E-006	0.00000E+000	6.97224E-004	-3.27687E+002	7	...........
	426	427	3.75134E+000	-1.87011E-006	0.00000E+000	-7.01541E-006	0.00000E+000	6.98474E-004	-3.27687E+002	7	...........
	427	428	3.75134E+000	-1.86985E-006	0.00000E+000	-7.01445E-006	0.00000E+000	7.00224E-004	-3.27687E+002	7	...........
	428	429	3.75135E+000	-1.86946E-006	0.00000E+000	-7.01300E-006	0.00000E+000	6.97674E-004	-3.27687E+002	7	...........
	429	430	3.75135E+000	-1.86974E-006	0.00000E+000	-7.01406E-006	0.00000E+000	6.98874E-004	-3.27687E+002	7	...........
	430	431	3.75137E+000	-1.86886E-006	0.00000E+000	-7.01078E-006	0.00000E+000	6.98490E-004	-3.27687E+002	7	...........
	431	432	3.75137E+000	-1.86898E-006	0.00000E+000	-7.01125E-006	0.00000E+000	6.98557E-004	-3.27687E+002	7	...........
	432	433	3.75138E+000	-1.86906E-006	0.00000E+000	-7.01154E-006	0.00000E+000	6.99607E-004	-3.27687E+002	7	...........
	433	434	3.75139E+000	-1.86874E-006	0.00000E+000	-7.01039E-006	0.00000E+000	7.01724E-004	-3.27687E+002	7	...........
	434	435	3.75140E+000	-1.86903E-006	0.00000E+000	-7.01148E-006	0.00000E+000	6.97724E-004	-3.27687E+002	7	...........
	435	436	3.75141E+000	-1.86924E-006	0.00000E+000	-7.01228E-006	0.00000E+000	6.98907E-004	-3.27687E+002	7	...........
	436	437	3.75141E+000	-1.86859E-006	0.00000E+000	-7.00983E-006	0.00000E+000	6.96907E-004	-3.27687E+002	7	...........
	437	438	3.75142E+000	-1.86856E-006	0.00000E+000	-7.00975E-006	0.00000E+000	6.98207E-004	-3.27687E+002	7	...........
	438	439	3.75143E+000	-1.86886E-006	0.00000E+000	-7.01089E-006	0.00000E+000	6.98557E-004	-3.27687E+002	7	...........
	439	440	3.75143E+000	-1.86922E-006	0.00000E+000	-7.01225E-006	0.00000E+000	6.98690E-004	-3.27687E+002	7	...........
	440	441	3.75144E+000	-1.86917E-006	0.00000E+000	-7.01208E-006	0.00000E+000	6.96907E-004	-3.27687E+002	7	...........
	441	442	3.75145E+000	-1.86936E-006	0.00000E+000	-7.01282E-006	0.00000E+000	7.01174E-004	-3.27687E+002	7	...........
	442	443	3.75145E+000	-1.86923E-006	0.00000E+000	-7.01231E-006	0.00000E+000	6.99340E-004	-3.27687E+002	7	...........
	443	444	3.75146E+000	-1.86847E-006	0.00000E+000	-7.00948E-006	0.00000E+000	7.00190E-004	-3.27687E+002	7	...........
	444	445	3.75147E+000	-1.86901E-006	0.00000E+000	-7.01153E-006	0.00000E+000	6.99957E-004	-3.27687E+002	7	...........
	445	446	3.75147E+000	-1.86926E-006	0.00000E+000	-7.01247E-006	0.00000E+000	7.00274E-004	-3.27687E+002	7	...........
	446	447	3.75149E+000	-1.86942E-006	0.00000E+000	-7.01310E-006	0.00000E+000	7.01457E-004	-3.27687E+002	7	...........
	447	448	3.75149E+000	-1.86915E-006	0.00000E+000	-7.01211E-006	0.00000E+000	7.00674E-004	-3.27687E+002	7	...........
	448	449	3.75150E+000	-1.86928E-006	0.00000E+000	-7.01261E-006	0.00000E+000	7.04240E-004	-3.27687E+002	7	...........
	449	450	3.75151E+000	-1.86878E-006	0.00000E+000	-7.01073E-006	0.00000E+000	7.01624E-004	-3.27687E+002	7	...........
	450	451	3.75152E+000	-1.86858E-006	0.00000E+000	-7.01000E-006	0.00000E+000	7.00790E-004	-3.27687E+002	7	...........
	451	452	3.75152E+000	-1.86829E-006	0.00000E+000	-7.00894E-006	0.00000E+000	7.00757E-004	-3.27687E+002	7	...........
	452	453	3.75152E+000	-1.86922E-006	0.00000E+000	-7.01243E-006	0.00000E+000	7.02457E-004	-3.27687E+002	7	...........
	453	454	3.75153E+000	-1.86889E-006	0.00000E+000	-7.01122E-006	0.00000E+000	7.02090E-004	-3.27687E+002	7	...........
	454	455	3.75155E+000	-1.86978E-006	0.00000E+000	-7.01455E-006	0.00000E+000	7.00890E-004	-3.27687E+002	7	...........
	455	456	3.75155E+000	-1.86932E-006	0.00000E+000	-7.01283E-006	0.00000E+000	7.00890E-004	-3.27687E+002	7	...........
	456	457	3.75156E+000	-1.86829E-006	0.00000E+000	-7.00900E-006	0.00000E+000	7.00474E-004	-3.27687E+002	7	...........
	457	458	3.75157E+000	-1.86944E-006	0.00000E+000	-7.01333E-006	0.00000E+000	7.00557E-004	-3.27687E+002	7	...........
	458	459	3.75157E+000	-1.86913E-006	0.00000E+000	-7.01218E-006	0.00000E+000	7.01340E-004	-3.27687E+002	7	...........
	459	460	3.75157E+000	-1.86882E-006	0.00000E+000	-7.01102E-006	0.00000E+000	6.99074E-004	-3.27687E+002	7	...........
	460	461	3.75158E+000	-1.86898E-006	0.00000E+000	-7.01161E-006	0.00000E+000	7.01890E-004	-3.27687E+002	7	...........
	461	462	3.75160E+000	-1.86896E-006	0.00000E+000	-7.01160E-006	0.00000E+000	7.01607E-004	-3.27687E+002	7	...........
	462	463	3.75159E+000	-1.86920E-006	0.00000E+000	-7.01246E-006	0.00000E+000	7.01324E-004	-3.27687E+002	7	...........
	463	464	3.75160E+000	-1.86903E-006	0.00000E+000	-7.01184E-006	0.00000E+000	7.02807E-004	-3.27687E+002	7	...........
	464	465	3.75160E+000	-1.86973E-006	0.00000E+000	-7.01446E-006	0.00000E+000	7.00274E-004	-3.27687E+002	7	...........
	465	466	3.75161E+000	-1.86970E-006	0.00000E+000	-7.01441E-006	0.00000E+000	7.02190E-004	-3.27687E+002	7	...........
	466	467	3.75162E+000	-1.86925E-006	0.00000E+000	-7.01271E-006	0.00000E+000	7.00624E-004	-3.27687E+002	7	...........
	467	468	3.75163E+000	-1.87011E-006	0.00000E+000	-7.01596E-006	0.00000E+000	7.00224E-004	-3.27687E+002	7	...........
	468	469	3.75162E+000	-1.86935E-006	0.00000E+000	-7.01309E-006	0.00000E+000	6.99840E-004	-3.27687E+002	7	...........
	469	470	3.75164E+000	-1.86871E-006	0.00000E+000	-7.01072E-006	0.00000E+000	6.99740E-004	-3.27687E+002	7	...........
	470	471	3.75163E+000	-1.86929E-006	0.00000E+000	-7.01289E-006	0.00000E+000	6.98907E-004	-3.27687E+002	7	...........
	471	472	3.75165E+000	-1.86911E-006	0.00000E+000	-7.01224E-006	0.00000E+000	6.99690E-004	-3.27687E+002	7	...........
	472	473	3.75166E+000	-1.86904E-006	0.00000E+000	-7.01201E-006	0.00000E+000	7.00074E-004	-3.27687E+002	7	...........
	473	474	3.75165E+000	-1.86887E-006	0.00000E+000	-7.01134E-006	0.00000E+000	7.00574E-004	-3.27687E+002	7	...........
	474	475	3.75167E+000	-1.86899E-006	0.00000E+000	-7.01185E-006	0.00000E+000	7.01090E-004	-3.27687E+002	7	...........
	475	476	3.75167E+000	-1.86912E-006	0.00000E+000	-7.01234E-006	0.00000E+000	7.00874E-004	-3.27687E+002	7	...........
	476	477	3.75167E+000	-1.86906E-006	0.00000E+000	-7.01210E-006	0.00000E+000	6.98924E-004	-3.27687E+002	7	...........
	477	478	3.75167E+000	-1.86917E-006	0.00000E+000	-7.01251E-006	0.00000E+000	6.98190E-004	-3.27687E+002	7	...........
	478	479	3.75168E+000	-1.86954E-006	0.00000E+000	-7.01393E-006	0.00000E+000	7.01357E-004	-3.27687E+002	7	...........
	479	480	3.75169E+000	-1.86998E-006	0.00000E+000	-7.01558E-006	0.00000E+000	7.00907E-004	-3.27687E+002	7	...........
	480	481	3.75169E+000	-1.86961E-006	0.00000E+000	-7.01420E-006	0.00000E+000	7.03274E-004	-3.27687E+002	7	...........
	481	482	3.75170E+000	-1.86844E-006	0.00000E+000	-7.00984E-006	0.00000E+000	7.02740E-004	-3.27687E+002	7	...........
	482	483	3.75171E+000	-1.86860E-006	0.00000E+000	-7.01045E-006	0.00000E+000	7.00990E-004	-3.27687E+002	7	...........
	483	484	3.75170E+000	-1.86869E-006	0.00000E+000	-7.01078E-006	0.00000E+000	7.01674E-004	-3.27687E+002	7	...........
	484	485	3.75172E+000	-1.86864E-006	0.00000E+000	-7.01059E-006	0.00000E+000	7.00124E-004	-3.27687E+002	7	...........
	485	486	3.75171E+000	-1.86866E-006	0.00000E+000	-7.01069E-006	0.00000E+000	7.00257E-004	-3.27687E+002	7	...........
	486	487	3.75172E+000	-1.86853E-006	0.00000E+000	-7.01020E-006	0.00000E+000	7.02124E-004	-3.27687E+002	7	...........
	487	488	3.75173E+000	-1.86843E-006	0.00000E+000	-7.00985E-006	0.00000E+000	7.01457E-004	-3.27687E+002	7	...........
	488	489	3.75173E+000	-1.86920E-006	0.00000E+000	-7.01274E-006	0.00000E+000	7.01807E-004	-3.27687E+002	7	...........
	489	490	3.75174E+000	-1.86859E-006	0.00000E+000	-7.01047E-006	0.00000E+000	7.01257E-004	-3.27687E+002	7	...........
	490	491	3.75175E+000	-1.86868E-006	0.00000E+000	-7.01080E-006	0.00000E+000	7.01390E-004	-3.27687E+002	7	...........
	491	492	3.75175E+000	-1.86868E-006	0.00000E+000	-7.01082E-006	0.00000E+000	7.00807E-004	-3.27687E+002	7	...........
	492	493	3.75176E+000	-1.86894E-006	0.00000E+000	-7.01182E-006	0.00000E+000	7.03224E-004	-3.27687E+002	7	...........
	493	494	3.75176E+000	-1.86826E-006	0.00000E+000	-7.00927E-006	0.00000E+000	7.01390E-004	-3.27687E+002	7	...........
	494	495	3.75178E+000	-1.86739E-006	0.00000E+000	-7.00603E-006	0.00000E+000	6.99757E-004	-3.27687E+002	7	...........
	495	496	3.75178E+000	-1.86843E-006	0.00000E+000	-7.00995E-006	0.00000E+000	7.01357E-004	-3.27687E+002	7	...........
	496	497	3.75178E+000	-1.86903E-006	0.00000E+000	-7.01220E-006	0.00000E+000	6.98357E-004	-3.27687E+002	7	...........
	497	498	3.75179E+000	-1.86835E-006	0.00000E+000	-7.00965E-006	0.00000E+000	7.01457E-004	-3.27687E+002	7	...........
	498	499	3.75179E+000	-1.86885E-006	0.00000E+000	-7.01153E-006	0.00000E+000	7.01290E-004	-3.27687E+002	7	...........
	499	500	3.75180E+000	-1.86875E-006	0.00000E+000	-7.01118E-006	0.00000E+000	6.98390E-004	-3.27687E+002	7	...........
	500	501	3.75182E+000	-1.86893E-006	0.00000E+000	-7.01190E-006	0.00000E+000	7.03290E-004	-3.27687E+002	7	...........
	501	502	3.75181E+000	-1.86937E-006	0.00000E+000	-7.01353E-006	0.00000E+000	7.01174E-004	-3.27687E+002	7	...........
	502	503	3.75181E+000	-1.86900E-006	0.00000E+000	-7.01214E-006	0.00000E+000	6.99174E-004	-3.27687E+002	7	...........
	503	504	3.75183E+000	-1.86935E-006	0.00000E+000	-7.01350E-006	0.00000E+000	7.00790E-004	-3.27687E+002	7	...........
	504	505	3.75183E+000	-1.86968E-006	0.00000E+000	-7.01473E-006	0.00000E+000	7.03090E-004	-3.27687E+002	7	...........
	505	506	3.75183E+000	-1.86911E-006	0.00000E+000	-7.01261E-006	0.00000E+000	7.02757E-004	-3.27687E+002	7	...........
	506	507	3.75185E+000	-1.86890E-006	0.00000E+000	-7.01183E-006	0.00000E+000	7.00324E-004	-3.27687E+002	7	...........
	507	508	3.75185E+000	-1.86817E-006	0.00000E+000	-7.00911E-006	0.00000E+000	7.01424E-004	-3.27687E+002	7	...........
	508	509	3.75186E+000	-1.86881E-006	0.00000E+000	-7.01152E-006	0.00000E+000	7.01190E-004	-3.27687E+002	7	...........
	509	510	3.75186E+000	-1.86859E-006	0.00000E+000	-7.01070E-006	0.00000E+000	7.01090E-004	-3.27687E+002	7	...........
	510	511	3.75187E+000	-1.86839E-006	0.00000E+000	-7.00996E-006	0.00000E+000	7.01374E-004	-3.27687E+002	7	...........
	511	512	3.75187E+000	-1.86807E-006	0.00000E+000	-7.00875E-006	0.00000E+000	7.03040E-004	-3.27687E+002	7	...........
	512	513	3.75187E+000	-1.86825E-006	0.00000E+000	-7.00944E-006	0.00000E+000	7.01007E-004	-3.27687E+002	7	...........
	513	514	3.75188E+000	-1.86803E-006	0.00000E+000	-7.00861E-006	0.00000E+000	7.04757E-004	-3.27687E+002	7	...........
	514	515	3.75189E+000	-1.86804E-006	0.00000E+000	-7.00867E-006	0.00000E+000	7.01174E-004	-3.27687E+002	7	...........
	515	516	3.75189E+000	-1.86787E-006	0.00000E+000	-7.00803E-006	0.00000E+000	7.02707E-004	-3.27687E+002	7	...........
	516	517	3.75190E+000	-1.86795E-006	0.00000E+000	-7.00837E-006	0.00000E+000	7.03624E-004	-3.27687E+002	7	...........
	517	518	3.75190E+000	-1.86818E-006	0.00000E+000	-7.00921E-006	0.00000E+000	7.03007E-004	-3.27687E+002	7	...........
	518	519	3.75191E+000	-1.86828E-006	0.00000E+000	-7.00963E-006	0.00000E+000	7.01140E-004	-3.27687E+002	7	...........
	519	520	3.75191E+000	-1.86779E-006	0.00000E+000	-7.00780E-006	0.00000E+000	7.03574E-004	-3.27687E+002	7	...........
	520	521	3.75191E+000	-1.86723E-006	0.00000E+000	-7.00568E-006	0.00000E+000	7.02374E-004	-3.27687E+002	7	...........
	521	522	3.75192E+000	-1.86778E-006	0.00000E+000	-7.00779E-006	0.00000E+000	7.01057E-004	-3.27687E+002	7	...........
	522	523	3.75192E+000	-1.86794E-006	0.00000E+000	-7.00836E-006	0.00000E+000	7.00374E-004	-3.27687E+002	7	...........
	523	524	3.75193E+000	-1.86737E-006	0.00000E+000	-7.00622E-006	0.00000E+000	7.01674E-004	-3.27687E+002	7	...........
	524	525	3.75194E+000	-1.86772E-006	0.00000E+000	-7.00758E-006	0.00000E+000	7.00057E-004	-3.27687E+002	7	...........
	525	526	3.75194E+000	-1.86776E-006	0.00000E+000	-7.00771E-006	0.00000E+000	7.03890E-004	-3.27687E+002	7	...........
	526	527	3.75196E+000	-1.86824E-006	0.00000E+000	-7.00957E-006	0.00000E+000	7.01974E-004	-3.27687E+002	7	...........
	527	528	3.75196E+000	-1.86877E-006	0.00000E+000	-7.01153E-006	0.00000E+000	7.04424E-004	-3.27687E+002	7	...........
	528	529	3.75197E+000	-1.86848E-006	0.00000E+000	-7.01047E-006	0.00000E+000	7.07124E-004	-3.27687E+002	7	...........
	529	530	3.75197E+000	-1.86874E-006	0.00000E+000	-7.01145E-006	0.00000E+000	7.02340E-004	-3.27687E+002	7	...........
	530	531	3.75198E+000	-1.86794E-006	0.00000E+000	-7.00848E-006	0.00000E+000	7.02624E-004	-3.27687E+002	7	...........
	531	532	3.75198E+000	-1.86804E-006	0.00000E+000	-7.00885E-006	0.00000E+000	7.03657E-004	-3.27687E+002	7	...........
	532	533	3.75199E+000	-1.86722E-006	0.00000E+000	-7.00578E-006	0.00000E+000	7.04240E-004	-3.27687E+002	7	...........
	533	534	3.75199E+000	-1.86785E-006	0.00000E+000	-7.00817E-006	0.00000E+000	7.03590E-004	-3.27687E+002	7	...........
	534	535	3.75199E+000	-1.86791E-006	0.00000E+000	-7.00838E-006	0.00000E+000	7.04357E-004	-3.27687E+002	7	...........
	535	536	3.75200E+000	-1.86880E-006	0.00000E+000	-7.01173E-006	0.00000E+000	7.04224E-004	-3.27687E+002	7	...........
	536	537	3.75201E+000	-1.86805E-006	0.00000E+000	-7.00896E-006	0.00000E+000	7.04407E-004	-3.27687E+002	7	...........
	537	538	3.75201E+000	-1.86765E-006	0.00000E+000	-7.00744E-006	0.00000E+000	7.03257E-004	-3.27687E+002	7	...........
	538	539	3.75202E+000	-1.86814E-006	0.00000E+000	-7.00929E-006	0.00000E+000	7.01524E-004	-3.27687E+002	7	...........
	539	540	3.75202E+000	-1.86861E-006	0.00000E+000	-7.01108E-006	0.00000E+000	7.02540E-004	-3.27687E+002	7	...........
	540	541	3.75202E+000	-1.86856E-006	0.00000E+000	-7.01090E-006	0.00000E+000	7.00424E-004	-3.27687E+002	7	...........
	541	542	3.75203E+000	-1.86842E-006	0.00000E+000	-7.01038E-006	0.00000E+000	7.00890E-004	-3.27687E+002	7	...........
	542	543	3.75204E+000	-1.86832E-006	0.00000E+000	-7.01002E-006	0.00000E+000	6.99740E-004	-3.27687E+002	7	...........
	543	544	3.75205E+000	-1.86895E-006	0.00000E+000	-7.01238E-006	0.00000E+000	7.03190E-004	-3.27687E+002	7	...........
	544	545	3.75206E+000	-1.86859E-006	0.00000E+000	-7.01107E-006	0.00000E+000	7.01857E-004	-3.27687E+002	7	...........
	545	546	3.75206E+000	-1.86823E-006	0.00000E+000	-7.00971E-006	0.00000E+000	7.03174E-004	-3.27687E+002	7	...........
	546	547	3.75206E+000	-1.86884E-006	0.00000E+000	-7.01200E-006	0.00000E+000	7.01240E-004	-3.27687E+002	7	...........
	547	548	3.75208E+000	-1.86912E-006	0.00000E+000	-7.01307E-006	0.00000E+000	7.01240E-004	-3.27687E+002	7	...........
	548	549	3.75208E+000	-1.86857E-006	0.00000E+000	-7.01101E-006	0.00000E+000	7.00974E-004	-3.27687E+002	7	...........
	549	550	3.75209E+000	-1.86822E-006	0.00000E+000	-7.00973E-006	0.00000E+000	7.00157E-004	-3.27687E+002	7	...........
	550	551	3.75211E+000	-1.86801E-006	0.00000E+000	-7.00897E-006	0.00000E+000	6.99474E-004	-3.27687E+002	7	...........
	551	552	3.75211E+000	-1.86850E-006	0.00000E+000	-7.01081E-006	0.00000E+000	7.00757E-004	-3.27687E+002	7	...........
	552	553	3.75210E+000	-1.86859E-006	0.00000E+000	-7.01115E-006	0.00000E+000	7.01124E-004	-3.27687E+002	7	...........
	553	554	3.75212E+000	-1.86842E-006	0.00000E+000	-7.01052E-006	0.00000E+000	7.01740E-004	-3.27687E+002	7	...........
	554	555	3.75213E+000	-1.86791E-006	0.00000E+000	-7.00862E-006	0.00000E+000	7.02224E-004	-3.27687E+002	7	...........
	555	556	3.75213E+000	-1.86834E-006	0.00000E+000	-7.01027E-006	0.00000E+000	7.00840E-004	-3.27687E+002	7	...........
	556	557	3.75214E+000	-1.86870E-006	0.00000E+000	-7.01164E-006	0.00000E+000	7.00924E-004	-3.27687E+002	7	...........
	557	558	3.75214E+000	-1.86803E-006	0.00000E+000	-7.00910E-006	0.00000E+000	7.02174E-004	-3.27687E+002	7	...........
	558	559	3.75214E+000	-1.86756E-006	0.00000E+000	-7.00735E-006	0.00000E+000	6.98657E-004	-3.27687E+002	7	...........
	559	560	3.75216E+000	-1.86779E-006	0.00000E+000	-7.00823E-006	0.00000E+000	6.99057E-004	-3.27687E+002	7	...........
	560	561	3.75217E+000	-1.86792E-006	0.00000E+000	-7.00873E-006	0.00000E+000	7.00057E-004	-3.27687E+002	7	...........
	561	562	3.75218E+000	-1.86864E-006	0.00000E+000	-7.01148E-006	0.00000E+000	7.00074E-004	-3.27687E+002	7	...........
	562	563	3.75219E+000	-1.86804E-006	0.00000E+000	-7.00926E-006	0.00000E+000	6.98324E-004	-3.27687E+002	7	...........
	563	564	3.75219E+000	-1.86795E-006	0.00000E+000	-7.00891E-006	0.00000E+000	6.99207E-004	-3.27687E+002	7	...........
	564	565	3.75219E+000	-1.86823E-006	0.00000E+000	-7.00996E-006	0.00000E+000	7.00190E-004	-3.27687E+002	7	...........
	565	566	3.75221E+000	-1.86843E-006	0.00000E+000	-7.01074E-006	0.00000E+000	7.01024E-004	-3.27687E+002	7	...........
	566	567	3.75221E+000	-1.86822E-006	0.00000E+000	-7.00997E-006	0.00000E+000	6.95807E-004	-3.27687E+002	7	...........
	567	568	3.75222E+000	-1.86871E-006	0.00000E+000	-7.01183E-006	0.00000E+000	6.98707E-004	-3.27687E+002	7	...........
	568	569	3.75223E+000	-1.86844E-006	0.00000E+000	-7.01081E-006	0.00000E+000	7.00224E-004	-3.27687E+002	7	...........
	569	570	3.75224E+000	-1.86830E-006	0.00000E+000	-7.01029E-006	0.00000E+000	6.98174E-004	-3.27687E+002	7	...........
	570	571	3.75224E+000	-1.86774E-006	0.00000E+000	-7.00819E-006	0.00000E+000	6.97007E-004	-3.27687E+002	7	...........
	571	572	3.75224E+000	-1.86661E-006	0.00000E+000	-7.00397E-006	0.00000E+000	6.99607E-004	-3.27687E+002	7	...........
	572	573	3.75225E+000	-1.86742E-006	0.00000E+000	-7.00701E-006	0.00000E+000	6.95940E-004	-3.27687E+002	7	...........
	573	574	3.75226E+000	-1.86752E-006	0.00000E+000	-7.00742E-006	0.00000E+000	6.97390E-004	-3.27687E+002	7	...........
	574	575	3.75226E+000	-1.86794E-006	0.00000E+000	-7.00902E-006	0.00000E+000	7.01174E-004	-3.27687E+002	7	...........
	575	576	3.75226E+000	-1.86787E-006	0.00000E+000	-7.00875E-006	0.00000E+000	6.96024E-004	-3.27687E+002	7	...........
	576	577	3.75227E+000	-1.86759E-006	0.00000E+000	-7.00771E-006	0.00000E+000	6.97757E-004	-3.27687E+002	7	...........
	577	578	3.75229E+000	-1.86833E-006	0.00000E+000	-7.01052E-006	0.00000E+000	6.98874E-004	-3.27687E+002	7	...........
	578	579	3.75229E+000	-1.86812E-006	0.00000E+000	-7.00975E-006	0.00000E+000	6.97774E-004	-3.27687E+002	7	...........
	579	580	3.75230E+000	-1.86863E-006	0.00000E+000	-7.01164E-006	0.00000E+000	6.97090E-004	-3.27687E+002	7	...........
	580	581	3.75229E+000	-1.86818E-006	0.00000E+000	-7.00997E-006	0.00000E+000	7.01324E-004	-3.27687E+002	7	...........
	581	582	3.75231E+000	-1.86786E-006	0.00000E+000	-7.00880E-006	0.00000E+000	6.97524E-004	-3.27687E+002	7	...........
	582	583	3.75231E+000	-1.86821E-006	0.00000E+000	-7.01012E-006	0.00000E+000	6.96107E-004	-3.27687E+002	7	...........
	583	584	3.75234E+000	-1.86783E-006	0.00000E+000	-7.00872E-006	0.00000E+000	6.96557E-004	-3.27687E+002	7	...........
	584	585	3.75234E+000	-1.86803E-006	0.00000E+000	-7.00946E-006	0.00000E+000	6.96874E-004	-3.27687E+002	7	...........
	585	586	3.75234E+000	-1.86824E-006	0.00000E+000	-7.01026E-006	0.00000E+000	6.98174E-004	-3.27687E+002	7	...........
	586	587	3.75234E+000	-1.86807E-006	0.00000E+000	-7.00964E-006	0.00000E+000	6.97724E-004	-3.27687E+002	7	...........
	587	588	3.75235E+000	-1.86806E-006	0.00000E+000	-7.00960E-006	0.00000E+000	6.96057E-004	-3.27687E+002	7	...........
	588	589	3.75235E+000	-1.86800E-006	0.00000E+000	-7.00941E-006	0.00000E+000	6.97524E-004	-3.27687E+002	7	...........
	589	590	3.75236E+000	-1.86780E-006	0.00000E+000	-7.00865E-006	0.00000E+000	6.96040E-004	-3.27687E+002	7	...........
	590	591	3.75235E+000	-1.86778E-006	0.00000E+000	-7.00857E-006	0.00000E+000	6.97557E-004	-3.27687E+002	7	...........
	591	592	3.75238E+000	-1.86774E-006	0.00000E+000	-7.00847E-006	0.00000E+000	6.99540E-004	-3.27687E+002	7	...........
	592	593	3.75237E+000	-1.86826E-006	0.00000E+000	-7.01041E-006	0.00000E+000	6.95407E-004	-3.27687E+002	7	...........
	593	594	3.75239E+000	-1.86825E-006	0.00000E+000	-7.01040E-006	0.00000E+000	6.99190E-004	-3.27687E+002	7	...........
	594	595	3.75239E+000	-1.86856E-006	0.00000E+000	-7.01159E-006	0.00000E+000	6.97707E-004	-3.27687E+002	7	...........
	595	596	3.75240E+000	-1.86828E-006	0.00000E+000	-7.01053E-006	0.00000E+000	6.98024E-004	-3.27687E+002	7	...........
	596	597	3.75242E+000	-1.86821E-006	0.00000E+000	-7.01029E-006	0.00000E+000	6.99924E-004	-3.27687E+002	7	...........
	597	598	3.75242E+000	-1.86708E-006	0.00000E+000	-7.00607E-006	0.00000E+000	6.96024E-004	-3.27687E+002	7	...........
	598	599	3.75242E+000	-1.86742E-006	0.00000E+000	-7.00734E-006	0.00000E+000	6.98507E-004	-3.27687E+002	7	...........
	599	600	3.75242E+000	-1.86784E-006	0.00000E+000	-7.00892E-006	0.00000E+000	6.97424E-004	-3.27687E+002	7	...........
