EXPLAIN
TAG	PWR800_READVOLTAGE
TITLE	LABEL	PWR Read Voltage	Test Identifier
DATE	LABEL	25.5.2024	Date
TIME	LABEL	5:35:31	Time
NOTES	NOTES	1	Notes...
	
PSTAT	PSTAT	REF600-12055	Potentiostat
CAPACITY	QUANT	1.00000E+000	Capacity (A-hr)
CELLTYPE	SELECTOR	1	Cell Type
WORKINGCONNECTION	SELECTOR	0	Working Connection
MAXTIME	VARIABLEANDUNITS	6.00000E+002	s	6.00000E+002	second(s)	Max Time
SAMPLETIME	QUANT	1.00000E+000	Sample Period (s)
STOPAT1	MULTIPARAM	0	0.00000E+000	Stop At 1	None	N/A
STOPAT2	MULTIPARAM	0	0.00000E+000	Stop At 2	None	N/A
AESBHCSELECTOR	TOGGLE	F	Save Both Half Cells
EOC	QUANT	3.752423	Open Circuit (V)
SEQUENCER	TOGGLE	TRUE	Run as Sequence
PSTATMODEL	IQUANT	4	Pstat Model
PSTATSECTION	LABEL	REF600-12055	Pstat Section
PSTATSERIALNO	LABEL	12055	Pstat Serial Number
CTRLMODE	IQUANT	0	Control Mode
ELECTROMETER	IQUANT	0	RE=0 or CS=1
IESTAB	IQUANT	0	I/E Stability
CASPEED	IQUANT	4	Control Amp Speed
CONVENTION	IQUANT	1	Current Convention
ICHRANGE	IQUANT	2	Ich Range
ICHRANGEMODE	TOGGLE	T	Ich Auto Range
ICHOFFSETENABLE	TOGGLE	F	Ich Offset Enable
ICHOFFSET	QUANT	0	Ich Offset (V)
ICHFILTER	IQUANT	1	Ich Filter
VCHRANGE	IQUANT	3	Vch Range
VCHRANGEMODE	TOGGLE	T	Vch Auto Range
VCHOFFSETENABLE	TOGGLE	F	Vch Offset Enable
VCHOFFSET	QUANT	0	Vch Offset (V)
VCHFILTER	IQUANT	1	Vch Filter
ACHRANGE	IQUANT	2	Ach Range
ACHOFFSETENABLE	TOGGLE	F	Ach Offset Enable
ACHOFFSET	QUANT	0	Ach Offset (V)
ACHFILTER	IQUANT	1	Ach Filter
IERANGELOWERLIMIT	IQUANT	7	I/E Range Lower Limit
IERANGEMODE	TOGGLE	F	I/E AutoRange
IERANGE	IQUANT	11	I/E Range
POSFEEDENABLE	TOGGLE	F	Positive Feedback IR Comp
POSFEEDRESISTANCE	QUANT	0	Positive Feedback Resistance (ohm)
ACHSELECT	IQUANT	4	Ach Select
SENSECABLEID	IQUANT	14	Sense Cable ID
PWRCABLEID	IQUANT	14	Power Cable ID
DCCALDATE	LABEL	2/12/2024	DC Calibration Date
ACCALDATE	LABEL	2/12/2024	AC Calibration Date
THERMOSELECT	IQUANT	1	Thermo Select
FRAMEWORKVERSION	LABEL	7.10.3	Framework Version
INSTRUMENTVERSION	LABEL	4.91	Instrument Version
COMMVERSION	LABEL	2.24	Communications Version
CPUPLDVERSION	LABEL	0.00	CPU PLD Version
CTRLPLDVERSION	LABEL	0.00	CTRL PLD Version
PSTATPLDVERSION	LABEL	0.00	PSTAT PLD Version
CURVE	TABLE	600
	Pt	T	Vf	Im	Vu	Pwr	Sig	Ach	Temp	IERange	Over
	#	s	V	A	V	W	V	V	deg C	#	bits
	0	1	3.65510E+000	1.65655E-006	0.00000E+000	6.05486E-006	0.00000E+000	9.83524E-004	-3.27687E+002	7	...........
	1	2	3.65533E+000	1.65585E-006	0.00000E+000	6.05269E-006	0.00000E+000	9.85607E-004	-3.27687E+002	7	...........
	2	3	3.65549E+000	1.65575E-006	0.00000E+000	6.05259E-006	0.00000E+000	9.90474E-004	-3.27687E+002	7	...........
	3	4	3.65561E+000	1.65516E-006	0.00000E+000	6.05063E-006	0.00000E+000	9.94124E-004	-3.27687E+002	7	...........
	4	5	3.65573E+000	1.65511E-006	0.00000E+000	6.05062E-006	0.00000E+000	9.92040E-004	-3.27687E+002	7	...........
	5	6	3.65582E+000	1.65474E-006	0.00000E+000	6.04941E-006	0.00000E+000	9.94940E-004	-3.27687E+002	7	...........
	6	7	3.65591E+000	1.65422E-006	0.00000E+000	6.04768E-006	0.00000E+000	9.94290E-004	-3.27687E+002	7	...........
	7	8	3.65600E+000	1.65357E-006	0.00000E+000	6.04547E-006	0.00000E+000	9.94507E-004	-3.27687E+002	7	...........
	8	9	3.65609E+000	1.65373E-006	0.00000E+000	6.04617E-006	0.00000E+000	9.91474E-004	-3.27687E+002	7	...........
	9	10	3.65618E+000	1.65394E-006	0.00000E+000	6.04709E-006	0.00000E+000	9.91590E-004	-3.27687E+002	7	...........
	10	11	3.65627E+000	1.65421E-006	0.00000E+000	6.04823E-006	0.00000E+000	9.87474E-004	-3.27687E+002	7	...........
	11	12	3.65636E+000	1.65322E-006	0.00000E+000	6.04475E-006	0.00000E+000	9.88190E-004	-3.27687E+002	7	...........
	12	13	3.65644E+000	1.65279E-006	0.00000E+000	6.04334E-006	0.00000E+000	9.88024E-004	-3.27687E+002	7	...........
	13	14	3.65651E+000	1.65214E-006	0.00000E+000	6.04108E-006	0.00000E+000	9.88157E-004	-3.27687E+002	7	...........
	14	15	3.65657E+000	1.65248E-006	0.00000E+000	6.04241E-006	0.00000E+000	9.86824E-004	-3.27687E+002	7	...........
	15	16	3.65665E+000	1.65238E-006	0.00000E+000	6.04217E-006	0.00000E+000	9.88240E-004	-3.27687E+002	7	...........
	16	17	3.65671E+000	1.65126E-006	0.00000E+000	6.03820E-006	0.00000E+000	9.89724E-004	-3.27687E+002	7	...........
	17	18	3.65677E+000	1.65121E-006	0.00000E+000	6.03809E-006	0.00000E+000	9.90307E-004	-3.27687E+002	7	...........
	18	19	3.65685E+000	1.65091E-006	0.00000E+000	6.03712E-006	0.00000E+000	9.88307E-004	-3.27687E+002	7	...........
	19	20	3.65691E+000	1.65052E-006	0.00000E+000	6.03581E-006	0.00000E+000	9.90707E-004	-3.27687E+002	7	...........
	20	21	3.65697E+000	1.65032E-006	0.00000E+000	6.03516E-006	0.00000E+000	8.27890E-004	-3.27687E+002	7	...........
	21	22	3.65704E+000	1.65027E-006	0.00000E+000	6.03511E-006	0.00000E+000	7.54024E-004	-3.27687E+002	7	...........
	22	23	3.65709E+000	1.65042E-006	0.00000E+000	6.03572E-006	0.00000E+000	7.55307E-004	-3.27687E+002	7	...........
	23	24	3.65713E+000	1.65000E-006	0.00000E+000	6.03428E-006	0.00000E+000	7.54607E-004	-3.27687E+002	7	...........
	24	25	3.65718E+000	1.65033E-006	0.00000E+000	6.03554E-006	0.00000E+000	7.56974E-004	-3.27687E+002	7	...........
	25	26	3.65723E+000	1.64949E-006	0.00000E+000	6.03255E-006	0.00000E+000	7.58640E-004	-3.27687E+002	7	...........
	26	27	3.65727E+000	1.64975E-006	0.00000E+000	6.03360E-006	0.00000E+000	7.57607E-004	-3.27687E+002	7	...........
	27	28	3.65732E+000	1.64909E-006	0.00000E+000	6.03125E-006	0.00000E+000	7.58990E-004	-3.27687E+002	7	...........
	28	29	3.65737E+000	1.64958E-006	0.00000E+000	6.03313E-006	0.00000E+000	7.58524E-004	-3.27687E+002	7	...........
	29	30	3.65741E+000	1.64935E-006	0.00000E+000	6.03237E-006	0.00000E+000	7.52924E-004	-3.27687E+002	7	...........
	30	31	3.65747E+000	1.64902E-006	0.00000E+000	6.03123E-006	0.00000E+000	7.54174E-004	-3.27687E+002	7	...........
	31	32	3.65753E+000	1.64814E-006	0.00000E+000	6.02810E-006	0.00000E+000	7.51957E-004	-3.27687E+002	7	...........
	32	33	3.65758E+000	1.64780E-006	0.00000E+000	6.02696E-006	0.00000E+000	7.53240E-004	-3.27687E+002	7	...........
	33	34	3.65763E+000	1.64766E-006	0.00000E+000	6.02654E-006	0.00000E+000	7.50857E-004	-3.27687E+002	7	...........
	34	35	3.65768E+000	1.64872E-006	0.00000E+000	6.03048E-006	0.00000E+000	7.50007E-004	-3.27687E+002	7	...........
	35	36	3.65774E+000	1.64793E-006	0.00000E+000	6.02771E-006	0.00000E+000	7.48490E-004	-3.27687E+002	7	...........
	36	37	3.65779E+000	1.64760E-006	0.00000E+000	6.02658E-006	0.00000E+000	7.45024E-004	-3.27687E+002	7	...........
	37	38	3.65784E+000	1.64699E-006	0.00000E+000	6.02443E-006	0.00000E+000	7.42857E-004	-3.27687E+002	7	...........
	38	39	3.65788E+000	1.64696E-006	0.00000E+000	6.02438E-006	0.00000E+000	7.41607E-004	-3.27687E+002	7	...........
	39	40	3.65793E+000	1.64732E-006	0.00000E+000	6.02580E-006	0.00000E+000	7.40790E-004	-3.27687E+002	7	...........
	40	41	3.65798E+000	1.64689E-006	0.00000E+000	6.02429E-006	0.00000E+000	7.39990E-004	-3.27687E+002	7	...........
	41	42	3.65801E+000	1.64658E-006	0.00000E+000	6.02320E-006	0.00000E+000	7.38090E-004	-3.27687E+002	7	...........
	42	43	3.65806E+000	1.64636E-006	0.00000E+000	6.02248E-006	0.00000E+000	7.37224E-004	-3.27687E+002	7	...........
	43	44	3.65810E+000	1.64610E-006	0.00000E+000	6.02161E-006	0.00000E+000	7.37757E-004	-3.27687E+002	7	...........
	44	45	3.65814E+000	1.64597E-006	0.00000E+000	6.02120E-006	0.00000E+000	7.38440E-004	-3.27687E+002	7	...........
	45	46	3.65818E+000	1.64657E-006	0.00000E+000	6.02345E-006	0.00000E+000	7.35890E-004	-3.27687E+002	7	...........
	46	47	3.65822E+000	1.64668E-006	0.00000E+000	6.02391E-006	0.00000E+000	7.32107E-004	-3.27687E+002	7	...........
	47	48	3.65826E+000	1.64619E-006	0.00000E+000	6.02219E-006	0.00000E+000	7.34224E-004	-3.27687E+002	7	...........
	48	49	3.65830E+000	1.64585E-006	0.00000E+000	6.02102E-006	0.00000E+000	7.35657E-004	-3.27687E+002	7	...........
	49	50	3.65834E+000	1.64544E-006	0.00000E+000	6.01956E-006	0.00000E+000	7.33657E-004	-3.27687E+002	7	...........
	50	51	3.65837E+000	1.64552E-006	0.00000E+000	6.01993E-006	0.00000E+000	7.35774E-004	-3.27687E+002	7	...........
	51	52	3.65840E+000	1.64587E-006	0.00000E+000	6.02125E-006	0.00000E+000	7.33340E-004	-3.27687E+002	7	...........
	52	53	3.65844E+000	1.64535E-006	0.00000E+000	6.01942E-006	0.00000E+000	7.37590E-004	-3.27687E+002	7	...........
	53	54	3.65847E+000	1.64462E-006	0.00000E+000	6.01679E-006	0.00000E+000	7.35524E-004	-3.27687E+002	7	...........
	54	55	3.65851E+000	1.64473E-006	0.00000E+000	6.01724E-006	0.00000E+000	7.35124E-004	-3.27687E+002	7	...........
	55	56	3.65854E+000	1.64453E-006	0.00000E+000	6.01656E-006	0.00000E+000	7.36907E-004	-3.27687E+002	7	...........
	56	57	3.65858E+000	1.64417E-006	0.00000E+000	6.01531E-006	0.00000E+000	7.39274E-004	-3.27687E+002	7	...........
	57	58	3.65860E+000	1.64457E-006	0.00000E+000	6.01682E-006	0.00000E+000	7.41007E-004	-3.27687E+002	7	...........
	58	59	3.65864E+000	1.64504E-006	0.00000E+000	6.01860E-006	0.00000E+000	7.37707E-004	-3.27687E+002	7	...........
	59	60	3.65867E+000	1.64473E-006	0.00000E+000	6.01751E-006	0.00000E+000	7.33874E-004	-3.27687E+002	7	...........
	60	61	3.65869E+000	1.64378E-006	0.00000E+000	6.01407E-006	0.00000E+000	7.34790E-004	-3.27687E+002	7	...........
	61	62	3.65872E+000	1.64413E-006	0.00000E+000	6.01541E-006	0.00000E+000	7.36724E-004	-3.27687E+002	7	...........
	62	63	3.65876E+000	1.64453E-006	0.00000E+000	6.01694E-006	0.00000E+000	7.37707E-004	-3.27687E+002	7	...........
	63	64	3.65878E+000	1.64414E-006	0.00000E+000	6.01554E-006	0.00000E+000	7.39524E-004	-3.27687E+002	7	...........
	64	65	3.65881E+000	1.64359E-006	0.00000E+000	6.01357E-006	0.00000E+000	7.37057E-004	-3.27687E+002	7	...........
	65	66	3.65884E+000	1.64282E-006	0.00000E+000	6.01080E-006	0.00000E+000	7.38557E-004	-3.27687E+002	7	...........
	66	67	3.65887E+000	1.64330E-006	0.00000E+000	6.01261E-006	0.00000E+000	7.40024E-004	-3.27687E+002	7	...........
	67	68	3.65889E+000	1.64270E-006	0.00000E+000	6.01046E-006	0.00000E+000	7.37807E-004	-3.27687E+002	7	...........
	68	69	3.65893E+000	1.64332E-006	0.00000E+000	6.01278E-006	0.00000E+000	7.38490E-004	-3.27687E+002	7	...........
	69	70	3.65896E+000	1.64342E-006	0.00000E+000	6.01320E-006	0.00000E+000	7.40107E-004	-3.27687E+002	7	...........
	70	71	3.65899E+000	1.64382E-006	0.00000E+000	6.01470E-006	0.00000E+000	7.38790E-004	-3.27687E+002	7	...........
	71	72	3.65901E+000	1.64388E-006	0.00000E+000	6.01497E-006	0.00000E+000	7.38174E-004	-3.27687E+002	7	...........
	72	73	3.65904E+000	1.64353E-006	0.00000E+000	6.01373E-006	0.00000E+000	7.38874E-004	-3.27687E+002	7	...........
	73	74	3.65907E+000	1.64280E-006	0.00000E+000	6.01113E-006	0.00000E+000	7.39190E-004	-3.27687E+002	7	...........
	74	75	3.65910E+000	1.64283E-006	0.00000E+000	6.01128E-006	0.00000E+000	7.38674E-004	-3.27687E+002	7	...........
	75	76	3.65913E+000	1.64323E-006	0.00000E+000	6.01277E-006	0.00000E+000	7.40257E-004	-3.27687E+002	7	...........
	76	77	3.65916E+000	1.64300E-006	0.00000E+000	6.01198E-006	0.00000E+000	7.40540E-004	-3.27687E+002	7	...........
	77	78	3.65918E+000	1.64293E-006	0.00000E+000	6.01179E-006	0.00000E+000	7.37924E-004	-3.27687E+002	7	...........
	78	79	3.65921E+000	1.64298E-006	0.00000E+000	6.01199E-006	0.00000E+000	7.40274E-004	-3.27687E+002	7	...........
	79	80	3.65923E+000	1.64219E-006	0.00000E+000	6.00915E-006	0.00000E+000	7.39674E-004	-3.27687E+002	7	...........
	80	81	3.65926E+000	1.64205E-006	0.00000E+000	6.00870E-006	0.00000E+000	7.36540E-004	-3.27687E+002	7	...........
	81	82	3.65929E+000	1.64167E-006	0.00000E+000	6.00736E-006	0.00000E+000	7.36140E-004	-3.27687E+002	7	...........
	82	83	3.65932E+000	1.64241E-006	0.00000E+000	6.01012E-006	0.00000E+000	7.37124E-004	-3.27687E+002	7	...........
	83	84	3.65934E+000	1.64249E-006	0.00000E+000	6.01043E-006	0.00000E+000	7.35640E-004	-3.27687E+002	7	...........
	84	85	3.65936E+000	1.64269E-006	0.00000E+000	6.01119E-006	0.00000E+000	7.39540E-004	-3.27687E+002	7	...........
	85	86	3.65939E+000	1.64221E-006	0.00000E+000	6.00950E-006	0.00000E+000	7.38890E-004	-3.27687E+002	7	...........
	86	87	3.65941E+000	1.64255E-006	0.00000E+000	6.01077E-006	0.00000E+000	7.36507E-004	-3.27687E+002	7	...........
	87	88	3.65944E+000	1.64285E-006	0.00000E+000	6.01190E-006	0.00000E+000	7.36390E-004	-3.27687E+002	7	...........
	88	89	3.65946E+000	1.64273E-006	0.00000E+000	6.01151E-006	0.00000E+000	7.40407E-004	-3.27687E+002	7	...........
	89	90	3.65949E+000	1.64201E-006	0.00000E+000	6.00892E-006	0.00000E+000	7.40790E-004	-3.27687E+002	7	...........
	90	91	3.65952E+000	1.64211E-006	0.00000E+000	6.00933E-006	0.00000E+000	7.36590E-004	-3.27687E+002	7	...........
	91	92	3.65953E+000	1.64201E-006	0.00000E+000	6.00899E-006	0.00000E+000	7.37174E-004	-3.27687E+002	7	...........
	92	93	3.65955E+000	1.64146E-006	0.00000E+000	6.00701E-006	0.00000E+000	7.38224E-004	-3.27687E+002	7	...........
	93	94	3.65956E+000	1.64178E-006	0.00000E+000	6.00821E-006	0.00000E+000	7.35457E-004	-3.27687E+002	7	...........
	94	95	3.65958E+000	1.64254E-006	0.00000E+000	6.01100E-006	0.00000E+000	7.37057E-004	-3.27687E+002	7	...........
	95	96	3.65960E+000	1.64308E-006	0.00000E+000	6.01302E-006	0.00000E+000	7.37674E-004	-3.27687E+002	7	...........
	96	97	3.65962E+000	1.64231E-006	0.00000E+000	6.01023E-006	0.00000E+000	7.40724E-004	-3.27687E+002	7	...........
	97	98	3.65963E+000	1.64156E-006	0.00000E+000	6.00752E-006	0.00000E+000	7.36590E-004	-3.27687E+002	7	...........
	98	99	3.65964E+000	1.64224E-006	0.00000E+000	6.01002E-006	0.00000E+000	7.37107E-004	-3.27687E+002	7	...........
	99	100	3.65966E+000	1.64236E-006	0.00000E+000	6.01046E-006	0.00000E+000	7.39090E-004	-3.27687E+002	7	...........
	100	101	3.65967E+000	1.64254E-006	0.00000E+000	6.01117E-006	0.00000E+000	7.43940E-004	-3.27687E+002	7	...........
	101	102	3.65969E+000	1.64223E-006	0.00000E+000	6.01005E-006	0.00000E+000	7.39340E-004	-3.27687E+002	7	...........
	102	103	3.65971E+000	1.64183E-006	0.00000E+000	6.00863E-006	0.00000E+000	7.40157E-004	-3.27687E+002	7	...........
	103	104	3.65972E+000	1.64168E-006	0.00000E+000	6.00808E-006	0.00000E+000	7.39007E-004	-3.27687E+002	7	...........
	104	105	3.65973E+000	1.64133E-006	0.00000E+000	6.00682E-006	0.00000E+000	7.40224E-004	-3.27687E+002	7	...........
	105	106	3.65974E+000	1.64157E-006	0.00000E+000	6.00774E-006	0.00000E+000	7.42024E-004	-3.27687E+002	7	...........
	106	107	3.65976E+000	1.64179E-006	0.00000E+000	6.00856E-006	0.00000E+000	7.40574E-004	-3.27687E+002	7	...........
	107	108	3.65976E+000	1.64283E-006	0.00000E+000	6.01236E-006	0.00000E+000	7.40807E-004	-3.27687E+002	7	...........
	108	109	3.65978E+000	1.64183E-006	0.00000E+000	6.00873E-006	0.00000E+000	7.38840E-004	-3.27687E+002	7	...........
	109	110	3.65979E+000	1.64161E-006	0.00000E+000	6.00797E-006	0.00000E+000	7.37657E-004	-3.27687E+002	7	...........
	110	111	3.65980E+000	1.64147E-006	0.00000E+000	6.00744E-006	0.00000E+000	7.40874E-004	-3.27687E+002	7	...........
	111	112	3.65981E+000	1.64201E-006	0.00000E+000	6.00945E-006	0.00000E+000	7.41974E-004	-3.27687E+002	7	...........
	112	113	3.65982E+000	1.64183E-006	0.00000E+000	6.00883E-006	0.00000E+000	7.41924E-004	-3.27687E+002	7	...........
	113	114	3.65983E+000	1.64203E-006	0.00000E+000	6.00957E-006	0.00000E+000	7.41640E-004	-3.27687E+002	7	...........
	114	115	3.65984E+000	1.64168E-006	0.00000E+000	6.00829E-006	0.00000E+000	7.43924E-004	-3.27687E+002	7	...........
	115	116	3.65986E+000	1.64140E-006	0.00000E+000	6.00731E-006	0.00000E+000	7.42474E-004	-3.27687E+002	7	...........
	116	117	3.65986E+000	1.64110E-006	0.00000E+000	6.00621E-006	0.00000E+000	7.45124E-004	-3.27687E+002	7	...........
	117	118	3.65988E+000	1.64103E-006	0.00000E+000	6.00597E-006	0.00000E+000	7.44157E-004	-3.27687E+002	7	...........
	118	119	3.65988E+000	1.64135E-006	0.00000E+000	6.00715E-006	0.00000E+000	7.46040E-004	-3.27687E+002	7	...........
	119	120	3.65990E+000	1.64161E-006	0.00000E+000	6.00813E-006	0.00000E+000	7.46540E-004	-3.27687E+002	7	...........
	120	121	3.65990E+000	1.64145E-006	0.00000E+000	6.00755E-006	0.00000E+000	7.45390E-004	-3.27687E+002	7	...........
	121	122	3.65991E+000	1.64114E-006	0.00000E+000	6.00642E-006	0.00000E+000	7.42440E-004	-3.27687E+002	7	...........
	122	123	3.65992E+000	1.64110E-006	0.00000E+000	6.00630E-006	0.00000E+000	7.45990E-004	-3.27687E+002	7	...........
	123	124	3.65993E+000	1.64083E-006	0.00000E+000	6.00531E-006	0.00000E+000	7.44474E-004	-3.27687E+002	7	...........
	124	125	3.65995E+000	1.64067E-006	0.00000E+000	6.00477E-006	0.00000E+000	7.43957E-004	-3.27687E+002	7	...........
	125	126	3.65995E+000	1.64165E-006	0.00000E+000	6.00835E-006	0.00000E+000	7.45524E-004	-3.27687E+002	7	...........
	126	127	3.65996E+000	1.64163E-006	0.00000E+000	6.00831E-006	0.00000E+000	7.48090E-004	-3.27687E+002	7	...........
	127	128	3.65997E+000	1.64093E-006	0.00000E+000	6.00578E-006	0.00000E+000	7.46274E-004	-3.27687E+002	7	...........
	128	129	3.65999E+000	1.64089E-006	0.00000E+000	6.00564E-006	0.00000E+000	7.45524E-004	-3.27687E+002	7	...........
	129	130	3.65999E+000	1.64096E-006	0.00000E+000	6.00589E-006	0.00000E+000	7.46857E-004	-3.27687E+002	7	...........
	130	131	3.66001E+000	1.64136E-006	0.00000E+000	6.00738E-006	0.00000E+000	7.47990E-004	-3.27687E+002	7	...........
	131	132	3.66001E+000	1.64210E-006	0.00000E+000	6.01008E-006	0.00000E+000	7.50140E-004	-3.27687E+002	7	...........
	132	133	3.66002E+000	1.64156E-006	0.00000E+000	6.00814E-006	0.00000E+000	7.48174E-004	-3.27687E+002	7	...........
	133	134	3.66003E+000	1.64076E-006	0.00000E+000	6.00524E-006	0.00000E+000	7.50974E-004	-3.27687E+002	7	...........
	134	135	3.66004E+000	1.64084E-006	0.00000E+000	6.00556E-006	0.00000E+000	7.47474E-004	-3.27687E+002	7	...........
	135	136	3.66005E+000	1.64118E-006	0.00000E+000	6.00681E-006	0.00000E+000	7.52490E-004	-3.27687E+002	7	...........
	136	137	3.66007E+000	1.64108E-006	0.00000E+000	6.00648E-006	0.00000E+000	7.49657E-004	-3.27687E+002	7	...........
	137	138	3.66008E+000	1.64100E-006	0.00000E+000	6.00619E-006	0.00000E+000	7.50174E-004	-3.27687E+002	7	...........
	138	139	3.66009E+000	1.64103E-006	0.00000E+000	6.00632E-006	0.00000E+000	7.49107E-004	-3.27687E+002	7	...........
	139	140	3.66011E+000	1.64049E-006	0.00000E+000	6.00437E-006	0.00000E+000	7.51457E-004	-3.27687E+002	7	...........
	140	141	3.66012E+000	1.63984E-006	0.00000E+000	6.00200E-006	0.00000E+000	7.47490E-004	-3.27687E+002	7	...........
	141	142	3.66013E+000	1.64027E-006	0.00000E+000	6.00360E-006	0.00000E+000	7.50107E-004	-3.27687E+002	7	...........
	142	143	3.66014E+000	1.64033E-006	0.00000E+000	6.00385E-006	0.00000E+000	7.52107E-004	-3.27687E+002	7	...........
	143	144	3.66015E+000	1.64105E-006	0.00000E+000	6.00649E-006	0.00000E+000	7.49524E-004	-3.27687E+002	7	...........
	144	145	3.66016E+000	1.64089E-006	0.00000E+000	6.00592E-006	0.00000E+000	7.49324E-004	-3.27687E+002	7	...........
	145	146	3.66018E+000	1.64025E-006	0.00000E+000	6.00363E-006	0.00000E+000	7.50490E-004	-3.27687E+002	7	...........
	146	147	3.66020E+000	1.63986E-006	0.00000E+000	6.00222E-006	0.00000E+000	7.50290E-004	-3.27687E+002	7	...........
	147	148	3.66021E+000	1.64016E-006	0.00000E+000	6.00335E-006	0.00000E+000	7.49357E-004	-3.27687E+002	7	...........
	148	149	3.66022E+000	1.64109E-006	0.00000E+000	6.00674E-006	0.00000E+000	7.53074E-004	-3.27687E+002	7	...........
	149	150	3.66024E+000	1.64078E-006	0.00000E+000	6.00564E-006	0.00000E+000	7.49707E-004	-3.27687E+002	7	...........
	150	151	3.66024E+000	1.64025E-006	0.00000E+000	6.00373E-006	0.00000E+000	7.52790E-004	-3.27687E+002	7	...........
	151	152	3.66027E+000	1.63996E-006	0.00000E+000	6.00270E-006	0.00000E+000	7.53457E-004	-3.27687E+002	7	...........
	152	153	3.66028E+000	1.63954E-006	0.00000E+000	6.00118E-006	0.00000E+000	7.47807E-004	-3.27687E+002	7	...........
	153	154	3.66029E+000	1.63948E-006	0.00000E+000	6.00099E-006	0.00000E+000	7.47440E-004	-3.27687E+002	7	...........
	154	155	3.66031E+000	1.64013E-006	0.00000E+000	6.00340E-006	0.00000E+000	7.49324E-004	-3.27687E+002	7	...........
	155	156	3.66034E+000	1.64056E-006	0.00000E+000	6.00500E-006	0.00000E+000	7.49190E-004	-3.27687E+002	7	...........
	156	157	3.66036E+000	1.64006E-006	0.00000E+000	6.00322E-006	0.00000E+000	7.48990E-004	-3.27687E+002	7	...........
	157	158	3.66036E+000	1.63985E-006	0.00000E+000	6.00246E-006	0.00000E+000	7.50074E-004	-3.27687E+002	7	...........
	158	159	3.66037E+000	1.64005E-006	0.00000E+000	6.00321E-006	0.00000E+000	7.51340E-004	-3.27687E+002	7	...........
	159	160	3.66039E+000	1.64035E-006	0.00000E+000	6.00431E-006	0.00000E+000	7.49924E-004	-3.27687E+002	7	...........
	160	161	3.66041E+000	1.63977E-006	0.00000E+000	6.00223E-006	0.00000E+000	7.47957E-004	-3.27687E+002	7	...........
	161	162	3.66043E+000	1.64000E-006	0.00000E+000	6.00310E-006	0.00000E+000	7.50707E-004	-3.27687E+002	7	...........
	162	163	3.66046E+000	1.64042E-006	0.00000E+000	6.00471E-006	0.00000E+000	7.50290E-004	-3.27687E+002	7	...........
	163	164	3.66048E+000	1.64013E-006	0.00000E+000	6.00365E-006	0.00000E+000	7.47640E-004	-3.27687E+002	7	...........
	164	165	3.66048E+000	1.63987E-006	0.00000E+000	6.00272E-006	0.00000E+000	7.48690E-004	-3.27687E+002	7	...........
	165	166	3.66051E+000	1.64014E-006	0.00000E+000	6.00376E-006	0.00000E+000	7.49524E-004	-3.27687E+002	7	...........
	166	167	3.66053E+000	1.63965E-006	0.00000E+000	6.00198E-006	0.00000E+000	7.49040E-004	-3.27687E+002	7	...........
	167	168	3.66055E+000	1.63947E-006	0.00000E+000	6.00136E-006	0.00000E+000	7.46157E-004	-3.27687E+002	7	...........
	168	169	3.66057E+000	1.64035E-006	0.00000E+000	6.00462E-006	0.00000E+000	7.47090E-004	-3.27687E+002	7	...........
	169	170	3.66059E+000	1.64003E-006	0.00000E+000	6.00348E-006	0.00000E+000	7.47540E-004	-3.27687E+002	7	...........
	170	171	3.66061E+000	1.63996E-006	0.00000E+000	6.00326E-006	0.00000E+000	7.48774E-004	-3.27687E+002	7	...........
	171	172	3.66062E+000	1.63980E-006	0.00000E+000	6.00268E-006	0.00000E+000	7.48290E-004	-3.27687E+002	7	...........
	172	173	3.66065E+000	1.63980E-006	0.00000E+000	6.00274E-006	0.00000E+000	7.47407E-004	-3.27687E+002	7	...........
	173	174	3.66066E+000	1.64026E-006	0.00000E+000	6.00443E-006	0.00000E+000	7.50740E-004	-3.27687E+002	7	...........
	174	175	3.66068E+000	1.63981E-006	0.00000E+000	6.00281E-006	0.00000E+000	7.45674E-004	-3.27687E+002	7	...........
	175	176	3.66070E+000	1.63988E-006	0.00000E+000	6.00313E-006	0.00000E+000	7.44590E-004	-3.27687E+002	7	...........
	176	177	3.66071E+000	1.63953E-006	0.00000E+000	6.00187E-006	0.00000E+000	7.48090E-004	-3.27687E+002	7	...........
	177	178	3.66075E+000	1.63928E-006	0.00000E+000	6.00098E-006	0.00000E+000	7.48424E-004	-3.27687E+002	7	...........
	178	179	3.66076E+000	1.63953E-006	0.00000E+000	6.00194E-006	0.00000E+000	7.45640E-004	-3.27687E+002	7	...........
	179	180	3.66078E+000	1.63955E-006	0.00000E+000	6.00204E-006	0.00000E+000	7.46807E-004	-3.27687E+002	7	...........
	180	181	3.66079E+000	1.63987E-006	0.00000E+000	6.00320E-006	0.00000E+000	7.46640E-004	-3.27687E+002	7	...........
	181	182	3.66080E+000	1.63947E-006	0.00000E+000	6.00177E-006	0.00000E+000	7.49824E-004	-3.27687E+002	7	...........
	182	183	3.66083E+000	1.63959E-006	0.00000E+000	6.00227E-006	0.00000E+000	7.45457E-004	-3.27687E+002	7	...........
	183	184	3.66086E+000	1.63944E-006	0.00000E+000	6.00174E-006	0.00000E+000	7.43807E-004	-3.27687E+002	7	...........
	184	185	3.66088E+000	1.63960E-006	0.00000E+000	6.00238E-006	0.00000E+000	7.47390E-004	-3.27687E+002	7	...........
	185	186	3.66089E+000	1.63951E-006	0.00000E+000	6.00207E-006	0.00000E+000	7.46174E-004	-3.27687E+002	7	...........
	186	187	3.66093E+000	1.63970E-006	0.00000E+000	6.00284E-006	0.00000E+000	7.46857E-004	-3.27687E+002	7	...........
	187	188	3.66095E+000	1.63970E-006	0.00000E+000	6.00286E-006	0.00000E+000	7.43274E-004	-3.27687E+002	7	...........
	188	189	3.66097E+000	1.63926E-006	0.00000E+000	6.00127E-006	0.00000E+000	7.44674E-004	-3.27687E+002	7	...........
	189	190	3.66098E+000	1.63899E-006	0.00000E+000	6.00032E-006	0.00000E+000	7.43957E-004	-3.27687E+002	7	...........
	190	191	3.66100E+000	1.63963E-006	0.00000E+000	6.00269E-006	0.00000E+000	7.43790E-004	-3.27687E+002	7	...........
	191	192	3.66102E+000	1.64006E-006	0.00000E+000	6.00427E-006	0.00000E+000	7.43024E-004	-3.27687E+002	7	...........
	192	193	3.66104E+000	1.64031E-006	0.00000E+000	6.00526E-006	0.00000E+000	7.41874E-004	-3.27687E+002	7	...........
	193	194	3.66107E+000	1.63971E-006	0.00000E+000	6.00307E-006	0.00000E+000	7.42140E-004	-3.27687E+002	7	...........
	194	195	3.66108E+000	1.63982E-006	0.00000E+000	6.00353E-006	0.00000E+000	7.43407E-004	-3.27687E+002	7	...........
	195	196	3.66109E+000	1.63941E-006	0.00000E+000	6.00203E-006	0.00000E+000	7.43190E-004	-3.27687E+002	7	...........
	196	197	3.66112E+000	1.64032E-006	0.00000E+000	6.00540E-006	0.00000E+000	7.42274E-004	-3.27687E+002	7	...........
	197	198	3.66113E+000	1.64036E-006	0.00000E+000	6.00558E-006	0.00000E+000	7.43440E-004	-3.27687E+002	7	...........
	198	199	3.66115E+000	1.64048E-006	0.00000E+000	6.00605E-006	0.00000E+000	7.42290E-004	-3.27687E+002	7	...........
	199	200	3.66116E+000	1.64025E-006	0.00000E+000	6.00522E-006	0.00000E+000	7.39440E-004	-3.27687E+002	7	...........
	200	201	3.66117E+000	1.63959E-006	0.00000E+000	6.00283E-006	0.00000E+000	7.42090E-004	-3.27687E+002	7	...........
	201	202	3.66120E+000	1.63901E-006	0.00000E+000	6.00075E-006	0.00000E+000	7.38957E-004	-3.27687E+002	7	...........
	202	203	3.66121E+000	1.63898E-006	0.00000E+000	6.00065E-006	0.00000E+000	7.41157E-004	-3.27687E+002	7	...........
	203	204	3.66123E+000	1.63944E-006	0.00000E+000	6.00235E-006	0.00000E+000	7.42224E-004	-3.27687E+002	7	...........
	204	205	3.66123E+000	1.64006E-006	0.00000E+000	6.00465E-006	0.00000E+000	7.40357E-004	-3.27687E+002	7	...........
	205	206	3.66126E+000	1.63965E-006	0.00000E+000	6.00317E-006	0.00000E+000	7.41340E-004	-3.27687E+002	7	...........
	206	207	3.66127E+000	1.63945E-006	0.00000E+000	6.00249E-006	0.00000E+000	7.42074E-004	-3.27687E+002	7	...........
	207	208	3.66130E+000	1.63895E-006	0.00000E+000	6.00069E-006	0.00000E+000	7.41240E-004	-3.27687E+002	7	...........
	208	209	3.66129E+000	1.63942E-006	0.00000E+000	6.00240E-006	0.00000E+000	7.42040E-004	-3.27687E+002	7	...........
	209	210	3.66131E+000	1.63932E-006	0.00000E+000	6.00205E-006	0.00000E+000	7.44024E-004	-3.27687E+002	7	...........
	210	211	3.66132E+000	1.63967E-006	0.00000E+000	6.00336E-006	0.00000E+000	7.43874E-004	-3.27687E+002	7	...........
	211	212	3.66133E+000	1.63895E-006	0.00000E+000	6.00074E-006	0.00000E+000	7.40224E-004	-3.27687E+002	7	...........
	212	213	3.66133E+000	1.63924E-006	0.00000E+000	6.00179E-006	0.00000E+000	7.39540E-004	-3.27687E+002	7	...........
	213	214	3.66136E+000	1.63876E-006	0.00000E+000	6.00010E-006	0.00000E+000	7.41474E-004	-3.27687E+002	7	...........
	214	215	3.66138E+000	1.63862E-006	0.00000E+000	5.99961E-006	0.00000E+000	7.41140E-004	-3.27687E+002	7	...........
	215	216	3.66140E+000	1.63879E-006	0.00000E+000	6.00027E-006	0.00000E+000	7.38774E-004	-3.27687E+002	7	...........
	216	217	3.66140E+000	1.63955E-006	0.00000E+000	6.00306E-006	0.00000E+000	7.40407E-004	-3.27687E+002	7	...........
	217	218	3.66142E+000	1.63954E-006	0.00000E+000	6.00305E-006	0.00000E+000	7.42390E-004	-3.27687E+002	7	...........
	218	219	3.66143E+000	1.63914E-006	0.00000E+000	6.00160E-006	0.00000E+000	7.43857E-004	-3.27687E+002	7	...........
	219	220	3.66145E+000	1.63862E-006	0.00000E+000	5.99973E-006	0.00000E+000	7.41007E-004	-3.27687E+002	7	...........
	220	221	3.66145E+000	1.63880E-006	0.00000E+000	6.00039E-006	0.00000E+000	7.41290E-004	-3.27687E+002	7	...........
	221	222	3.66147E+000	1.63879E-006	0.00000E+000	6.00039E-006	0.00000E+000	7.43807E-004	-3.27687E+002	7	...........
	222	223	3.66149E+000	1.63921E-006	0.00000E+000	6.00196E-006	0.00000E+000	7.42424E-004	-3.27687E+002	7	...........
	223	224	3.66149E+000	1.63924E-006	0.00000E+000	6.00208E-006	0.00000E+000	7.42640E-004	-3.27687E+002	7	...........
	224	225	3.66150E+000	1.63904E-006	0.00000E+000	6.00135E-006	0.00000E+000	7.42940E-004	-3.27687E+002	7	...........
	225	226	3.66152E+000	1.63873E-006	0.00000E+000	6.00024E-006	0.00000E+000	7.42707E-004	-3.27687E+002	7	...........
	226	227	3.66155E+000	1.63841E-006	0.00000E+000	5.99910E-006	0.00000E+000	7.46140E-004	-3.27687E+002	7	...........
	227	228	3.66156E+000	1.63863E-006	0.00000E+000	5.99994E-006	0.00000E+000	7.44457E-004	-3.27687E+002	7	...........
	228	229	3.66156E+000	1.63930E-006	0.00000E+000	6.00240E-006	0.00000E+000	7.43190E-004	-3.27687E+002	7	...........
	229	230	3.66158E+000	1.63925E-006	0.00000E+000	6.00224E-006	0.00000E+000	7.43774E-004	-3.27687E+002	7	...........
	230	231	3.66159E+000	1.63880E-006	0.00000E+000	6.00062E-006	0.00000E+000	7.42340E-004	-3.27687E+002	7	...........
	231	232	3.66159E+000	1.63934E-006	0.00000E+000	6.00260E-006	0.00000E+000	7.42424E-004	-3.27687E+002	7	...........
	232	233	3.66161E+000	1.63980E-006	0.00000E+000	6.00432E-006	0.00000E+000	7.45507E-004	-3.27687E+002	7	...........
	233	234	3.66161E+000	1.63930E-006	0.00000E+000	6.00250E-006	0.00000E+000	7.43424E-004	-3.27687E+002	7	...........
	234	235	3.66162E+000	1.63886E-006	0.00000E+000	6.00090E-006	0.00000E+000	7.44140E-004	-3.27687E+002	7	...........
	235	236	3.66162E+000	1.63905E-006	0.00000E+000	6.00159E-006	0.00000E+000	7.47274E-004	-3.27687E+002	7	...........
	236	237	3.66164E+000	1.63874E-006	0.00000E+000	6.00047E-006	0.00000E+000	7.47357E-004	-3.27687E+002	7	...........
	237	238	3.66166E+000	1.63859E-006	0.00000E+000	5.99997E-006	0.00000E+000	7.45757E-004	-3.27687E+002	7	...........
	238	239	3.66166E+000	1.63798E-006	0.00000E+000	5.99774E-006	0.00000E+000	7.46507E-004	-3.27687E+002	7	...........
	239	240	3.66168E+000	1.63842E-006	0.00000E+000	5.99937E-006	0.00000E+000	7.45090E-004	-3.27687E+002	7	...........
	240	241	3.66168E+000	1.63895E-006	0.00000E+000	6.00131E-006	0.00000E+000	7.46807E-004	-3.27687E+002	7	...........
	241	242	3.66169E+000	1.63912E-006	0.00000E+000	6.00196E-006	0.00000E+000	7.48474E-004	-3.27687E+002	7	...........
	242	243	3.66170E+000	1.63884E-006	0.00000E+000	6.00095E-006	0.00000E+000	7.45990E-004	-3.27687E+002	7	...........
	243	244	3.66171E+000	1.63873E-006	0.00000E+000	6.00056E-006	0.00000E+000	7.45424E-004	-3.27687E+002	7	...........
	244	245	3.66172E+000	1.63844E-006	0.00000E+000	5.99950E-006	0.00000E+000	7.45907E-004	-3.27687E+002	7	...........
	245	246	3.66173E+000	1.63905E-006	0.00000E+000	6.00177E-006	0.00000E+000	7.49507E-004	-3.27687E+002	7	...........
	246	247	3.66174E+000	1.63941E-006	0.00000E+000	6.00311E-006	0.00000E+000	7.46590E-004	-3.27687E+002	7	...........
	247	248	3.66175E+000	1.63843E-006	0.00000E+000	5.99953E-006	0.00000E+000	7.47790E-004	-3.27687E+002	7	...........
	248	249	3.66176E+000	1.63838E-006	0.00000E+000	5.99937E-006	0.00000E+000	7.49324E-004	-3.27687E+002	7	...........
	249	250	3.66177E+000	1.63844E-006	0.00000E+000	5.99960E-006	0.00000E+000	7.49657E-004	-3.27687E+002	7	...........
	250	251	3.66178E+000	1.63790E-006	0.00000E+000	5.99761E-006	0.00000E+000	7.47357E-004	-3.27687E+002	7	...........
	251	252	3.66179E+000	1.63856E-006	0.00000E+000	6.00008E-006	0.00000E+000	7.48224E-004	-3.27687E+002	7	...........
	252	253	3.66180E+000	1.63902E-006	0.00000E+000	6.00176E-006	0.00000E+000	7.47224E-004	-3.27687E+002	7	...........
	253	254	3.66181E+000	1.63946E-006	0.00000E+000	6.00338E-006	0.00000E+000	7.49690E-004	-3.27687E+002	7	...........
	254	255	3.66181E+000	1.63896E-006	0.00000E+000	6.00156E-006	0.00000E+000	7.50190E-004	-3.27687E+002	7	...........
	255	256	3.66182E+000	1.63896E-006	0.00000E+000	6.00157E-006	0.00000E+000	7.50007E-004	-3.27687E+002	7	...........
	256	257	3.66183E+000	1.63927E-006	0.00000E+000	6.00273E-006	0.00000E+000	7.50040E-004	-3.27687E+002	7	...........
	257	258	3.66184E+000	1.63962E-006	0.00000E+000	6.00401E-006	0.00000E+000	7.51174E-004	-3.27687E+002	7	...........
	258	259	3.66185E+000	1.63963E-006	0.00000E+000	6.00407E-006	0.00000E+000	7.51407E-004	-3.27687E+002	7	...........
	259	260	3.66186E+000	1.63983E-006	0.00000E+000	6.00481E-006	0.00000E+000	7.53757E-004	-3.27687E+002	7	...........
	260	261	3.66187E+000	1.63921E-006	0.00000E+000	6.00256E-006	0.00000E+000	7.52657E-004	-3.27687E+002	7	...........
	261	262	3.66187E+000	1.63842E-006	0.00000E+000	5.99969E-006	0.00000E+000	7.52674E-004	-3.27687E+002	7	...........
	262	263	3.66188E+000	1.63860E-006	0.00000E+000	6.00037E-006	0.00000E+000	7.51057E-004	-3.27687E+002	7	...........
	263	264	3.66188E+000	1.63890E-006	0.00000E+000	6.00147E-006	0.00000E+000	7.52874E-004	-3.27687E+002	7	...........
	264	265	3.66190E+000	1.63852E-006	0.00000E+000	6.00010E-006	0.00000E+000	7.52440E-004	-3.27687E+002	7	...........
	265	266	3.66190E+000	1.63953E-006	0.00000E+000	6.00380E-006	0.00000E+000	7.51140E-004	-3.27687E+002	7	...........
	266	267	3.66191E+000	1.63930E-006	0.00000E+000	6.00296E-006	0.00000E+000	7.50540E-004	-3.27687E+002	7	...........
	267	268	3.66192E+000	1.63838E-006	0.00000E+000	5.99961E-006	0.00000E+000	7.52940E-004	-3.27687E+002	7	...........
	268	269	3.66192E+000	1.63886E-006	0.00000E+000	6.00137E-006	0.00000E+000	7.52874E-004	-3.27687E+002	7	...........
	269	270	3.66194E+000	1.63941E-006	0.00000E+000	6.00343E-006	0.00000E+000	7.53657E-004	-3.27687E+002	7	...........
	270	271	3.66195E+000	1.63966E-006	0.00000E+000	6.00435E-006	0.00000E+000	7.51624E-004	-3.27687E+002	7	...........
	271	272	3.66195E+000	1.63985E-006	0.00000E+000	6.00506E-006	0.00000E+000	7.54540E-004	-3.27687E+002	7	...........
	272	273	3.66195E+000	1.63884E-006	0.00000E+000	6.00135E-006	0.00000E+000	7.51490E-004	-3.27687E+002	7	...........
	273	274	3.66196E+000	1.63892E-006	0.00000E+000	6.00167E-006	0.00000E+000	7.52490E-004	-3.27687E+002	7	...........
	274	275	3.66197E+000	1.63850E-006	0.00000E+000	6.00013E-006	0.00000E+000	7.54474E-004	-3.27687E+002	7	...........
	275	276	3.66197E+000	1.63847E-006	0.00000E+000	6.00005E-006	0.00000E+000	7.53307E-004	-3.27687E+002	7	...........
	276	277	3.66198E+000	1.63877E-006	0.00000E+000	6.00115E-006	0.00000E+000	7.55807E-004	-3.27687E+002	7	...........
	277	278	3.66199E+000	1.63885E-006	0.00000E+000	6.00145E-006	0.00000E+000	7.52290E-004	-3.27687E+002	7	...........
	278	279	3.66200E+000	1.63889E-006	0.00000E+000	6.00160E-006	0.00000E+000	7.53957E-004	-3.27687E+002	7	...........
	279	280	3.66200E+000	1.63860E-006	0.00000E+000	6.00057E-006	0.00000E+000	7.52840E-004	-3.27687E+002	7	...........
	280	281	3.66202E+000	1.63869E-006	0.00000E+000	6.00091E-006	0.00000E+000	7.57674E-004	-3.27687E+002	7	...........
	281	282	3.66202E+000	1.63901E-006	0.00000E+000	6.00207E-006	0.00000E+000	7.55357E-004	-3.27687E+002	7	...........
	282	283	3.66203E+000	1.63860E-006	0.00000E+000	6.00061E-006	0.00000E+000	7.56424E-004	-3.27687E+002	7	...........
	283	284	3.66202E+000	1.63857E-006	0.00000E+000	6.00049E-006	0.00000E+000	7.57890E-004	-3.27687E+002	7	...........
	284	285	3.66203E+000	1.63786E-006	0.00000E+000	5.99792E-006	0.00000E+000	7.57140E-004	-3.27687E+002	7	...........
	285	286	3.66205E+000	1.63788E-006	0.00000E+000	5.99799E-006	0.00000E+000	7.56190E-004	-3.27687E+002	7	...........
	286	287	3.66206E+000	1.63822E-006	0.00000E+000	5.99925E-006	0.00000E+000	7.59340E-004	-3.27687E+002	7	...........
	287	288	3.66206E+000	1.63815E-006	0.00000E+000	5.99900E-006	0.00000E+000	7.55790E-004	-3.27687E+002	7	...........
	288	289	3.66207E+000	1.63809E-006	0.00000E+000	5.99880E-006	0.00000E+000	7.55874E-004	-3.27687E+002	7	...........
	289	290	3.66207E+000	1.63867E-006	0.00000E+000	6.00092E-006	0.00000E+000	7.57024E-004	-3.27687E+002	7	...........
	290	291	3.66207E+000	1.63894E-006	0.00000E+000	6.00192E-006	0.00000E+000	7.55790E-004	-3.27687E+002	7	...........
	291	292	3.66209E+000	1.63882E-006	0.00000E+000	6.00150E-006	0.00000E+000	7.57007E-004	-3.27687E+002	7	...........
	292	293	3.66209E+000	1.63803E-006	0.00000E+000	5.99863E-006	0.00000E+000	7.59774E-004	-3.27687E+002	7	...........
	293	294	3.66209E+000	1.63824E-006	0.00000E+000	5.99937E-006	0.00000E+000	7.59574E-004	-3.27687E+002	7	...........
	294	295	3.66210E+000	1.63841E-006	0.00000E+000	6.00002E-006	0.00000E+000	7.59474E-004	-3.27687E+002	7	...........
	295	296	3.66210E+000	1.63877E-006	0.00000E+000	6.00134E-006	0.00000E+000	7.58124E-004	-3.27687E+002	7	...........
	296	297	3.66210E+000	1.63893E-006	0.00000E+000	6.00190E-006	0.00000E+000	7.57707E-004	-3.27687E+002	7	...........
	297	298	3.66211E+000	1.63867E-006	0.00000E+000	6.00100E-006	0.00000E+000	7.58490E-004	-3.27687E+002	7	...........
	298	299	3.66213E+000	1.63809E-006	0.00000E+000	5.99888E-006	0.00000E+000	7.58940E-004	-3.27687E+002	7	...........
	299	300	3.66213E+000	1.63799E-006	0.00000E+000	5.99855E-006	0.00000E+000	7.56407E-004	-3.27687E+002	7	...........
	300	301	3.66214E+000	1.63735E-006	0.00000E+000	5.99620E-006	0.00000E+000	7.58374E-004	-3.27687E+002	7	...........
	301	302	3.66214E+000	1.63776E-006	0.00000E+000	5.99771E-006	0.00000E+000	7.58057E-004	-3.27687E+002	7	...........
	302	303	3.66214E+000	1.63847E-006	0.00000E+000	6.00031E-006	0.00000E+000	7.58424E-004	-3.27687E+002	7	...........
	303	304	3.66215E+000	1.63779E-006	0.00000E+000	5.99784E-006	0.00000E+000	7.59657E-004	-3.27687E+002	7	...........
	304	305	3.66216E+000	1.63743E-006	0.00000E+000	5.99654E-006	0.00000E+000	7.59357E-004	-3.27687E+002	7	...........
	305	306	3.66216E+000	1.63791E-006	0.00000E+000	5.99829E-006	0.00000E+000	7.59324E-004	-3.27687E+002	7	...........
	306	307	3.66216E+000	1.63868E-006	0.00000E+000	6.00112E-006	0.00000E+000	7.58007E-004	-3.27687E+002	7	...........
	307	308	3.66217E+000	1.63834E-006	0.00000E+000	5.99988E-006	0.00000E+000	7.59407E-004	-3.27687E+002	7	...........
	308	309	3.66218E+000	1.63761E-006	0.00000E+000	5.99721E-006	0.00000E+000	7.57940E-004	-3.27687E+002	7	...........
	309	310	3.66219E+000	1.63754E-006	0.00000E+000	5.99698E-006	0.00000E+000	7.59290E-004	-3.27687E+002	7	...........
	310	311	3.66219E+000	1.63674E-006	0.00000E+000	5.99408E-006	0.00000E+000	7.59390E-004	-3.27687E+002	7	...........
	311	312	3.66219E+000	1.63716E-006	0.00000E+000	5.99558E-006	0.00000E+000	7.57290E-004	-3.27687E+002	7	...........
	312	313	3.66221E+000	1.63733E-006	0.00000E+000	5.99624E-006	0.00000E+000	7.58774E-004	-3.27687E+002	7	...........
	313	314	3.66221E+000	1.63773E-006	0.00000E+000	5.99773E-006	0.00000E+000	7.60790E-004	-3.27687E+002	7	...........
	314	315	3.66222E+000	1.63864E-006	0.00000E+000	6.00105E-006	0.00000E+000	7.60907E-004	-3.27687E+002	7	...........
	315	316	3.66222E+000	1.63785E-006	0.00000E+000	5.99816E-006	0.00000E+000	7.58107E-004	-3.27687E+002	7	...........
	316	317	3.66222E+000	1.63764E-006	0.00000E+000	5.99740E-006	0.00000E+000	7.59957E-004	-3.27687E+002	7	...........
	317	318	3.66223E+000	1.63807E-006	0.00000E+000	5.99898E-006	0.00000E+000	7.60024E-004	-3.27687E+002	7	...........
	318	319	3.66224E+000	1.63793E-006	0.00000E+000	5.99850E-006	0.00000E+000	7.60474E-004	-3.27687E+002	7	...........
	319	320	3.66225E+000	1.63764E-006	0.00000E+000	5.99742E-006	0.00000E+000	7.57357E-004	-3.27687E+002	7	...........
	320	321	3.66225E+000	1.63821E-006	0.00000E+000	5.99953E-006	0.00000E+000	7.57757E-004	-3.27687E+002	7	...........
	321	322	3.66226E+000	1.63814E-006	0.00000E+000	5.99931E-006	0.00000E+000	7.58090E-004	-3.27687E+002	7	...........
	322	323	3.66226E+000	1.63782E-006	0.00000E+000	5.99815E-006	0.00000E+000	7.59157E-004	-3.27687E+002	7	...........
	323	324	3.66227E+000	1.63684E-006	0.00000E+000	5.99455E-006	0.00000E+000	7.59824E-004	-3.27687E+002	7	...........
	324	325	3.66227E+000	1.63738E-006	0.00000E+000	5.99652E-006	0.00000E+000	7.61140E-004	-3.27687E+002	7	...........
	325	326	3.66228E+000	1.63687E-006	0.00000E+000	5.99468E-006	0.00000E+000	7.57374E-004	-3.27687E+002	7	...........
	326	327	3.66229E+000	1.63769E-006	0.00000E+000	5.99770E-006	0.00000E+000	7.59574E-004	-3.27687E+002	7	...........
	327	328	3.66229E+000	1.63770E-006	0.00000E+000	5.99771E-006	0.00000E+000	7.57557E-004	-3.27687E+002	7	...........
	328	329	3.66229E+000	1.63702E-006	0.00000E+000	5.99522E-006	0.00000E+000	7.57840E-004	-3.27687E+002	7	...........
	329	330	3.66230E+000	1.63719E-006	0.00000E+000	5.99587E-006	0.00000E+000	7.58907E-004	-3.27687E+002	7	...........
	330	331	3.66231E+000	1.63726E-006	0.00000E+000	5.99613E-006	0.00000E+000	7.58757E-004	-3.27687E+002	7	...........
	331	332	3.66231E+000	1.63774E-006	0.00000E+000	5.99790E-006	0.00000E+000	7.58690E-004	-3.27687E+002	7	...........
	332	333	3.66232E+000	1.63763E-006	0.00000E+000	5.99752E-006	0.00000E+000	7.60474E-004	-3.27687E+002	7	...........
	333	334	3.66233E+000	1.63691E-006	0.00000E+000	5.99489E-006	0.00000E+000	7.59924E-004	-3.27687E+002	7	...........
	334	335	3.66233E+000	1.63723E-006	0.00000E+000	5.99607E-006	0.00000E+000	7.58940E-004	-3.27687E+002	7	...........
	335	336	3.66234E+000	1.63673E-006	0.00000E+000	5.99427E-006	0.00000E+000	7.58807E-004	-3.27687E+002	7	...........
	336	337	3.66235E+000	1.63719E-006	0.00000E+000	5.99595E-006	0.00000E+000	7.59640E-004	-3.27687E+002	7	...........
	337	338	3.66235E+000	1.63726E-006	0.00000E+000	5.99621E-006	0.00000E+000	7.56957E-004	-3.27687E+002	7	...........
	338	339	3.66236E+000	1.63797E-006	0.00000E+000	5.99884E-006	0.00000E+000	7.60124E-004	-3.27687E+002	7	...........
	339	340	3.66236E+000	1.63837E-006	0.00000E+000	6.00029E-006	0.00000E+000	7.59124E-004	-3.27687E+002	7	...........
	340	341	3.66237E+000	1.63748E-006	0.00000E+000	5.99704E-006	0.00000E+000	7.57724E-004	-3.27687E+002	7	...........
	341	342	3.66237E+000	1.63752E-006	0.00000E+000	5.99722E-006	0.00000E+000	7.56624E-004	-3.27687E+002	7	...........
	342	343	3.66238E+000	1.63814E-006	0.00000E+000	5.99950E-006	0.00000E+000	7.57474E-004	-3.27687E+002	7	...........
	343	344	3.66239E+000	1.63813E-006	0.00000E+000	5.99946E-006	0.00000E+000	7.58257E-004	-3.27687E+002	7	...........
	344	345	3.66240E+000	1.63794E-006	0.00000E+000	5.99878E-006	0.00000E+000	7.57724E-004	-3.27687E+002	7	...........
	345	346	3.66240E+000	1.63789E-006	0.00000E+000	5.99860E-006	0.00000E+000	7.59057E-004	-3.27687E+002	7	...........
	346	347	3.66240E+000	1.63781E-006	0.00000E+000	5.99832E-006	0.00000E+000	7.57257E-004	-3.27687E+002	7	...........
	347	348	3.66241E+000	1.63741E-006	0.00000E+000	5.99686E-006	0.00000E+000	7.57324E-004	-3.27687E+002	7	...........
	348	349	3.66241E+000	1.63713E-006	0.00000E+000	5.99584E-006	0.00000E+000	7.55840E-004	-3.27687E+002	7	...........
	349	350	3.66243E+000	1.63719E-006	0.00000E+000	5.99608E-006	0.00000E+000	7.57340E-004	-3.27687E+002	7	...........
	350	351	3.66243E+000	1.63773E-006	0.00000E+000	5.99805E-006	0.00000E+000	7.59174E-004	-3.27687E+002	7	...........
	351	352	3.66243E+000	1.63792E-006	0.00000E+000	5.99878E-006	0.00000E+000	7.59790E-004	-3.27687E+002	7	...........
	352	353	3.66244E+000	1.63718E-006	0.00000E+000	5.99608E-006	0.00000E+000	7.59790E-004	-3.27687E+002	7	...........
	353	354	3.66244E+000	1.63722E-006	0.00000E+000	5.99622E-006	0.00000E+000	7.56490E-004	-3.27687E+002	7	...........
	354	355	3.66245E+000	1.63720E-006	0.00000E+000	5.99615E-006	0.00000E+000	7.57774E-004	-3.27687E+002	7	...........
	355	356	3.66246E+000	1.63720E-006	0.00000E+000	5.99617E-006	0.00000E+000	7.56440E-004	-3.27687E+002	7	...........
	356	357	3.66247E+000	1.63724E-006	0.00000E+000	5.99635E-006	0.00000E+000	7.54557E-004	-3.27687E+002	7	...........
	357	358	3.66247E+000	1.63713E-006	0.00000E+000	5.99596E-006	0.00000E+000	7.56340E-004	-3.27687E+002	7	...........
	358	359	3.66248E+000	1.63731E-006	0.00000E+000	5.99660E-006	0.00000E+000	7.58257E-004	-3.27687E+002	7	...........
	359	360	3.66248E+000	1.63687E-006	0.00000E+000	5.99498E-006	0.00000E+000	7.55340E-004	-3.27687E+002	7	...........
	360	361	3.66249E+000	1.63718E-006	0.00000E+000	5.99614E-006	0.00000E+000	7.59390E-004	-3.27687E+002	7	...........
	361	362	3.66249E+000	1.63722E-006	0.00000E+000	5.99629E-006	0.00000E+000	7.56857E-004	-3.27687E+002	7	...........
	362	363	3.66250E+000	1.63784E-006	0.00000E+000	5.99857E-006	0.00000E+000	7.54807E-004	-3.27687E+002	7	...........
	363	364	3.66250E+000	1.63796E-006	0.00000E+000	5.99904E-006	0.00000E+000	7.57390E-004	-3.27687E+002	7	...........
	364	365	3.66251E+000	1.63745E-006	0.00000E+000	5.99718E-006	0.00000E+000	7.55774E-004	-3.27687E+002	7	...........
	365	366	3.66251E+000	1.63686E-006	0.00000E+000	5.99503E-006	0.00000E+000	7.56540E-004	-3.27687E+002	7	...........
	366	367	3.66252E+000	1.63728E-006	0.00000E+000	5.99657E-006	0.00000E+000	7.56674E-004	-3.27687E+002	7	...........
	367	368	3.66253E+000	1.63699E-006	0.00000E+000	5.99554E-006	0.00000E+000	7.57040E-004	-3.27687E+002	7	...........
	368	369	3.66254E+000	1.63743E-006	0.00000E+000	5.99716E-006	0.00000E+000	7.56390E-004	-3.27687E+002	7	...........
	369	370	3.66255E+000	1.63738E-006	0.00000E+000	5.99696E-006	0.00000E+000	7.55240E-004	-3.27687E+002	7	...........
	370	371	3.66255E+000	1.63708E-006	0.00000E+000	5.99588E-006	0.00000E+000	7.56424E-004	-3.27687E+002	7	...........
	371	372	3.66256E+000	1.63675E-006	0.00000E+000	5.99467E-006	0.00000E+000	7.52474E-004	-3.27687E+002	7	...........
	372	373	3.66256E+000	1.63677E-006	0.00000E+000	5.99479E-006	0.00000E+000	7.53190E-004	-3.27687E+002	7	...........
	373	374	3.66256E+000	1.63688E-006	0.00000E+000	5.99519E-006	0.00000E+000	7.56007E-004	-3.27687E+002	7	...........
	374	375	3.66257E+000	1.63720E-006	0.00000E+000	5.99635E-006	0.00000E+000	7.54857E-004	-3.27687E+002	7	...........
	375	376	3.66257E+000	1.63784E-006	0.00000E+000	5.99871E-006	0.00000E+000	7.54974E-004	-3.27687E+002	7	...........
	376	377	3.66258E+000	1.63730E-006	0.00000E+000	5.99675E-006	0.00000E+000	7.53307E-004	-3.27687E+002	7	...........
	377	378	3.66257E+000	1.63701E-006	0.00000E+000	5.99567E-006	0.00000E+000	7.54324E-004	-3.27687E+002	7	...........
	378	379	3.66259E+000	1.63716E-006	0.00000E+000	5.99625E-006	0.00000E+000	7.55757E-004	-3.27687E+002	7	...........
	379	380	3.66260E+000	1.63804E-006	0.00000E+000	5.99947E-006	0.00000E+000	7.51807E-004	-3.27687E+002	7	...........
	380	381	3.66261E+000	1.63763E-006	0.00000E+000	5.99800E-006	0.00000E+000	7.52490E-004	-3.27687E+002	7	...........
	381	382	3.66262E+000	1.63718E-006	0.00000E+000	5.99637E-006	0.00000E+000	7.54224E-004	-3.27687E+002	7	...........
	382	383	3.66262E+000	1.63723E-006	0.00000E+000	5.99654E-006	0.00000E+000	7.54340E-004	-3.27687E+002	7	...........
	383	384	3.66262E+000	1.63678E-006	0.00000E+000	5.99492E-006	0.00000E+000	7.52474E-004	-3.27687E+002	7	...........
	384	385	3.66263E+000	1.63616E-006	0.00000E+000	5.99264E-006	0.00000E+000	7.54640E-004	-3.27687E+002	7	...........
	385	386	3.66264E+000	1.63624E-006	0.00000E+000	5.99297E-006	0.00000E+000	7.53307E-004	-3.27687E+002	7	...........
	386	387	3.66264E+000	1.63650E-006	0.00000E+000	5.99391E-006	0.00000E+000	7.53674E-004	-3.27687E+002	7	...........
	387	388	3.66265E+000	1.63741E-006	0.00000E+000	5.99727E-006	0.00000E+000	7.53357E-004	-3.27687E+002	7	...........
	388	389	3.66266E+000	1.63722E-006	0.00000E+000	5.99659E-006	0.00000E+000	7.50824E-004	-3.27687E+002	7	...........
	389	390	3.66266E+000	1.63649E-006	0.00000E+000	5.99392E-006	0.00000E+000	7.51907E-004	-3.27687E+002	7	...........
	390	391	3.66267E+000	1.63624E-006	0.00000E+000	5.99300E-006	0.00000E+000	7.55557E-004	-3.27687E+002	7	...........
	391	392	3.66268E+000	1.63704E-006	0.00000E+000	5.99594E-006	0.00000E+000	7.54724E-004	-3.27687E+002	7	...........
	392	393	3.66270E+000	1.63727E-006	0.00000E+000	5.99680E-006	0.00000E+000	7.52607E-004	-3.27687E+002	7	...........
	393	394	3.66269E+000	1.63691E-006	0.00000E+000	5.99551E-006	0.00000E+000	7.52840E-004	-3.27687E+002	7	...........
	394	395	3.66269E+000	1.63706E-006	0.00000E+000	5.99606E-006	0.00000E+000	7.53324E-004	-3.27687E+002	7	...........
	395	396	3.66269E+000	1.63669E-006	0.00000E+000	5.99466E-006	0.00000E+000	7.52407E-004	-3.27687E+002	7	...........
	396	397	3.66270E+000	1.63599E-006	0.00000E+000	5.99213E-006	0.00000E+000	7.51474E-004	-3.27687E+002	7	...........
	397	398	3.66270E+000	1.63596E-006	0.00000E+000	5.99202E-006	0.00000E+000	7.53707E-004	-3.27687E+002	7	...........
	398	399	3.66270E+000	1.63612E-006	0.00000E+000	5.99262E-006	0.00000E+000	7.52090E-004	-3.27687E+002	7	...........
	399	400	3.66272E+000	1.63647E-006	0.00000E+000	5.99392E-006	0.00000E+000	7.50007E-004	-3.27687E+002	7	...........
	400	401	3.66272E+000	1.63722E-006	0.00000E+000	5.99669E-006	0.00000E+000	7.52907E-004	-3.27687E+002	7	...........
	401	402	3.66272E+000	1.63652E-006	0.00000E+000	5.99411E-006	0.00000E+000	7.52657E-004	-3.27687E+002	7	...........
	402	403	3.66273E+000	1.63660E-006	0.00000E+000	5.99442E-006	0.00000E+000	7.53190E-004	-3.27687E+002	7	...........
	403	404	3.66274E+000	1.63677E-006	0.00000E+000	5.99506E-006	0.00000E+000	7.55024E-004	-3.27687E+002	7	...........
	404	405	3.66275E+000	1.63733E-006	0.00000E+000	5.99712E-006	0.00000E+000	7.52790E-004	-3.27687E+002	7	...........
	405	406	3.66275E+000	1.63709E-006	0.00000E+000	5.99625E-006	0.00000E+000	7.51724E-004	-3.27687E+002	7	...........
	406	407	3.66276E+000	1.63634E-006	0.00000E+000	5.99350E-006	0.00000E+000	7.51490E-004	-3.27687E+002	7	...........
	407	408	3.66277E+000	1.63652E-006	0.00000E+000	5.99419E-006	0.00000E+000	7.51824E-004	-3.27687E+002	7	...........
	408	409	3.66278E+000	1.63621E-006	0.00000E+000	5.99308E-006	0.00000E+000	7.53124E-004	-3.27687E+002	7	...........
	409	410	3.66278E+000	1.63584E-006	0.00000E+000	5.99170E-006	0.00000E+000	7.51974E-004	-3.27687E+002	7	...........
	410	411	3.66278E+000	1.63645E-006	0.00000E+000	5.99393E-006	0.00000E+000	7.53207E-004	-3.27687E+002	7	...........
	411	412	3.66278E+000	1.63649E-006	0.00000E+000	5.99411E-006	0.00000E+000	7.49590E-004	-3.27687E+002	7	...........
	412	413	3.66279E+000	1.63707E-006	0.00000E+000	5.99622E-006	0.00000E+000	7.51357E-004	-3.27687E+002	7	...........
	413	414	3.66280E+000	1.63649E-006	0.00000E+000	5.99413E-006	0.00000E+000	7.49974E-004	-3.27687E+002	7	...........
	414	415	3.66281E+000	1.63592E-006	0.00000E+000	5.99207E-006	0.00000E+000	7.50540E-004	-3.27687E+002	7	...........
	415	416	3.66281E+000	1.63638E-006	0.00000E+000	5.99376E-006	0.00000E+000	7.51024E-004	-3.27687E+002	7	...........
	416	417	3.66281E+000	1.63617E-006	0.00000E+000	5.99300E-006	0.00000E+000	7.51457E-004	-3.27687E+002	7	...........
	417	418	3.66282E+000	1.63673E-006	0.00000E+000	5.99504E-006	0.00000E+000	7.51990E-004	-3.27687E+002	7	...........
	418	419	3.66283E+000	1.63685E-006	0.00000E+000	5.99552E-006	0.00000E+000	7.51307E-004	-3.27687E+002	7	...........
	419	420	3.66284E+000	1.63681E-006	0.00000E+000	5.99536E-006	0.00000E+000	7.51774E-004	-3.27687E+002	7	...........
	420	421	3.66284E+000	1.63626E-006	0.00000E+000	5.99335E-006	0.00000E+000	7.52207E-004	-3.27687E+002	7	...........
	421	422	3.66285E+000	1.63640E-006	0.00000E+000	5.99387E-006	0.00000E+000	7.49390E-004	-3.27687E+002	7	...........
	422	423	3.66285E+000	1.63627E-006	0.00000E+000	5.99343E-006	0.00000E+000	7.51057E-004	-3.27687E+002	7	...........
	423	424	3.66286E+000	1.63656E-006	0.00000E+000	5.99449E-006	0.00000E+000	7.49707E-004	-3.27687E+002	7	...........
	424	425	3.66286E+000	1.63721E-006	0.00000E+000	5.99688E-006	0.00000E+000	7.52190E-004	-3.27687E+002	7	...........
	425	426	3.66287E+000	1.63661E-006	0.00000E+000	5.99468E-006	0.00000E+000	7.49807E-004	-3.27687E+002	7	...........
	426	427	3.66287E+000	1.63568E-006	0.00000E+000	5.99130E-006	0.00000E+000	7.53157E-004	-3.27687E+002	7	...........
	427	428	3.66288E+000	1.63619E-006	0.00000E+000	5.99318E-006	0.00000E+000	7.52090E-004	-3.27687E+002	7	...........
	428	429	3.66288E+000	1.63682E-006	0.00000E+000	5.99546E-006	0.00000E+000	7.50107E-004	-3.27687E+002	7	...........
	429	430	3.66289E+000	1.63731E-006	0.00000E+000	5.99727E-006	0.00000E+000	7.51140E-004	-3.27687E+002	7	...........
	430	431	3.66290E+000	1.63791E-006	0.00000E+000	5.99949E-006	0.00000E+000	7.50857E-004	-3.27687E+002	7	...........
	431	432	3.66291E+000	1.63735E-006	0.00000E+000	5.99747E-006	0.00000E+000	7.52057E-004	-3.27687E+002	7	...........
	432	433	3.66291E+000	1.63657E-006	0.00000E+000	5.99461E-006	0.00000E+000	7.51240E-004	-3.27687E+002	7	...........
	433	434	3.66291E+000	1.63642E-006	0.00000E+000	5.99406E-006	0.00000E+000	7.50390E-004	-3.27687E+002	7	...........
	434	435	3.66292E+000	1.63638E-006	0.00000E+000	5.99394E-006	0.00000E+000	7.52490E-004	-3.27687E+002	7	...........
	435	436	3.66293E+000	1.63658E-006	0.00000E+000	5.99468E-006	0.00000E+000	7.52674E-004	-3.27687E+002	7	...........
	436	437	3.66293E+000	1.63715E-006	0.00000E+000	5.99675E-006	0.00000E+000	7.50757E-004	-3.27687E+002	7	...........
	437	438	3.66293E+000	1.63727E-006	0.00000E+000	5.99722E-006	0.00000E+000	7.52257E-004	-3.27687E+002	7	...........
	438	439	3.66294E+000	1.63667E-006	0.00000E+000	5.99502E-006	0.00000E+000	7.50374E-004	-3.27687E+002	7	...........
	439	440	3.66294E+000	1.63684E-006	0.00000E+000	5.99563E-006	0.00000E+000	7.50557E-004	-3.27687E+002	7	...........
	440	441	3.66295E+000	1.63664E-006	0.00000E+000	5.99495E-006	0.00000E+000	7.52340E-004	-3.27687E+002	7	...........
	441	442	3.66295E+000	1.63725E-006	0.00000E+000	5.99717E-006	0.00000E+000	7.51657E-004	-3.27687E+002	7	...........
	442	443	3.66296E+000	1.63735E-006	0.00000E+000	5.99755E-006	0.00000E+000	7.52940E-004	-3.27687E+002	7	...........
	443	444	3.66297E+000	1.63642E-006	0.00000E+000	5.99415E-006	0.00000E+000	7.52207E-004	-3.27687E+002	7	...........
	444	445	3.66298E+000	1.63666E-006	0.00000E+000	5.99505E-006	0.00000E+000	7.49724E-004	-3.27687E+002	7	...........
	445	446	3.66298E+000	1.63664E-006	0.00000E+000	5.99500E-006	0.00000E+000	7.51074E-004	-3.27687E+002	7	...........
	446	447	3.66298E+000	1.63625E-006	0.00000E+000	5.99357E-006	0.00000E+000	7.50890E-004	-3.27687E+002	7	...........
	447	448	3.66298E+000	1.63595E-006	0.00000E+000	5.99245E-006	0.00000E+000	7.51024E-004	-3.27687E+002	7	...........
	448	449	3.66300E+000	1.63641E-006	0.00000E+000	5.99416E-006	0.00000E+000	7.51140E-004	-3.27687E+002	7	...........
	449	450	3.66301E+000	1.63670E-006	0.00000E+000	5.99526E-006	0.00000E+000	7.50507E-004	-3.27687E+002	7	...........
	450	451	3.66302E+000	1.63605E-006	0.00000E+000	5.99290E-006	0.00000E+000	7.50224E-004	-3.27687E+002	7	...........
	451	452	3.66301E+000	1.63571E-006	0.00000E+000	5.99162E-006	0.00000E+000	7.53474E-004	-3.27687E+002	7	...........
	452	453	3.66301E+000	1.63617E-006	0.00000E+000	5.99330E-006	0.00000E+000	7.51140E-004	-3.27687E+002	7	...........
	453	454	3.66302E+000	1.63627E-006	0.00000E+000	5.99370E-006	0.00000E+000	7.49724E-004	-3.27687E+002	7	...........
	454	455	3.66303E+000	1.63611E-006	0.00000E+000	5.99311E-006	0.00000E+000	7.52024E-004	-3.27687E+002	7	...........
	455	456	3.66303E+000	1.63609E-006	0.00000E+000	5.99307E-006	0.00000E+000	7.50724E-004	-3.27687E+002	7	...........
	456	457	3.66305E+000	1.63569E-006	0.00000E+000	5.99161E-006	0.00000E+000	7.51240E-004	-3.27687E+002	7	...........
	457	458	3.66303E+000	1.63569E-006	0.00000E+000	5.99157E-006	0.00000E+000	7.50657E-004	-3.27687E+002	7	...........
	458	459	3.66304E+000	1.63509E-006	0.00000E+000	5.98939E-006	0.00000E+000	7.50874E-004	-3.27687E+002	7	...........
	459	460	3.66304E+000	1.63541E-006	0.00000E+000	5.99056E-006	0.00000E+000	7.51357E-004	-3.27687E+002	7	...........
	460	461	3.66306E+000	1.63613E-006	0.00000E+000	5.99325E-006	0.00000E+000	7.51640E-004	-3.27687E+002	7	...........
	461	462	3.66306E+000	1.63665E-006	0.00000E+000	5.99513E-006	0.00000E+000	7.53557E-004	-3.27687E+002	7	...........
	462	463	3.66307E+000	1.63628E-006	0.00000E+000	5.99382E-006	0.00000E+000	7.50590E-004	-3.27687E+002	7	...........
	463	464	3.66308E+000	1.63572E-006	0.00000E+000	5.99175E-006	0.00000E+000	7.51857E-004	-3.27687E+002	7	...........
	464	465	3.66307E+000	1.63581E-006	0.00000E+000	5.99209E-006	0.00000E+000	7.53307E-004	-3.27687E+002	7	...........
	465	466	3.66307E+000	1.63604E-006	0.00000E+000	5.99291E-006	0.00000E+000	7.50407E-004	-3.27687E+002	7	...........
	466	467	3.66309E+000	1.63645E-006	0.00000E+000	5.99446E-006	0.00000E+000	7.51440E-004	-3.27687E+002	7	...........
	467	468	3.66308E+000	1.63643E-006	0.00000E+000	5.99438E-006	0.00000E+000	7.53657E-004	-3.27687E+002	7	...........
	468	469	3.66309E+000	1.63619E-006	0.00000E+000	5.99353E-006	0.00000E+000	7.52224E-004	-3.27687E+002	7	...........
	469	470	3.66310E+000	1.63580E-006	0.00000E+000	5.99209E-006	0.00000E+000	7.51890E-004	-3.27687E+002	7	...........
	470	471	3.66311E+000	1.63631E-006	0.00000E+000	5.99397E-006	0.00000E+000	7.55524E-004	-3.27687E+002	7	...........
	471	472	3.66311E+000	1.63644E-006	0.00000E+000	5.99447E-006	0.00000E+000	7.50707E-004	-3.27687E+002	7	...........
	472	473	3.66311E+000	1.63701E-006	0.00000E+000	5.99653E-006	0.00000E+000	7.49624E-004	-3.27687E+002	7	...........
	473	474	3.66311E+000	1.63761E-006	0.00000E+000	5.99874E-006	0.00000E+000	7.52124E-004	-3.27687E+002	7	...........
	474	475	3.66312E+000	1.63712E-006	0.00000E+000	5.99695E-006	0.00000E+000	7.51157E-004	-3.27687E+002	7	...........
	475	476	3.66313E+000	1.63669E-006	0.00000E+000	5.99540E-006	0.00000E+000	7.52257E-004	-3.27687E+002	7	...........
	476	477	3.66313E+000	1.63724E-006	0.00000E+000	5.99742E-006	0.00000E+000	7.50274E-004	-3.27687E+002	7	...........
	477	478	3.66314E+000	1.63691E-006	0.00000E+000	5.99622E-006	0.00000E+000	7.51540E-004	-3.27687E+002	7	...........
	478	479	3.66314E+000	1.63721E-006	0.00000E+000	5.99733E-006	0.00000E+000	7.50874E-004	-3.27687E+002	7	...........
	479	480	3.66315E+000	1.63719E-006	0.00000E+000	5.99727E-006	0.00000E+000	7.53507E-004	-3.27687E+002	7	...........
	480	481	3.66316E+000	1.63724E-006	0.00000E+000	5.99749E-006	0.00000E+000	7.52724E-004	-3.27687E+002	7	...........
	481	482	3.66315E+000	1.63672E-006	0.00000E+000	5.99554E-006	0.00000E+000	7.51590E-004	-3.27687E+002	7	...........
	482	483	3.66316E+000	1.63641E-006	0.00000E+000	5.99442E-006	0.00000E+000	7.53707E-004	-3.27687E+002	7	...........
	483	484	3.66316E+000	1.63606E-006	0.00000E+000	5.99315E-006	0.00000E+000	7.50707E-004	-3.27687E+002	7	...........
	484	485	3.66317E+000	1.63649E-006	0.00000E+000	5.99475E-006	0.00000E+000	7.51624E-004	-3.27687E+002	7	...........
	485	486	3.66317E+000	1.63708E-006	0.00000E+000	5.99691E-006	0.00000E+000	7.53174E-004	-3.27687E+002	7	...........
	486	487	3.66318E+000	1.63705E-006	0.00000E+000	5.99682E-006	0.00000E+000	7.55240E-004	-3.27687E+002	7	...........
	487	488	3.66319E+000	1.63639E-006	0.00000E+000	5.99439E-006	0.00000E+000	7.52040E-004	-3.27687E+002	7	...........
	488	489	3.66320E+000	1.63673E-006	0.00000E+000	5.99565E-006	0.00000E+000	7.50907E-004	-3.27687E+002	7	...........
	489	490	3.66320E+000	1.63659E-006	0.00000E+000	5.99515E-006	0.00000E+000	7.52124E-004	-3.27687E+002	7	...........
	490	491	3.66320E+000	1.63676E-006	0.00000E+000	5.99579E-006	0.00000E+000	7.52640E-004	-3.27687E+002	7	...........
	491	492	3.66320E+000	1.63645E-006	0.00000E+000	5.99464E-006	0.00000E+000	7.52724E-004	-3.27687E+002	7	...........
	492	493	3.66321E+000	1.63625E-006	0.00000E+000	5.99393E-006	0.00000E+000	7.52224E-004	-3.27687E+002	7	...........
	493	494	3.66321E+000	1.63653E-006	0.00000E+000	5.99495E-006	0.00000E+000	7.50990E-004	-3.27687E+002	7	...........
	494	495	3.66322E+000	1.63554E-006	0.00000E+000	5.99134E-006	0.00000E+000	7.54107E-004	-3.27687E+002	7	...........
	495	496	3.66322E+000	1.63589E-006	0.00000E+000	5.99261E-006	0.00000E+000	7.52540E-004	-3.27687E+002	7	...........
	496	497	3.66323E+000	1.63599E-006	0.00000E+000	5.99303E-006	0.00000E+000	7.54790E-004	-3.27687E+002	7	...........
	497	498	3.66322E+000	1.63644E-006	0.00000E+000	5.99465E-006	0.00000E+000	7.53357E-004	-3.27687E+002	7	...........
	498	499	3.66324E+000	1.63712E-006	0.00000E+000	5.99717E-006	0.00000E+000	7.54057E-004	-3.27687E+002	7	...........
	499	500	3.66323E+000	1.63652E-006	0.00000E+000	5.99495E-006	0.00000E+000	7.52774E-004	-3.27687E+002	7	...........
	500	501	3.66325E+000	1.63603E-006	0.00000E+000	5.99319E-006	0.00000E+000	7.54107E-004	-3.27687E+002	7	...........
	501	502	3.66324E+000	1.63678E-006	0.00000E+000	5.99593E-006	0.00000E+000	7.52440E-004	-3.27687E+002	7	...........
	502	503	3.66325E+000	1.63688E-006	0.00000E+000	5.99630E-006	0.00000E+000	7.56740E-004	-3.27687E+002	7	...........
	503	504	3.66326E+000	1.63682E-006	0.00000E+000	5.99608E-006	0.00000E+000	7.54874E-004	-3.27687E+002	7	...........
	504	505	3.66326E+000	1.63676E-006	0.00000E+000	5.99587E-006	0.00000E+000	7.53807E-004	-3.27687E+002	7	...........
	505	506	3.66327E+000	1.63670E-006	0.00000E+000	5.99566E-006	0.00000E+000	7.54824E-004	-3.27687E+002	7	...........
	506	507	3.66327E+000	1.63640E-006	0.00000E+000	5.99458E-006	0.00000E+000	7.53057E-004	-3.27687E+002	7	...........
	507	508	3.66327E+000	1.63592E-006	0.00000E+000	5.99280E-006	0.00000E+000	7.57657E-004	-3.27687E+002	7	...........
	508	509	3.66328E+000	1.63684E-006	0.00000E+000	5.99621E-006	0.00000E+000	7.54657E-004	-3.27687E+002	7	...........
	509	510	3.66329E+000	1.63711E-006	0.00000E+000	5.99721E-006	0.00000E+000	7.54524E-004	-3.27687E+002	7	...........
	510	511	3.66329E+000	1.63765E-006	0.00000E+000	5.99919E-006	0.00000E+000	7.53957E-004	-3.27687E+002	7	...........
	511	512	3.66329E+000	1.63663E-006	0.00000E+000	5.99545E-006	0.00000E+000	7.54440E-004	-3.27687E+002	7	...........
	512	513	3.66329E+000	1.63618E-006	0.00000E+000	5.99380E-006	0.00000E+000	7.53190E-004	-3.27687E+002	7	...........
	513	514	3.66330E+000	1.63619E-006	0.00000E+000	5.99387E-006	0.00000E+000	7.54090E-004	-3.27687E+002	7	...........
	514	515	3.66331E+000	1.63660E-006	0.00000E+000	5.99536E-006	0.00000E+000	7.51840E-004	-3.27687E+002	7	...........
	515	516	3.66330E+000	1.63681E-006	0.00000E+000	5.99612E-006	0.00000E+000	7.53474E-004	-3.27687E+002	7	...........
	516	517	3.66331E+000	1.63648E-006	0.00000E+000	5.99494E-006	0.00000E+000	7.52107E-004	-3.27687E+002	7	...........
	517	518	3.66331E+000	1.63647E-006	0.00000E+000	5.99491E-006	0.00000E+000	7.56457E-004	-3.27687E+002	7	...........
	518	519	3.66331E+000	1.63639E-006	0.00000E+000	5.99459E-006	0.00000E+000	7.54774E-004	-3.27687E+002	7	...........
	519	520	3.66333E+000	1.63574E-006	0.00000E+000	5.99223E-006	0.00000E+000	7.55040E-004	-3.27687E+002	7	...........
	520	521	3.66332E+000	1.63591E-006	0.00000E+000	5.99285E-006	0.00000E+000	7.53807E-004	-3.27687E+002	7	...........
	521	522	3.66333E+000	1.63609E-006	0.00000E+000	5.99354E-006	0.00000E+000	7.57290E-004	-3.27687E+002	7	...........
	522	523	3.66333E+000	1.63657E-006	0.00000E+000	5.99531E-006	0.00000E+000	7.53590E-004	-3.27687E+002	7	...........
	523	524	3.66333E+000	1.63615E-006	0.00000E+000	5.99376E-006	0.00000E+000	7.55657E-004	-3.27687E+002	7	...........
	524	525	3.66334E+000	1.63579E-006	0.00000E+000	5.99245E-006	0.00000E+000	7.55990E-004	-3.27687E+002	7	...........
	525	526	3.66334E+000	1.63571E-006	0.00000E+000	5.99218E-006	0.00000E+000	7.55140E-004	-3.27687E+002	7	...........
	526	527	3.66335E+000	1.63659E-006	0.00000E+000	5.99541E-006	0.00000E+000	7.54507E-004	-3.27687E+002	7	...........
	527	528	3.66335E+000	1.63665E-006	0.00000E+000	5.99563E-006	0.00000E+000	7.57240E-004	-3.27687E+002	7	...........
	528	529	3.66336E+000	1.63616E-006	0.00000E+000	5.99384E-006	0.00000E+000	7.54707E-004	-3.27687E+002	7	...........
	529	530	3.66337E+000	1.63620E-006	0.00000E+000	5.99401E-006	0.00000E+000	7.54590E-004	-3.27687E+002	7	...........
	530	531	3.66337E+000	1.63546E-006	0.00000E+000	5.99130E-006	0.00000E+000	7.55257E-004	-3.27687E+002	7	...........
	531	532	3.66338E+000	1.63542E-006	0.00000E+000	5.99118E-006	0.00000E+000	7.56607E-004	-3.27687E+002	7	...........
	532	533	3.66339E+000	1.63602E-006	0.00000E+000	5.99339E-006	0.00000E+000	7.55790E-004	-3.27687E+002	7	...........
	533	534	3.66338E+000	1.63623E-006	0.00000E+000	5.99413E-006	0.00000E+000	7.55057E-004	-3.27687E+002	7	...........
	534	535	3.66338E+000	1.63679E-006	0.00000E+000	5.99618E-006	0.00000E+000	7.54657E-004	-3.27687E+002	7	...........
	535	536	3.66339E+000	1.63605E-006	0.00000E+000	5.99348E-006	0.00000E+000	7.54807E-004	-3.27687E+002	7	...........
	536	537	3.66339E+000	1.63567E-006	0.00000E+000	5.99209E-006	0.00000E+000	7.54674E-004	-3.27687E+002	7	...........
	537	538	3.66340E+000	1.63556E-006	0.00000E+000	5.99169E-006	0.00000E+000	7.57407E-004	-3.27687E+002	7	...........
	538	539	3.66340E+000	1.63594E-006	0.00000E+000	5.99310E-006	0.00000E+000	7.56740E-004	-3.27687E+002	7	...........
	539	540	3.66341E+000	1.63585E-006	0.00000E+000	5.99278E-006	0.00000E+000	7.54657E-004	-3.27687E+002	7	...........
	540	541	3.66340E+000	1.63611E-006	0.00000E+000	5.99374E-006	0.00000E+000	7.56290E-004	-3.27687E+002	7	...........
	541	542	3.66341E+000	1.63582E-006	0.00000E+000	5.99269E-006	0.00000E+000	7.55774E-004	-3.27687E+002	7	...........
	542	543	3.66341E+000	1.63528E-006	0.00000E+000	5.99072E-006	0.00000E+000	7.55174E-004	-3.27687E+002	7	...........
	543	544	3.66340E+000	1.63520E-006	0.00000E+000	5.99039E-006	0.00000E+000	7.56674E-004	-3.27687E+002	7	...........
	544	545	3.66342E+000	1.63522E-006	0.00000E+000	5.99049E-006	0.00000E+000	7.54357E-004	-3.27687E+002	7	...........
	545	546	3.66342E+000	1.63560E-006	0.00000E+000	5.99189E-006	0.00000E+000	7.58740E-004	-3.27687E+002	7	...........
	546	547	3.66343E+000	1.63551E-006	0.00000E+000	5.99155E-006	0.00000E+000	7.55724E-004	-3.27687E+002	7	...........
	547	548	3.66342E+000	1.63562E-006	0.00000E+000	5.99196E-006	0.00000E+000	7.54790E-004	-3.27687E+002	7	...........
	548	549	3.66343E+000	1.63494E-006	0.00000E+000	5.98949E-006	0.00000E+000	7.56724E-004	-3.27687E+002	7	...........
	549	550	3.66344E+000	1.63490E-006	0.00000E+000	5.98936E-006	0.00000E+000	7.57857E-004	-3.27687E+002	7	...........
	550	551	3.66344E+000	1.63543E-006	0.00000E+000	5.99131E-006	0.00000E+000	7.57207E-004	-3.27687E+002	7	...........
	551	552	3.66345E+000	1.63521E-006	0.00000E+000	5.99051E-006	0.00000E+000	7.55940E-004	-3.27687E+002	7	...........
	552	553	3.66345E+000	1.63544E-006	0.00000E+000	5.99133E-006	0.00000E+000	7.55257E-004	-3.27687E+002	7	...........
	553	554	3.66345E+000	1.63533E-006	0.00000E+000	5.99096E-006	0.00000E+000	7.57174E-004	-3.27687E+002	7	...........
	554	555	3.66346E+000	1.63564E-006	0.00000E+000	5.99208E-006	0.00000E+000	7.57224E-004	-3.27687E+002	7	...........
	555	556	3.66347E+000	1.63501E-006	0.00000E+000	5.98980E-006	0.00000E+000	7.54924E-004	-3.27687E+002	7	...........
	556	557	3.66346E+000	1.63465E-006	0.00000E+000	5.98848E-006	0.00000E+000	7.55607E-004	-3.27687E+002	7	...........
	557	558	3.66347E+000	1.63466E-006	0.00000E+000	5.98853E-006	0.00000E+000	7.54657E-004	-3.27687E+002	7	...........
	558	559	3.66347E+000	1.63517E-006	0.00000E+000	5.99041E-006	0.00000E+000	7.58107E-004	-3.27687E+002	7	...........
	559	560	3.66348E+000	1.63554E-006	0.00000E+000	5.99176E-006	0.00000E+000	7.56440E-004	-3.27687E+002	7	...........
	560	561	3.66348E+000	1.63491E-006	0.00000E+000	5.98944E-006	0.00000E+000	7.55674E-004	-3.27687E+002	7	...........
	561	562	3.66348E+000	1.63511E-006	0.00000E+000	5.99020E-006	0.00000E+000	7.55774E-004	-3.27687E+002	7	...........
	562	563	3.66348E+000	1.63472E-006	0.00000E+000	5.98876E-006	0.00000E+000	7.56224E-004	-3.27687E+002	7	...........
	563	564	3.66348E+000	1.63513E-006	0.00000E+000	5.99028E-006	0.00000E+000	7.56457E-004	-3.27687E+002	7	...........
	564	565	3.66349E+000	1.63534E-006	0.00000E+000	5.99105E-006	0.00000E+000	7.57190E-004	-3.27687E+002	7	...........
	565	566	3.66349E+000	1.63489E-006	0.00000E+000	5.98941E-006	0.00000E+000	7.57274E-004	-3.27687E+002	7	...........
	566	567	3.66350E+000	1.63468E-006	0.00000E+000	5.98864E-006	0.00000E+000	7.55774E-004	-3.27687E+002	7	...........
	567	568	3.66350E+000	1.63419E-006	0.00000E+000	5.98686E-006	0.00000E+000	7.54440E-004	-3.27687E+002	7	...........
	568	569	3.66350E+000	1.63424E-006	0.00000E+000	5.98704E-006	0.00000E+000	7.57274E-004	-3.27687E+002	7	...........
	569	570	3.66352E+000	1.63405E-006	0.00000E+000	5.98638E-006	0.00000E+000	7.56574E-004	-3.27687E+002	7	...........
	570	571	3.66352E+000	1.63458E-006	0.00000E+000	5.98831E-006	0.00000E+000	7.56290E-004	-3.27687E+002	7	...........
	571	572	3.66352E+000	1.63544E-006	0.00000E+000	5.99147E-006	0.00000E+000	7.59690E-004	-3.27687E+002	7	...........
	572	573	3.66352E+000	1.63546E-006	0.00000E+000	5.99153E-006	0.00000E+000	7.57524E-004	-3.27687E+002	7	...........
	573	574	3.66353E+000	1.63496E-006	0.00000E+000	5.98972E-006	0.00000E+000	7.57724E-004	-3.27687E+002	7	...........
	574	575	3.66353E+000	1.63536E-006	0.00000E+000	5.99118E-006	0.00000E+000	7.57974E-004	-3.27687E+002	7	...........
	575	576	3.66352E+000	1.63600E-006	0.00000E+000	5.99351E-006	0.00000E+000	7.58207E-004	-3.27687E+002	7	...........
	576	577	3.66353E+000	1.63620E-006	0.00000E+000	5.99426E-006	0.00000E+000	7.55790E-004	-3.27687E+002	7	...........
	577	578	3.66354E+000	1.63562E-006	0.00000E+000	5.99214E-006	0.00000E+000	7.56874E-004	-3.27687E+002	7	...........
	578	579	3.66354E+000	1.63536E-006	0.00000E+000	5.99122E-006	0.00000E+000	7.59774E-004	-3.27687E+002	7	...........
	579	580	3.66354E+000	1.63580E-006	0.00000E+000	5.99281E-006	0.00000E+000	7.58790E-004	-3.27687E+002	7	...........
	580	581	3.66354E+000	1.63501E-006	0.00000E+000	5.98992E-006	0.00000E+000	7.57940E-004	-3.27687E+002	7	...........
	581	582	3.66356E+000	1.63535E-006	0.00000E+000	5.99120E-006	0.00000E+000	7.58674E-004	-3.27687E+002	7	...........
	582	583	3.66356E+000	1.63552E-006	0.00000E+000	5.99183E-006	0.00000E+000	7.58857E-004	-3.27687E+002	7	...........
	583	584	3.66357E+000	1.63591E-006	0.00000E+000	5.99326E-006	0.00000E+000	7.56907E-004	-3.27687E+002	7	...........
	584	585	3.66357E+000	1.63563E-006	0.00000E+000	5.99226E-006	0.00000E+000	7.58390E-004	-3.27687E+002	7	...........
	585	586	3.66358E+000	1.63461E-006	0.00000E+000	5.98853E-006	0.00000E+000	7.58624E-004	-3.27687E+002	7	...........
	586	587	3.66358E+000	1.63479E-006	0.00000E+000	5.98917E-006	0.00000E+000	7.59174E-004	-3.27687E+002	7	...........
	587	588	3.66358E+000	1.63455E-006	0.00000E+000	5.98832E-006	0.00000E+000	7.58174E-004	-3.27687E+002	7	...........
	588	589	3.66358E+000	1.63490E-006	0.00000E+000	5.98960E-006	0.00000E+000	7.58540E-004	-3.27687E+002	7	...........
	589	590	3.66359E+000	1.63533E-006	0.00000E+000	5.99116E-006	0.00000E+000	7.59407E-004	-3.27687E+002	7	...........
	590	591	3.66359E+000	1.63483E-006	0.00000E+000	5.98934E-006	0.00000E+000	7.56140E-004	-3.27687E+002	7	...........
	591	592	3.66359E+000	1.63499E-006	0.00000E+000	5.98991E-006	0.00000E+000	7.58824E-004	-3.27687E+002	7	...........
	592	593	3.66359E+000	1.63455E-006	0.00000E+000	5.98834E-006	0.00000E+000	7.59607E-004	-3.27687E+002	7	...........
	593	594	3.66360E+000	1.63492E-006	0.00000E+000	5.98970E-006	0.00000E+000	7.58407E-004	-3.27687E+002	7	...........
	594	595	3.66361E+000	1.63531E-006	0.00000E+000	5.99112E-006	0.00000E+000	7.58174E-004	-3.27687E+002	7	...........
	595	596	3.66361E+000	1.63567E-006	0.00000E+000	5.99245E-006	0.00000E+000	7.56074E-004	-3.27687E+002	7	...........
	596	597	3.66361E+000	1.63599E-006	0.00000E+000	5.99364E-006	0.00000E+000	7.57757E-004	-3.27687E+002	7	...........
	597	598	3.66361E+000	1.63525E-006	0.00000E+000	5.99091E-006	0.00000E+000	7.59124E-004	-3.27687E+002	7	...........
	598	599	3.66362E+000	1.63528E-006	0.00000E+000	5.99106E-006	0.00000E+000	7.60674E-004	-3.27687E+002	7	...........
	599	600	3.66363E+000	1.63508E-006	0.00000E+000	5.99034E-006	0.00000E+000	7.59490E-004	-3.27687E+002	7	...........
