EXPLAIN
TAG	PWR800_READVOLTAGE
TITLE	LABEL	PWR Read Voltage	Test Identifier
DATE	LABEL	24.5.2024	Date
TIME	LABEL	16:57:25	Time
NOTES	NOTES	1	Notes...
	
PSTAT	PSTAT	REF600-12055	Potentiostat
CAPACITY	QUANT	1.00000E+000	Capacity (A-hr)
CELLTYPE	SELECTOR	1	Cell Type
WORKINGCONNECTION	SELECTOR	0	Working Connection
MAXTIME	VARIABLEANDUNITS	6.00000E+002	s	6.00000E+002	second(s)	Max Time
SAMPLETIME	QUANT	1.00000E+000	Sample Period (s)
STOPAT1	MULTIPARAM	0	0.00000E+000	Stop At 1	None	N/A
STOPAT2	MULTIPARAM	0	0.00000E+000	Stop At 2	None	N/A
AESBHCSELECTOR	TOGGLE	F	Save Both Half Cells
EOC	QUANT	3.71872	Open Circuit (V)
SEQUENCER	TOGGLE	TRUE	Run as Sequence
PSTATMODEL	IQUANT	4	Pstat Model
PSTATSECTION	LABEL	REF600-12055	Pstat Section
PSTATSERIALNO	LABEL	12055	Pstat Serial Number
CTRLMODE	IQUANT	0	Control Mode
ELECTROMETER	IQUANT	0	RE=0 or CS=1
IESTAB	IQUANT	0	I/E Stability
CASPEED	IQUANT	4	Control Amp Speed
CONVENTION	IQUANT	1	Current Convention
ICHRANGE	IQUANT	2	Ich Range
ICHRANGEMODE	TOGGLE	T	Ich Auto Range
ICHOFFSETENABLE	TOGGLE	F	Ich Offset Enable
ICHOFFSET	QUANT	0	Ich Offset (V)
ICHFILTER	IQUANT	1	Ich Filter
VCHRANGE	IQUANT	3	Vch Range
VCHRANGEMODE	TOGGLE	T	Vch Auto Range
VCHOFFSETENABLE	TOGGLE	F	Vch Offset Enable
VCHOFFSET	QUANT	0	Vch Offset (V)
VCHFILTER	IQUANT	1	Vch Filter
ACHRANGE	IQUANT	2	Ach Range
ACHOFFSETENABLE	TOGGLE	F	Ach Offset Enable
ACHOFFSET	QUANT	0	Ach Offset (V)
ACHFILTER	IQUANT	1	Ach Filter
IERANGELOWERLIMIT	IQUANT	7	I/E Range Lower Limit
IERANGEMODE	TOGGLE	F	I/E AutoRange
IERANGE	IQUANT	11	I/E Range
POSFEEDENABLE	TOGGLE	F	Positive Feedback IR Comp
POSFEEDRESISTANCE	QUANT	0	Positive Feedback Resistance (ohm)
ACHSELECT	IQUANT	4	Ach Select
SENSECABLEID	IQUANT	14	Sense Cable ID
PWRCABLEID	IQUANT	14	Power Cable ID
DCCALDATE	LABEL	2/12/2024	DC Calibration Date
ACCALDATE	LABEL	2/12/2024	AC Calibration Date
THERMOSELECT	IQUANT	1	Thermo Select
FRAMEWORKVERSION	LABEL	7.10.3	Framework Version
INSTRUMENTVERSION	LABEL	4.91	Instrument Version
COMMVERSION	LABEL	2.24	Communications Version
CPUPLDVERSION	LABEL	0.00	CPU PLD Version
CTRLPLDVERSION	LABEL	0.00	CTRL PLD Version
PSTATPLDVERSION	LABEL	0.00	PSTAT PLD Version
CURVE	TABLE	600
	Pt	T	Vf	Im	Vu	Pwr	Sig	Ach	Temp	IERange	Over
	#	s	V	A	V	W	V	V	deg C	#	bits
	0	1	3.83164E+000	8.41207E-007	0.00000E+000	3.22321E-006	0.00000E+000	9.86240E-004	-3.27687E+002	7	...........
	1	2	3.83136E+000	8.39912E-007	0.00000E+000	3.21800E-006	0.00000E+000	9.78840E-004	-3.27687E+002	7	...........
	2	3	3.83115E+000	8.39510E-007	0.00000E+000	3.21629E-006	0.00000E+000	9.75157E-004	-3.27687E+002	7	...........
	3	4	3.83097E+000	8.39418E-007	0.00000E+000	3.21578E-006	0.00000E+000	9.74890E-004	-3.27687E+002	7	...........
	4	5	3.83081E+000	8.39427E-007	0.00000E+000	3.21569E-006	0.00000E+000	9.78157E-004	-3.27687E+002	7	...........
	5	6	3.83066E+000	8.39001E-007	0.00000E+000	3.21393E-006	0.00000E+000	9.81490E-004	-3.27687E+002	7	...........
	6	7	3.83053E+000	8.38381E-007	0.00000E+000	3.21144E-006	0.00000E+000	9.86240E-004	-3.27687E+002	7	...........
	7	8	3.83040E+000	8.38050E-007	0.00000E+000	3.21007E-006	0.00000E+000	9.89324E-004	-3.27687E+002	7	...........
	8	9	3.83027E+000	8.38214E-007	0.00000E+000	3.21058E-006	0.00000E+000	9.90924E-004	-3.27687E+002	7	...........
	9	10	3.83016E+000	8.39111E-007	0.00000E+000	3.21393E-006	0.00000E+000	9.92290E-004	-3.27687E+002	7	...........
	10	11	3.83005E+000	8.38806E-007	0.00000E+000	3.21267E-006	0.00000E+000	9.92324E-004	-3.27687E+002	7	...........
	11	12	3.82997E+000	8.38135E-007	0.00000E+000	3.21003E-006	0.00000E+000	9.90657E-004	-3.27687E+002	7	...........
	12	13	3.82986E+000	8.38478E-007	0.00000E+000	3.21125E-006	0.00000E+000	9.91924E-004	-3.27687E+002	7	...........
	13	14	3.82978E+000	8.38654E-007	0.00000E+000	3.21186E-006	0.00000E+000	9.88574E-004	-3.27687E+002	7	...........
	14	15	3.82969E+000	8.38543E-007	0.00000E+000	3.21136E-006	0.00000E+000	9.87307E-004	-3.27687E+002	7	...........
	15	16	3.82959E+000	8.39329E-007	0.00000E+000	3.21429E-006	0.00000E+000	9.86257E-004	-3.27687E+002	7	...........
	16	17	3.82951E+000	8.38308E-007	0.00000E+000	3.21031E-006	0.00000E+000	9.86907E-004	-3.27687E+002	7	...........
	17	18	3.82944E+000	8.38824E-007	0.00000E+000	3.21222E-006	0.00000E+000	9.85524E-004	-3.27687E+002	7	...........
	18	19	3.82937E+000	8.39939E-007	0.00000E+000	3.21644E-006	0.00000E+000	9.85874E-004	-3.27687E+002	7	...........
	19	20	3.82930E+000	8.38761E-007	0.00000E+000	3.21186E-006	0.00000E+000	9.86840E-004	-3.27687E+002	7	...........
	20	21	3.82923E+000	8.38271E-007	0.00000E+000	3.20993E-006	0.00000E+000	8.17307E-004	-3.27687E+002	7	...........
	21	22	3.82916E+000	8.38471E-007	0.00000E+000	3.21064E-006	0.00000E+000	7.41940E-004	-3.27687E+002	7	...........
	22	23	3.82908E+000	8.38629E-007	0.00000E+000	3.21118E-006	0.00000E+000	7.43057E-004	-3.27687E+002	7	...........
	23	24	3.82901E+000	8.38917E-007	0.00000E+000	3.21222E-006	0.00000E+000	7.44957E-004	-3.27687E+002	7	...........
	24	25	3.82894E+000	8.39001E-007	0.00000E+000	3.21248E-006	0.00000E+000	7.47824E-004	-3.27687E+002	7	...........
	25	26	3.82888E+000	8.39326E-007	0.00000E+000	3.21368E-006	0.00000E+000	7.46190E-004	-3.27687E+002	7	...........
	26	27	3.82879E+000	8.38857E-007	0.00000E+000	3.21181E-006	0.00000E+000	7.48274E-004	-3.27687E+002	7	...........
	27	28	3.82874E+000	8.39356E-007	0.00000E+000	3.21367E-006	0.00000E+000	7.48424E-004	-3.27687E+002	7	...........
	28	29	3.82867E+000	8.39266E-007	0.00000E+000	3.21327E-006	0.00000E+000	7.48957E-004	-3.27687E+002	7	...........
	29	30	3.82861E+000	8.38737E-007	0.00000E+000	3.21120E-006	0.00000E+000	7.48240E-004	-3.27687E+002	7	...........
	30	31	3.82856E+000	8.39542E-007	0.00000E+000	3.21424E-006	0.00000E+000	7.47140E-004	-3.27687E+002	7	...........
	31	32	3.82850E+000	8.39854E-007	0.00000E+000	3.21538E-006	0.00000E+000	7.47690E-004	-3.27687E+002	7	...........
	32	33	3.82845E+000	8.39866E-007	0.00000E+000	3.21538E-006	0.00000E+000	7.46024E-004	-3.27687E+002	7	...........
	33	34	3.82840E+000	8.37993E-007	0.00000E+000	3.20817E-006	0.00000E+000	7.46207E-004	-3.27687E+002	7	...........
	34	35	3.82834E+000	8.39156E-007	0.00000E+000	3.21257E-006	0.00000E+000	7.44024E-004	-3.27687E+002	7	...........
	35	36	3.82829E+000	8.39973E-007	0.00000E+000	3.21566E-006	0.00000E+000	7.44224E-004	-3.27687E+002	7	...........
	36	37	3.82823E+000	8.40533E-007	0.00000E+000	3.21776E-006	0.00000E+000	7.42540E-004	-3.27687E+002	7	...........
	37	38	3.82817E+000	8.40115E-007	0.00000E+000	3.21611E-006	0.00000E+000	7.42557E-004	-3.27687E+002	7	...........
	38	39	3.82811E+000	8.39823E-007	0.00000E+000	3.21493E-006	0.00000E+000	7.41924E-004	-3.27687E+002	7	...........
	39	40	3.82807E+000	8.40071E-007	0.00000E+000	3.21585E-006	0.00000E+000	7.40974E-004	-3.27687E+002	7	...........
	40	41	3.82802E+000	8.39337E-007	0.00000E+000	3.21300E-006	0.00000E+000	7.40774E-004	-3.27687E+002	7	...........
	41	42	3.82796E+000	8.38987E-007	0.00000E+000	3.21161E-006	0.00000E+000	7.37740E-004	-3.27687E+002	7	...........
	42	43	3.82791E+000	8.38891E-007	0.00000E+000	3.21120E-006	0.00000E+000	7.39290E-004	-3.27687E+002	7	...........
	43	44	3.82785E+000	8.38898E-007	0.00000E+000	3.21117E-006	0.00000E+000	7.36590E-004	-3.27687E+002	7	...........
	44	45	3.82780E+000	8.39554E-007	0.00000E+000	3.21364E-006	0.00000E+000	7.38724E-004	-3.27687E+002	7	...........
	45	46	3.82775E+000	8.39772E-007	0.00000E+000	3.21443E-006	0.00000E+000	7.39724E-004	-3.27687E+002	7	...........
	46	47	3.82771E+000	8.39398E-007	0.00000E+000	3.21297E-006	0.00000E+000	7.40740E-004	-3.27687E+002	7	...........
	47	48	3.82766E+000	8.40260E-007	0.00000E+000	3.21623E-006	0.00000E+000	7.38990E-004	-3.27687E+002	7	...........
	48	49	3.82761E+000	8.39836E-007	0.00000E+000	3.21456E-006	0.00000E+000	7.38624E-004	-3.27687E+002	7	...........
	49	50	3.82757E+000	8.39089E-007	0.00000E+000	3.21167E-006	0.00000E+000	7.41574E-004	-3.27687E+002	7	...........
	50	51	3.82752E+000	8.39454E-007	0.00000E+000	3.21303E-006	0.00000E+000	7.41074E-004	-3.27687E+002	7	...........
	51	52	3.82749E+000	8.38889E-007	0.00000E+000	3.21084E-006	0.00000E+000	7.40607E-004	-3.27687E+002	7	...........
	52	53	3.82743E+000	8.39089E-007	0.00000E+000	3.21156E-006	0.00000E+000	7.43924E-004	-3.27687E+002	7	...........
	53	54	3.82738E+000	8.39184E-007	0.00000E+000	3.21188E-006	0.00000E+000	7.44274E-004	-3.27687E+002	7	...........
	54	55	3.82733E+000	8.39125E-007	0.00000E+000	3.21161E-006	0.00000E+000	7.43807E-004	-3.27687E+002	7	...........
	55	56	3.82728E+000	8.38435E-007	0.00000E+000	3.20893E-006	0.00000E+000	7.46957E-004	-3.27687E+002	7	...........
	56	57	3.82723E+000	8.38429E-007	0.00000E+000	3.20886E-006	0.00000E+000	7.44390E-004	-3.27687E+002	7	...........
	57	58	3.82718E+000	8.39293E-007	0.00000E+000	3.21213E-006	0.00000E+000	7.46457E-004	-3.27687E+002	7	...........
	58	59	3.82714E+000	8.40165E-007	0.00000E+000	3.21543E-006	0.00000E+000	7.47440E-004	-3.27687E+002	7	...........
	59	60	3.82709E+000	8.39774E-007	0.00000E+000	3.21389E-006	0.00000E+000	7.46890E-004	-3.27687E+002	7	...........
	60	61	3.82703E+000	8.39162E-007	0.00000E+000	3.21150E-006	0.00000E+000	7.48557E-004	-3.27687E+002	7	...........
	61	62	3.82699E+000	8.39602E-007	0.00000E+000	3.21315E-006	0.00000E+000	7.46707E-004	-3.27687E+002	7	...........
	62	63	3.82695E+000	8.39429E-007	0.00000E+000	3.21245E-006	0.00000E+000	7.47707E-004	-3.27687E+002	7	...........
	63	64	3.82688E+000	8.38929E-007	0.00000E+000	3.21048E-006	0.00000E+000	7.46140E-004	-3.27687E+002	7	...........
	64	65	3.82683E+000	8.39755E-007	0.00000E+000	3.21360E-006	0.00000E+000	7.47590E-004	-3.27687E+002	7	...........
	65	66	3.82680E+000	8.40238E-007	0.00000E+000	3.21542E-006	0.00000E+000	7.47207E-004	-3.27687E+002	7	...........
	66	67	3.82676E+000	8.39995E-007	0.00000E+000	3.21446E-006	0.00000E+000	7.50140E-004	-3.27687E+002	7	...........
	67	68	3.82671E+000	8.39498E-007	0.00000E+000	3.21252E-006	0.00000E+000	7.48207E-004	-3.27687E+002	7	...........
	68	69	3.82668E+000	8.39923E-007	0.00000E+000	3.21412E-006	0.00000E+000	7.47607E-004	-3.27687E+002	7	...........
	69	70	3.82665E+000	8.39914E-007	0.00000E+000	3.21405E-006	0.00000E+000	7.44290E-004	-3.27687E+002	7	...........
	70	71	3.82660E+000	8.40165E-007	0.00000E+000	3.21498E-006	0.00000E+000	7.45924E-004	-3.27687E+002	7	...........
	71	72	3.82658E+000	8.40193E-007	0.00000E+000	3.21507E-006	0.00000E+000	7.44207E-004	-3.27687E+002	7	...........
	72	73	3.82655E+000	8.41216E-007	0.00000E+000	3.21895E-006	0.00000E+000	7.42240E-004	-3.27687E+002	7	...........
	73	74	3.82651E+000	8.40095E-007	0.00000E+000	3.21463E-006	0.00000E+000	7.42690E-004	-3.27687E+002	7	...........
	74	75	3.82649E+000	8.40280E-007	0.00000E+000	3.21532E-006	0.00000E+000	7.43590E-004	-3.27687E+002	7	...........
	75	76	3.82645E+000	8.39633E-007	0.00000E+000	3.21282E-006	0.00000E+000	7.43107E-004	-3.27687E+002	7	...........
	76	77	3.82643E+000	8.39461E-007	0.00000E+000	3.21214E-006	0.00000E+000	7.42340E-004	-3.27687E+002	7	...........
	77	78	3.82640E+000	8.39395E-007	0.00000E+000	3.21186E-006	0.00000E+000	7.39674E-004	-3.27687E+002	7	...........
	78	79	3.82638E+000	8.39869E-007	0.00000E+000	3.21366E-006	0.00000E+000	7.40640E-004	-3.27687E+002	7	...........
	79	80	3.82635E+000	8.39646E-007	0.00000E+000	3.21278E-006	0.00000E+000	7.40057E-004	-3.27687E+002	7	...........
	80	81	3.82633E+000	8.39492E-007	0.00000E+000	3.21217E-006	0.00000E+000	7.39874E-004	-3.27687E+002	7	...........
	81	82	3.82631E+000	8.39046E-007	0.00000E+000	3.21045E-006	0.00000E+000	7.37524E-004	-3.27687E+002	7	...........
	82	83	3.82628E+000	8.39059E-007	0.00000E+000	3.21048E-006	0.00000E+000	7.39924E-004	-3.27687E+002	7	...........
	83	84	3.82626E+000	8.39745E-007	0.00000E+000	3.21309E-006	0.00000E+000	7.37907E-004	-3.27687E+002	7	...........
	84	85	3.82624E+000	8.39809E-007	0.00000E+000	3.21331E-006	0.00000E+000	7.38490E-004	-3.27687E+002	7	...........
	85	86	3.82621E+000	8.40594E-007	0.00000E+000	3.21629E-006	0.00000E+000	7.39224E-004	-3.27687E+002	7	...........
	86	87	3.82621E+000	8.39078E-007	0.00000E+000	3.21049E-006	0.00000E+000	7.38474E-004	-3.27687E+002	7	...........
	87	88	3.82618E+000	8.39453E-007	0.00000E+000	3.21190E-006	0.00000E+000	7.37857E-004	-3.27687E+002	7	...........
	88	89	3.82615E+000	8.40206E-007	0.00000E+000	3.21476E-006	0.00000E+000	7.36674E-004	-3.27687E+002	7	...........
	89	90	3.82613E+000	8.40443E-007	0.00000E+000	3.21565E-006	0.00000E+000	7.37890E-004	-3.27687E+002	7	...........
	90	91	3.82612E+000	8.41422E-007	0.00000E+000	3.21938E-006	0.00000E+000	7.36107E-004	-3.27687E+002	7	...........
	91	92	3.82610E+000	8.41240E-007	0.00000E+000	3.21867E-006	0.00000E+000	7.35790E-004	-3.27687E+002	7	...........
	92	93	3.82608E+000	8.41385E-007	0.00000E+000	3.21920E-006	0.00000E+000	7.34907E-004	-3.27687E+002	7	...........
	93	94	3.82605E+000	8.40416E-007	0.00000E+000	3.21548E-006	0.00000E+000	7.34424E-004	-3.27687E+002	7	...........
	94	95	3.82603E+000	8.39583E-007	0.00000E+000	3.21227E-006	0.00000E+000	7.36374E-004	-3.27687E+002	7	...........
	95	96	3.82601E+000	8.39741E-007	0.00000E+000	3.21286E-006	0.00000E+000	7.34940E-004	-3.27687E+002	7	...........
	96	97	3.82598E+000	8.39017E-007	0.00000E+000	3.21006E-006	0.00000E+000	7.37940E-004	-3.27687E+002	7	...........
	97	98	3.82597E+000	8.38651E-007	0.00000E+000	3.20865E-006	0.00000E+000	7.34457E-004	-3.27687E+002	7	...........
	98	99	3.82594E+000	8.40169E-007	0.00000E+000	3.21444E-006	0.00000E+000	7.36090E-004	-3.27687E+002	7	...........
	99	100	3.82592E+000	8.40059E-007	0.00000E+000	3.21400E-006	0.00000E+000	7.37990E-004	-3.27687E+002	7	...........
	100	101	3.82589E+000	8.39707E-007	0.00000E+000	3.21263E-006	0.00000E+000	7.38040E-004	-3.27687E+002	7	...........
	101	102	3.82587E+000	8.39275E-007	0.00000E+000	3.21096E-006	0.00000E+000	7.40424E-004	-3.27687E+002	7	...........
	102	103	3.82584E+000	8.39604E-007	0.00000E+000	3.21219E-006	0.00000E+000	7.38724E-004	-3.27687E+002	7	...........
	103	104	3.82582E+000	8.38806E-007	0.00000E+000	3.20912E-006	0.00000E+000	7.39657E-004	-3.27687E+002	7	...........
	104	105	3.82580E+000	8.39936E-007	0.00000E+000	3.21343E-006	0.00000E+000	7.40707E-004	-3.27687E+002	7	...........
	105	106	3.82578E+000	8.39342E-007	0.00000E+000	3.21114E-006	0.00000E+000	7.37274E-004	-3.27687E+002	7	...........
	106	107	3.82574E+000	8.38765E-007	0.00000E+000	3.20890E-006	0.00000E+000	7.41374E-004	-3.27687E+002	7	...........
	107	108	3.82572E+000	8.38916E-007	0.00000E+000	3.20946E-006	0.00000E+000	7.41457E-004	-3.27687E+002	7	...........
	108	109	3.82570E+000	8.38833E-007	0.00000E+000	3.20912E-006	0.00000E+000	7.41924E-004	-3.27687E+002	7	...........
	109	110	3.82568E+000	8.39151E-007	0.00000E+000	3.21032E-006	0.00000E+000	7.41657E-004	-3.27687E+002	7	...........
	110	111	3.82564E+000	8.40635E-007	0.00000E+000	3.21597E-006	0.00000E+000	7.42074E-004	-3.27687E+002	7	...........
	111	112	3.82562E+000	8.40687E-007	0.00000E+000	3.21615E-006	0.00000E+000	7.41174E-004	-3.27687E+002	7	...........
	112	113	3.82560E+000	8.40799E-007	0.00000E+000	3.21656E-006	0.00000E+000	7.40324E-004	-3.27687E+002	7	...........
	113	114	3.82558E+000	8.39678E-007	0.00000E+000	3.21225E-006	0.00000E+000	7.41557E-004	-3.27687E+002	7	...........
	114	115	3.82556E+000	8.39727E-007	0.00000E+000	3.21243E-006	0.00000E+000	7.41624E-004	-3.27687E+002	7	...........
	115	116	3.82554E+000	8.40179E-007	0.00000E+000	3.21414E-006	0.00000E+000	7.41340E-004	-3.27687E+002	7	...........
	116	117	3.82551E+000	8.40121E-007	0.00000E+000	3.21389E-006	0.00000E+000	7.40107E-004	-3.27687E+002	7	...........
	117	118	3.82549E+000	8.39444E-007	0.00000E+000	3.21129E-006	0.00000E+000	7.40090E-004	-3.27687E+002	7	...........
	118	119	3.82548E+000	8.39118E-007	0.00000E+000	3.21003E-006	0.00000E+000	7.40807E-004	-3.27687E+002	7	...........
	119	120	3.82545E+000	8.38353E-007	0.00000E+000	3.20708E-006	0.00000E+000	7.41507E-004	-3.27687E+002	7	...........
	120	121	3.82543E+000	8.38637E-007	0.00000E+000	3.20815E-006	0.00000E+000	7.41090E-004	-3.27687E+002	7	...........
	121	122	3.82541E+000	8.37196E-007	0.00000E+000	3.20262E-006	0.00000E+000	7.40590E-004	-3.27687E+002	7	...........
	122	123	3.82539E+000	8.37788E-007	0.00000E+000	3.20487E-006	0.00000E+000	7.40157E-004	-3.27687E+002	7	...........
	123	124	3.82537E+000	8.38023E-007	0.00000E+000	3.20575E-006	0.00000E+000	7.40857E-004	-3.27687E+002	7	...........
	124	125	3.82535E+000	8.38077E-007	0.00000E+000	3.20594E-006	0.00000E+000	7.38540E-004	-3.27687E+002	7	...........
	125	126	3.82532E+000	8.38287E-007	0.00000E+000	3.20672E-006	0.00000E+000	7.38490E-004	-3.27687E+002	7	...........
	126	127	3.82531E+000	8.38496E-007	0.00000E+000	3.20751E-006	0.00000E+000	7.37607E-004	-3.27687E+002	7	...........
	127	128	3.82529E+000	8.38914E-007	0.00000E+000	3.20909E-006	0.00000E+000	7.38024E-004	-3.27687E+002	7	...........
	128	129	3.82528E+000	8.38854E-007	0.00000E+000	3.20885E-006	0.00000E+000	7.37174E-004	-3.27687E+002	7	...........
	129	130	3.82525E+000	8.38873E-007	0.00000E+000	3.20890E-006	0.00000E+000	7.37024E-004	-3.27687E+002	7	...........
	130	131	3.82524E+000	8.38616E-007	0.00000E+000	3.20791E-006	0.00000E+000	7.35540E-004	-3.27687E+002	7	...........
	131	132	3.82521E+000	8.38675E-007	0.00000E+000	3.20811E-006	0.00000E+000	7.35090E-004	-3.27687E+002	7	...........
	132	133	3.82520E+000	8.39332E-007	0.00000E+000	3.21062E-006	0.00000E+000	7.35257E-004	-3.27687E+002	7	...........
	133	134	3.82518E+000	8.38440E-007	0.00000E+000	3.20718E-006	0.00000E+000	7.32907E-004	-3.27687E+002	7	...........
	134	135	3.82517E+000	8.38045E-007	0.00000E+000	3.20566E-006	0.00000E+000	7.33440E-004	-3.27687E+002	7	...........
	135	136	3.82515E+000	8.38249E-007	0.00000E+000	3.20643E-006	0.00000E+000	7.32240E-004	-3.27687E+002	7	...........
	136	137	3.82514E+000	8.38653E-007	0.00000E+000	3.20796E-006	0.00000E+000	7.31907E-004	-3.27687E+002	7	...........
	137	138	3.82512E+000	8.39252E-007	0.00000E+000	3.21024E-006	0.00000E+000	7.30657E-004	-3.27687E+002	7	...........
	138	139	3.82511E+000	8.39845E-007	0.00000E+000	3.21249E-006	0.00000E+000	7.29824E-004	-3.27687E+002	7	...........
	139	140	3.82509E+000	8.38089E-007	0.00000E+000	3.20577E-006	0.00000E+000	7.29607E-004	-3.27687E+002	7	...........
	140	141	3.82507E+000	8.38047E-007	0.00000E+000	3.20559E-006	0.00000E+000	7.29290E-004	-3.27687E+002	7	...........
	141	142	3.82505E+000	8.38324E-007	0.00000E+000	3.20663E-006	0.00000E+000	7.29824E-004	-3.27687E+002	7	...........
	142	143	3.82504E+000	8.39516E-007	0.00000E+000	3.21118E-006	0.00000E+000	7.26257E-004	-3.27687E+002	7	...........
	143	144	3.82501E+000	8.38569E-007	0.00000E+000	3.20754E-006	0.00000E+000	7.26440E-004	-3.27687E+002	7	...........
	144	145	3.82498E+000	8.38318E-007	0.00000E+000	3.20655E-006	0.00000E+000	7.23907E-004	-3.27687E+002	7	...........
	145	146	3.82497E+000	8.38023E-007	0.00000E+000	3.20541E-006	0.00000E+000	7.22340E-004	-3.27687E+002	7	...........
	146	147	3.82495E+000	8.37402E-007	0.00000E+000	3.20302E-006	0.00000E+000	7.23974E-004	-3.27687E+002	7	...........
	147	148	3.82494E+000	8.37316E-007	0.00000E+000	3.20269E-006	0.00000E+000	7.24240E-004	-3.27687E+002	7	...........
	148	149	3.82491E+000	8.36298E-007	0.00000E+000	3.19877E-006	0.00000E+000	7.21490E-004	-3.27687E+002	7	...........
	149	150	3.82490E+000	8.37205E-007	0.00000E+000	3.20223E-006	0.00000E+000	7.22690E-004	-3.27687E+002	7	...........
	150	151	3.82488E+000	8.37721E-007	0.00000E+000	3.20418E-006	0.00000E+000	7.20040E-004	-3.27687E+002	7	...........
	151	152	3.82486E+000	8.38289E-007	0.00000E+000	3.20634E-006	0.00000E+000	7.24424E-004	-3.27687E+002	7	...........
	152	153	3.82484E+000	8.39158E-007	0.00000E+000	3.20965E-006	0.00000E+000	7.18640E-004	-3.27687E+002	7	...........
	153	154	3.82483E+000	8.38572E-007	0.00000E+000	3.20739E-006	0.00000E+000	7.20740E-004	-3.27687E+002	7	...........
	154	155	3.82481E+000	8.38500E-007	0.00000E+000	3.20711E-006	0.00000E+000	7.19424E-004	-3.27687E+002	7	...........
	155	156	3.82480E+000	8.38839E-007	0.00000E+000	3.20839E-006	0.00000E+000	7.15957E-004	-3.27687E+002	7	...........
	156	157	3.82478E+000	8.38595E-007	0.00000E+000	3.20744E-006	0.00000E+000	7.16940E-004	-3.27687E+002	7	...........
	157	158	3.82476E+000	8.39204E-007	0.00000E+000	3.20976E-006	0.00000E+000	7.20790E-004	-3.27687E+002	7	...........
	158	159	3.82475E+000	8.38450E-007	0.00000E+000	3.20686E-006	0.00000E+000	7.17224E-004	-3.27687E+002	7	...........
	159	160	3.82473E+000	8.38796E-007	0.00000E+000	3.20817E-006	0.00000E+000	7.18490E-004	-3.27687E+002	7	...........
	160	161	3.82472E+000	8.38723E-007	0.00000E+000	3.20788E-006	0.00000E+000	7.17757E-004	-3.27687E+002	7	...........
	161	162	3.82470E+000	8.38655E-007	0.00000E+000	3.20761E-006	0.00000E+000	7.14457E-004	-3.27687E+002	7	...........
	162	163	3.82469E+000	8.38974E-007	0.00000E+000	3.20882E-006	0.00000E+000	7.15690E-004	-3.27687E+002	7	...........
	163	164	3.82467E+000	8.38751E-007	0.00000E+000	3.20795E-006	0.00000E+000	7.15774E-004	-3.27687E+002	7	...........
	164	165	3.82466E+000	8.39441E-007	0.00000E+000	3.21058E-006	0.00000E+000	7.16940E-004	-3.27687E+002	7	...........
	165	166	3.82465E+000	8.39152E-007	0.00000E+000	3.20946E-006	0.00000E+000	7.17657E-004	-3.27687E+002	7	...........
	166	167	3.82464E+000	8.39034E-007	0.00000E+000	3.20900E-006	0.00000E+000	7.19624E-004	-3.27687E+002	7	...........
	167	168	3.82462E+000	8.39145E-007	0.00000E+000	3.20941E-006	0.00000E+000	7.15557E-004	-3.27687E+002	7	...........
	168	169	3.82459E+000	8.39095E-007	0.00000E+000	3.20920E-006	0.00000E+000	7.16024E-004	-3.27687E+002	7	...........
	169	170	3.82458E+000	8.38947E-007	0.00000E+000	3.20862E-006	0.00000E+000	7.16690E-004	-3.27687E+002	7	...........
	170	171	3.82457E+000	8.39717E-007	0.00000E+000	3.21156E-006	0.00000E+000	7.17707E-004	-3.27687E+002	7	...........
	171	172	3.82455E+000	8.39189E-007	0.00000E+000	3.20952E-006	0.00000E+000	7.17440E-004	-3.27687E+002	7	...........
	172	173	3.82453E+000	8.38897E-007	0.00000E+000	3.20839E-006	0.00000E+000	7.20224E-004	-3.27687E+002	7	...........
	173	174	3.82453E+000	8.38619E-007	0.00000E+000	3.20732E-006	0.00000E+000	7.18390E-004	-3.27687E+002	7	...........
	174	175	3.82451E+000	8.38781E-007	0.00000E+000	3.20793E-006	0.00000E+000	7.18774E-004	-3.27687E+002	7	...........
	175	176	3.82449E+000	8.38843E-007	0.00000E+000	3.20815E-006	0.00000E+000	7.19274E-004	-3.27687E+002	7	...........
	176	177	3.82448E+000	8.39951E-007	0.00000E+000	3.21238E-006	0.00000E+000	7.18824E-004	-3.27687E+002	7	...........
	177	178	3.82447E+000	8.40075E-007	0.00000E+000	3.21284E-006	0.00000E+000	7.18790E-004	-3.27687E+002	7	...........
	178	179	3.82445E+000	8.39325E-007	0.00000E+000	3.20996E-006	0.00000E+000	7.20307E-004	-3.27687E+002	7	...........
	179	180	3.82444E+000	8.39180E-007	0.00000E+000	3.20940E-006	0.00000E+000	7.20674E-004	-3.27687E+002	7	...........
	180	181	3.82442E+000	8.38921E-007	0.00000E+000	3.20839E-006	0.00000E+000	7.21307E-004	-3.27687E+002	7	...........
	181	182	3.82441E+000	8.38776E-007	0.00000E+000	3.20782E-006	0.00000E+000	7.20157E-004	-3.27687E+002	7	...........
	182	183	3.82439E+000	8.39082E-007	0.00000E+000	3.20898E-006	0.00000E+000	7.21007E-004	-3.27687E+002	7	...........
	183	184	3.82438E+000	8.38786E-007	0.00000E+000	3.20783E-006	0.00000E+000	7.21924E-004	-3.27687E+002	7	...........
	184	185	3.82436E+000	8.37542E-007	0.00000E+000	3.20306E-006	0.00000E+000	7.22157E-004	-3.27687E+002	7	...........
	185	186	3.82435E+000	8.37778E-007	0.00000E+000	3.20396E-006	0.00000E+000	7.23640E-004	-3.27687E+002	7	...........
	186	187	3.82433E+000	8.37722E-007	0.00000E+000	3.20372E-006	0.00000E+000	7.22590E-004	-3.27687E+002	7	...........
	187	188	3.82432E+000	8.37530E-007	0.00000E+000	3.20298E-006	0.00000E+000	7.26957E-004	-3.27687E+002	7	...........
	188	189	3.82429E+000	8.38071E-007	0.00000E+000	3.20503E-006	0.00000E+000	7.28074E-004	-3.27687E+002	7	...........
	189	190	3.82429E+000	8.37939E-007	0.00000E+000	3.20453E-006	0.00000E+000	7.28824E-004	-3.27687E+002	7	...........
	190	191	3.82427E+000	8.37897E-007	0.00000E+000	3.20435E-006	0.00000E+000	7.29857E-004	-3.27687E+002	7	...........
	191	192	3.82425E+000	8.38275E-007	0.00000E+000	3.20578E-006	0.00000E+000	7.28307E-004	-3.27687E+002	7	...........
	192	193	3.82425E+000	8.37508E-007	0.00000E+000	3.20284E-006	0.00000E+000	7.32140E-004	-3.27687E+002	7	...........
	193	194	3.82423E+000	8.37776E-007	0.00000E+000	3.20385E-006	0.00000E+000	7.32890E-004	-3.27687E+002	7	...........
	194	195	3.82422E+000	8.37935E-007	0.00000E+000	3.20445E-006	0.00000E+000	7.28924E-004	-3.27687E+002	7	...........
	195	196	3.82420E+000	8.39374E-007	0.00000E+000	3.20993E-006	0.00000E+000	7.30907E-004	-3.27687E+002	7	...........
	196	197	3.82420E+000	8.39073E-007	0.00000E+000	3.20878E-006	0.00000E+000	7.31624E-004	-3.27687E+002	7	...........
	197	198	3.82418E+000	8.38425E-007	0.00000E+000	3.20629E-006	0.00000E+000	7.32074E-004	-3.27687E+002	7	...........
	198	199	3.82416E+000	8.38967E-007	0.00000E+000	3.20835E-006	0.00000E+000	7.32990E-004	-3.27687E+002	7	...........
	199	200	3.82415E+000	8.39152E-007	0.00000E+000	3.20904E-006	0.00000E+000	7.32974E-004	-3.27687E+002	7	...........
	200	201	3.82413E+000	8.39274E-007	0.00000E+000	3.20950E-006	0.00000E+000	7.34324E-004	-3.27687E+002	7	...........
	201	202	3.82411E+000	8.38184E-007	0.00000E+000	3.20531E-006	0.00000E+000	7.37124E-004	-3.27687E+002	7	...........
	202	203	3.82410E+000	8.37148E-007	0.00000E+000	3.20134E-006	0.00000E+000	7.36207E-004	-3.27687E+002	7	...........
	203	204	3.82409E+000	8.38699E-007	0.00000E+000	3.20726E-006	0.00000E+000	7.38974E-004	-3.27687E+002	7	...........
	204	205	3.82407E+000	8.39143E-007	0.00000E+000	3.20894E-006	0.00000E+000	7.37474E-004	-3.27687E+002	7	...........
	205	206	3.82407E+000	8.38784E-007	0.00000E+000	3.20757E-006	0.00000E+000	7.36824E-004	-3.27687E+002	7	...........
	206	207	3.82406E+000	8.38262E-007	0.00000E+000	3.20556E-006	0.00000E+000	7.37724E-004	-3.27687E+002	7	...........
	207	208	3.82403E+000	8.37790E-007	0.00000E+000	3.20373E-006	0.00000E+000	7.41107E-004	-3.27687E+002	7	...........
	208	209	3.82402E+000	8.38117E-007	0.00000E+000	3.20498E-006	0.00000E+000	7.37640E-004	-3.27687E+002	7	...........
	209	210	3.82402E+000	8.38194E-007	0.00000E+000	3.20527E-006	0.00000E+000	7.39024E-004	-3.27687E+002	7	...........
	210	211	3.82400E+000	8.38250E-007	0.00000E+000	3.20547E-006	0.00000E+000	7.39990E-004	-3.27687E+002	7	...........
	211	212	3.82399E+000	8.38009E-007	0.00000E+000	3.20454E-006	0.00000E+000	7.38540E-004	-3.27687E+002	7	...........
	212	213	3.82396E+000	8.38463E-007	0.00000E+000	3.20625E-006	0.00000E+000	7.38907E-004	-3.27687E+002	7	...........
	213	214	3.82395E+000	8.38250E-007	0.00000E+000	3.20543E-006	0.00000E+000	7.39940E-004	-3.27687E+002	7	...........
	214	215	3.82394E+000	8.37902E-007	0.00000E+000	3.20409E-006	0.00000E+000	7.42507E-004	-3.27687E+002	7	...........
	215	216	3.82394E+000	8.38173E-007	0.00000E+000	3.20512E-006	0.00000E+000	7.41007E-004	-3.27687E+002	7	...........
	216	217	3.82391E+000	8.39407E-007	0.00000E+000	3.20982E-006	0.00000E+000	7.42440E-004	-3.27687E+002	7	...........
	217	218	3.82390E+000	8.39634E-007	0.00000E+000	3.21067E-006	0.00000E+000	7.43657E-004	-3.27687E+002	7	...........
	218	219	3.82389E+000	8.39024E-007	0.00000E+000	3.20833E-006	0.00000E+000	7.40624E-004	-3.27687E+002	7	...........
	219	220	3.82386E+000	8.38891E-007	0.00000E+000	3.20780E-006	0.00000E+000	7.42107E-004	-3.27687E+002	7	...........
	220	221	3.82385E+000	8.38872E-007	0.00000E+000	3.20772E-006	0.00000E+000	7.44190E-004	-3.27687E+002	7	...........
	221	222	3.82384E+000	8.38379E-007	0.00000E+000	3.20582E-006	0.00000E+000	7.42307E-004	-3.27687E+002	7	...........
	222	223	3.82383E+000	8.38680E-007	0.00000E+000	3.20697E-006	0.00000E+000	7.43290E-004	-3.27687E+002	7	...........
	223	224	3.82381E+000	8.39220E-007	0.00000E+000	3.20901E-006	0.00000E+000	7.43190E-004	-3.27687E+002	7	...........
	224	225	3.82381E+000	8.39120E-007	0.00000E+000	3.20864E-006	0.00000E+000	7.41840E-004	-3.27687E+002	7	...........
	225	226	3.82380E+000	8.38954E-007	0.00000E+000	3.20799E-006	0.00000E+000	7.43424E-004	-3.27687E+002	7	...........
	226	227	3.82379E+000	8.37917E-007	0.00000E+000	3.20401E-006	0.00000E+000	7.42090E-004	-3.27687E+002	7	...........
	227	228	3.82378E+000	8.38275E-007	0.00000E+000	3.20538E-006	0.00000E+000	7.43857E-004	-3.27687E+002	7	...........
	228	229	3.82376E+000	8.38297E-007	0.00000E+000	3.20545E-006	0.00000E+000	7.42240E-004	-3.27687E+002	7	...........
	229	230	3.82376E+000	8.38420E-007	0.00000E+000	3.20592E-006	0.00000E+000	7.42540E-004	-3.27687E+002	7	...........
	230	231	3.82374E+000	8.39771E-007	0.00000E+000	3.21107E-006	0.00000E+000	7.41974E-004	-3.27687E+002	7	...........
	231	232	3.82373E+000	8.40099E-007	0.00000E+000	3.21232E-006	0.00000E+000	7.39790E-004	-3.27687E+002	7	...........
	232	233	3.82372E+000	8.39322E-007	0.00000E+000	3.20934E-006	0.00000E+000	7.42140E-004	-3.27687E+002	7	...........
	233	234	3.82371E+000	8.39231E-007	0.00000E+000	3.20898E-006	0.00000E+000	7.41490E-004	-3.27687E+002	7	...........
	234	235	3.82370E+000	8.38915E-007	0.00000E+000	3.20776E-006	0.00000E+000	7.42790E-004	-3.27687E+002	7	...........
	235	236	3.82368E+000	8.40002E-007	0.00000E+000	3.21190E-006	0.00000E+000	7.44524E-004	-3.27687E+002	7	...........
	236	237	3.82367E+000	8.39341E-007	0.00000E+000	3.20936E-006	0.00000E+000	7.41907E-004	-3.27687E+002	7	...........
	237	238	3.82366E+000	8.39229E-007	0.00000E+000	3.20893E-006	0.00000E+000	7.45574E-004	-3.27687E+002	7	...........
	238	239	3.82364E+000	8.38946E-007	0.00000E+000	3.20783E-006	0.00000E+000	7.44940E-004	-3.27687E+002	7	...........
	239	240	3.82364E+000	8.38944E-007	0.00000E+000	3.20782E-006	0.00000E+000	7.43074E-004	-3.27687E+002	7	...........
	240	241	3.82362E+000	8.39373E-007	0.00000E+000	3.20944E-006	0.00000E+000	7.41140E-004	-3.27687E+002	7	...........
	241	242	3.82361E+000	8.38591E-007	0.00000E+000	3.20645E-006	0.00000E+000	7.43290E-004	-3.27687E+002	7	...........
	242	243	3.82360E+000	8.37860E-007	0.00000E+000	3.20365E-006	0.00000E+000	7.41057E-004	-3.27687E+002	7	...........
	243	244	3.82359E+000	8.39586E-007	0.00000E+000	3.21023E-006	0.00000E+000	7.43907E-004	-3.27687E+002	7	...........
	244	245	3.82358E+000	8.39302E-007	0.00000E+000	3.20914E-006	0.00000E+000	7.44457E-004	-3.27687E+002	7	...........
	245	246	3.82358E+000	8.38443E-007	0.00000E+000	3.20585E-006	0.00000E+000	7.41724E-004	-3.27687E+002	7	...........
	246	247	3.82356E+000	8.38807E-007	0.00000E+000	3.20723E-006	0.00000E+000	7.42857E-004	-3.27687E+002	7	...........
	247	248	3.82355E+000	8.38712E-007	0.00000E+000	3.20686E-006	0.00000E+000	7.42340E-004	-3.27687E+002	7	...........
	248	249	3.82354E+000	8.38956E-007	0.00000E+000	3.20778E-006	0.00000E+000	7.40324E-004	-3.27687E+002	7	...........
	249	250	3.82353E+000	8.38859E-007	0.00000E+000	3.20740E-006	0.00000E+000	7.43790E-004	-3.27687E+002	7	...........
	250	251	3.82353E+000	8.38479E-007	0.00000E+000	3.20595E-006	0.00000E+000	7.42640E-004	-3.27687E+002	7	...........
	251	252	3.82352E+000	8.38864E-007	0.00000E+000	3.20741E-006	0.00000E+000	7.40957E-004	-3.27687E+002	7	...........
	252	253	3.82350E+000	8.39340E-007	0.00000E+000	3.20922E-006	0.00000E+000	7.38657E-004	-3.27687E+002	7	...........
	253	254	3.82349E+000	8.39080E-007	0.00000E+000	3.20821E-006	0.00000E+000	7.41440E-004	-3.27687E+002	7	...........
	254	255	3.82348E+000	8.39340E-007	0.00000E+000	3.20920E-006	0.00000E+000	7.42390E-004	-3.27687E+002	7	...........
	255	256	3.82347E+000	8.39617E-007	0.00000E+000	3.21025E-006	0.00000E+000	7.43057E-004	-3.27687E+002	7	...........
	256	257	3.82345E+000	8.41014E-007	0.00000E+000	3.21558E-006	0.00000E+000	7.42190E-004	-3.27687E+002	7	...........
	257	258	3.82344E+000	8.40962E-007	0.00000E+000	3.21537E-006	0.00000E+000	7.41857E-004	-3.27687E+002	7	...........
	258	259	3.82344E+000	8.40153E-007	0.00000E+000	3.21227E-006	0.00000E+000	7.42174E-004	-3.27687E+002	7	...........
	259	260	3.82342E+000	8.40276E-007	0.00000E+000	3.21273E-006	0.00000E+000	7.42724E-004	-3.27687E+002	7	...........
	260	261	3.82342E+000	8.39959E-007	0.00000E+000	3.21151E-006	0.00000E+000	7.42074E-004	-3.27687E+002	7	...........
	261	262	3.82340E+000	8.40095E-007	0.00000E+000	3.21202E-006	0.00000E+000	7.41190E-004	-3.27687E+002	7	...........
	262	263	3.82339E+000	8.41247E-007	0.00000E+000	3.21642E-006	0.00000E+000	7.40340E-004	-3.27687E+002	7	...........
	263	264	3.82339E+000	8.41046E-007	0.00000E+000	3.21564E-006	0.00000E+000	7.40390E-004	-3.27687E+002	7	...........
	264	265	3.82338E+000	8.40453E-007	0.00000E+000	3.21337E-006	0.00000E+000	7.40840E-004	-3.27687E+002	7	...........
	265	266	3.82337E+000	8.40367E-007	0.00000E+000	3.21303E-006	0.00000E+000	7.39290E-004	-3.27687E+002	7	...........
	266	267	3.82335E+000	8.39220E-007	0.00000E+000	3.20863E-006	0.00000E+000	7.40357E-004	-3.27687E+002	7	...........
	267	268	3.82334E+000	8.39140E-007	0.00000E+000	3.20832E-006	0.00000E+000	7.39957E-004	-3.27687E+002	7	...........
	268	269	3.82333E+000	8.39294E-007	0.00000E+000	3.20890E-006	0.00000E+000	7.38424E-004	-3.27687E+002	7	...........
	269	270	3.82333E+000	8.39031E-007	0.00000E+000	3.20789E-006	0.00000E+000	7.41840E-004	-3.27687E+002	7	...........
	270	271	3.82332E+000	8.39933E-007	0.00000E+000	3.21134E-006	0.00000E+000	7.39590E-004	-3.27687E+002	7	...........
	271	272	3.82331E+000	8.38897E-007	0.00000E+000	3.20736E-006	0.00000E+000	7.39774E-004	-3.27687E+002	7	...........
	272	273	3.82330E+000	8.39322E-007	0.00000E+000	3.20898E-006	0.00000E+000	7.40457E-004	-3.27687E+002	7	...........
	273	274	3.82328E+000	8.38804E-007	0.00000E+000	3.20699E-006	0.00000E+000	7.38007E-004	-3.27687E+002	7	...........
	274	275	3.82328E+000	8.39228E-007	0.00000E+000	3.20860E-006	0.00000E+000	7.38674E-004	-3.27687E+002	7	...........
	275	276	3.82326E+000	8.40010E-007	0.00000E+000	3.21158E-006	0.00000E+000	7.39840E-004	-3.27687E+002	7	...........
	276	277	3.82325E+000	8.39760E-007	0.00000E+000	3.21061E-006	0.00000E+000	7.37990E-004	-3.27687E+002	7	...........
	277	278	3.82324E+000	8.40383E-007	0.00000E+000	3.21299E-006	0.00000E+000	7.37474E-004	-3.27687E+002	7	...........
	278	279	3.82324E+000	8.39920E-007	0.00000E+000	3.21121E-006	0.00000E+000	7.38540E-004	-3.27687E+002	7	...........
	279	280	3.82322E+000	8.39900E-007	0.00000E+000	3.21112E-006	0.00000E+000	7.36624E-004	-3.27687E+002	7	...........
	280	281	3.82322E+000	8.39138E-007	0.00000E+000	3.20821E-006	0.00000E+000	7.37740E-004	-3.27687E+002	7	...........
	281	282	3.82320E+000	8.39918E-007	0.00000E+000	3.21117E-006	0.00000E+000	7.37174E-004	-3.27687E+002	7	...........
	282	283	3.82319E+000	8.40116E-007	0.00000E+000	3.21193E-006	0.00000E+000	7.35457E-004	-3.27687E+002	7	...........
	283	284	3.82318E+000	8.40165E-007	0.00000E+000	3.21211E-006	0.00000E+000	7.36557E-004	-3.27687E+002	7	...........
	284	285	3.82317E+000	8.40624E-007	0.00000E+000	3.21385E-006	0.00000E+000	7.35074E-004	-3.27687E+002	7	...........
	285	286	3.82316E+000	8.40392E-007	0.00000E+000	3.21295E-006	0.00000E+000	7.35207E-004	-3.27687E+002	7	...........
	286	287	3.82315E+000	8.39830E-007	0.00000E+000	3.21080E-006	0.00000E+000	7.36974E-004	-3.27687E+002	7	...........
	287	288	3.82314E+000	8.39977E-007	0.00000E+000	3.21135E-006	0.00000E+000	7.35024E-004	-3.27687E+002	7	...........
	288	289	3.82313E+000	8.40307E-007	0.00000E+000	3.21260E-006	0.00000E+000	7.36874E-004	-3.27687E+002	7	...........
	289	290	3.82311E+000	8.41083E-007	0.00000E+000	3.21556E-006	0.00000E+000	7.36907E-004	-3.27687E+002	7	...........
	290	291	3.82312E+000	8.41200E-007	0.00000E+000	3.21600E-006	0.00000E+000	7.34624E-004	-3.27687E+002	7	...........
	291	292	3.82310E+000	8.41027E-007	0.00000E+000	3.21533E-006	0.00000E+000	7.36774E-004	-3.27687E+002	7	...........
	292	293	3.82309E+000	8.40353E-007	0.00000E+000	3.21275E-006	0.00000E+000	7.35474E-004	-3.27687E+002	7	...........
	293	294	3.82308E+000	8.40654E-007	0.00000E+000	3.21389E-006	0.00000E+000	7.35624E-004	-3.27687E+002	7	...........
	294	295	3.82308E+000	8.40711E-007	0.00000E+000	3.21410E-006	0.00000E+000	7.33757E-004	-3.27687E+002	7	...........
	295	296	3.82307E+000	8.41334E-007	0.00000E+000	3.21647E-006	0.00000E+000	7.35274E-004	-3.27687E+002	7	...........
	296	297	3.82306E+000	8.41221E-007	0.00000E+000	3.21604E-006	0.00000E+000	7.35274E-004	-3.27687E+002	7	...........
	297	298	3.82305E+000	8.41322E-007	0.00000E+000	3.21641E-006	0.00000E+000	7.34557E-004	-3.27687E+002	7	...........
	298	299	3.82304E+000	8.40990E-007	0.00000E+000	3.21514E-006	0.00000E+000	7.34640E-004	-3.27687E+002	7	...........
	299	300	3.82303E+000	8.40229E-007	0.00000E+000	3.21223E-006	0.00000E+000	7.33390E-004	-3.27687E+002	7	...........
	300	301	3.82303E+000	8.39779E-007	0.00000E+000	3.21050E-006	0.00000E+000	7.34290E-004	-3.27687E+002	7	...........
	301	302	3.82303E+000	8.40138E-007	0.00000E+000	3.21187E-006	0.00000E+000	7.33557E-004	-3.27687E+002	7	...........
	302	303	3.82302E+000	8.39277E-007	0.00000E+000	3.20857E-006	0.00000E+000	7.35124E-004	-3.27687E+002	7	...........
	303	304	3.82300E+000	8.38894E-007	0.00000E+000	3.20709E-006	0.00000E+000	7.36624E-004	-3.27687E+002	7	...........
	304	305	3.82299E+000	8.39026E-007	0.00000E+000	3.20759E-006	0.00000E+000	7.33924E-004	-3.27687E+002	7	...........
	305	306	3.82298E+000	8.39312E-007	0.00000E+000	3.20868E-006	0.00000E+000	7.34140E-004	-3.27687E+002	7	...........
	306	307	3.82298E+000	8.39134E-007	0.00000E+000	3.20799E-006	0.00000E+000	7.35707E-004	-3.27687E+002	7	...........
	307	308	3.82297E+000	8.39509E-007	0.00000E+000	3.20942E-006	0.00000E+000	7.35857E-004	-3.27687E+002	7	...........
	308	309	3.82296E+000	8.39362E-007	0.00000E+000	3.20885E-006	0.00000E+000	7.34724E-004	-3.27687E+002	7	...........
	309	310	3.82295E+000	8.40243E-007	0.00000E+000	3.21221E-006	0.00000E+000	7.34824E-004	-3.27687E+002	7	...........
	310	311	3.82294E+000	8.41238E-007	0.00000E+000	3.21600E-006	0.00000E+000	7.34807E-004	-3.27687E+002	7	...........
	311	312	3.82293E+000	8.40020E-007	0.00000E+000	3.21134E-006	0.00000E+000	7.38140E-004	-3.27687E+002	7	...........
	312	313	3.82292E+000	8.40906E-007	0.00000E+000	3.21472E-006	0.00000E+000	7.34157E-004	-3.27687E+002	7	...........
	313	314	3.82291E+000	8.39639E-007	0.00000E+000	3.20986E-006	0.00000E+000	7.35740E-004	-3.27687E+002	7	...........
	314	315	3.82290E+000	8.40789E-007	0.00000E+000	3.21426E-006	0.00000E+000	7.36707E-004	-3.27687E+002	7	...........
	315	316	3.82289E+000	8.40165E-007	0.00000E+000	3.21186E-006	0.00000E+000	7.36007E-004	-3.27687E+002	7	...........
	316	317	3.82288E+000	8.40872E-007	0.00000E+000	3.21455E-006	0.00000E+000	7.37440E-004	-3.27687E+002	7	...........
	317	318	3.82287E+000	8.40536E-007	0.00000E+000	3.21326E-006	0.00000E+000	7.36557E-004	-3.27687E+002	7	...........
	318	319	3.82287E+000	8.41285E-007	0.00000E+000	3.21612E-006	0.00000E+000	7.34157E-004	-3.27687E+002	7	...........
	319	320	3.82286E+000	8.40703E-007	0.00000E+000	3.21389E-006	0.00000E+000	7.35657E-004	-3.27687E+002	7	...........
	320	321	3.82286E+000	8.40935E-007	0.00000E+000	3.21478E-006	0.00000E+000	7.38624E-004	-3.27687E+002	7	...........
	321	322	3.82286E+000	8.40490E-007	0.00000E+000	3.21307E-006	0.00000E+000	7.36457E-004	-3.27687E+002	7	...........
	322	323	3.82284E+000	8.40843E-007	0.00000E+000	3.21441E-006	0.00000E+000	7.37074E-004	-3.27687E+002	7	...........
	323	324	3.82283E+000	8.41806E-007	0.00000E+000	3.21808E-006	0.00000E+000	7.35440E-004	-3.27687E+002	7	...........
	324	325	3.82282E+000	8.41640E-007	0.00000E+000	3.21744E-006	0.00000E+000	7.33990E-004	-3.27687E+002	7	...........
	325	326	3.82282E+000	8.41092E-007	0.00000E+000	3.21534E-006	0.00000E+000	7.34674E-004	-3.27687E+002	7	...........
	326	327	3.82281E+000	8.40560E-007	0.00000E+000	3.21330E-006	0.00000E+000	7.37340E-004	-3.27687E+002	7	...........
	327	328	3.82280E+000	8.40600E-007	0.00000E+000	3.21345E-006	0.00000E+000	7.36190E-004	-3.27687E+002	7	...........
	328	329	3.82279E+000	8.41180E-007	0.00000E+000	3.21566E-006	0.00000E+000	7.35657E-004	-3.27687E+002	7	...........
	329	330	3.82278E+000	8.41086E-007	0.00000E+000	3.21528E-006	0.00000E+000	7.37607E-004	-3.27687E+002	7	...........
	330	331	3.82277E+000	8.41119E-007	0.00000E+000	3.21541E-006	0.00000E+000	7.37640E-004	-3.27687E+002	7	...........
	331	332	3.82276E+000	8.41378E-007	0.00000E+000	3.21639E-006	0.00000E+000	7.35974E-004	-3.27687E+002	7	...........
	332	333	3.82275E+000	8.41778E-007	0.00000E+000	3.21791E-006	0.00000E+000	7.37357E-004	-3.27687E+002	7	...........
	333	334	3.82275E+000	8.41424E-007	0.00000E+000	3.21655E-006	0.00000E+000	7.35957E-004	-3.27687E+002	7	...........
	334	335	3.82274E+000	8.41320E-007	0.00000E+000	3.21614E-006	0.00000E+000	7.37540E-004	-3.27687E+002	7	...........
	335	336	3.82273E+000	8.41680E-007	0.00000E+000	3.21752E-006	0.00000E+000	7.39974E-004	-3.27687E+002	7	...........
	336	337	3.82272E+000	8.43582E-007	0.00000E+000	3.22478E-006	0.00000E+000	7.39974E-004	-3.27687E+002	7	...........
	337	338	3.82272E+000	8.42645E-007	0.00000E+000	3.22120E-006	0.00000E+000	7.36624E-004	-3.27687E+002	7	...........
	338	339	3.82271E+000	8.40747E-007	0.00000E+000	3.21393E-006	0.00000E+000	7.36340E-004	-3.27687E+002	7	...........
	339	340	3.82270E+000	8.40722E-007	0.00000E+000	3.21383E-006	0.00000E+000	7.37657E-004	-3.27687E+002	7	...........
	340	341	3.82269E+000	8.40202E-007	0.00000E+000	3.21183E-006	0.00000E+000	7.38307E-004	-3.27687E+002	7	...........
	341	342	3.82268E+000	8.41054E-007	0.00000E+000	3.21508E-006	0.00000E+000	7.40074E-004	-3.27687E+002	7	...........
	342	343	3.82268E+000	8.40922E-007	0.00000E+000	3.21458E-006	0.00000E+000	7.39257E-004	-3.27687E+002	7	...........
	343	344	3.82267E+000	8.40341E-007	0.00000E+000	3.21235E-006	0.00000E+000	7.39740E-004	-3.27687E+002	7	...........
	344	345	3.82265E+000	8.39966E-007	0.00000E+000	3.21089E-006	0.00000E+000	7.40974E-004	-3.27687E+002	7	...........
	345	346	3.82265E+000	8.40499E-007	0.00000E+000	3.21293E-006	0.00000E+000	7.39540E-004	-3.27687E+002	7	...........
	346	347	3.82264E+000	8.40212E-007	0.00000E+000	3.21183E-006	0.00000E+000	7.42607E-004	-3.27687E+002	7	...........
	347	348	3.82263E+000	8.40595E-007	0.00000E+000	3.21329E-006	0.00000E+000	7.40840E-004	-3.27687E+002	7	...........
	348	349	3.82263E+000	8.40262E-007	0.00000E+000	3.21201E-006	0.00000E+000	7.42057E-004	-3.27687E+002	7	...........
	349	350	3.82261E+000	8.41011E-007	0.00000E+000	3.21486E-006	0.00000E+000	7.40440E-004	-3.27687E+002	7	...........
	350	351	3.82261E+000	8.41201E-007	0.00000E+000	3.21558E-006	0.00000E+000	7.38440E-004	-3.27687E+002	7	...........
	351	352	3.82260E+000	8.41093E-007	0.00000E+000	3.21516E-006	0.00000E+000	7.40624E-004	-3.27687E+002	7	...........
	352	353	3.82259E+000	8.41253E-007	0.00000E+000	3.21577E-006	0.00000E+000	7.40940E-004	-3.27687E+002	7	...........
	353	354	3.82259E+000	8.41048E-007	0.00000E+000	3.21498E-006	0.00000E+000	7.41040E-004	-3.27687E+002	7	...........
	354	355	3.82258E+000	8.40337E-007	0.00000E+000	3.21225E-006	0.00000E+000	7.42324E-004	-3.27687E+002	7	...........
	355	356	3.82256E+000	8.40117E-007	0.00000E+000	3.21140E-006	0.00000E+000	7.43274E-004	-3.27687E+002	7	...........
	356	357	3.82255E+000	8.40233E-007	0.00000E+000	3.21184E-006	0.00000E+000	7.42707E-004	-3.27687E+002	7	...........
	357	358	3.82255E+000	8.40557E-007	0.00000E+000	3.21307E-006	0.00000E+000	7.41957E-004	-3.27687E+002	7	...........
	358	359	3.82254E+000	8.40132E-007	0.00000E+000	3.21144E-006	0.00000E+000	7.42590E-004	-3.27687E+002	7	...........
	359	360	3.82252E+000	8.39838E-007	0.00000E+000	3.21030E-006	0.00000E+000	7.44640E-004	-3.27687E+002	7	...........
	360	361	3.82252E+000	8.40271E-007	0.00000E+000	3.21196E-006	0.00000E+000	7.43540E-004	-3.27687E+002	7	...........
	361	362	3.82250E+000	8.40830E-007	0.00000E+000	3.21408E-006	0.00000E+000	7.44174E-004	-3.27687E+002	7	...........
	362	363	3.82250E+000	8.39683E-007	0.00000E+000	3.20969E-006	0.00000E+000	7.45524E-004	-3.27687E+002	7	...........
	363	364	3.82250E+000	8.41039E-007	0.00000E+000	3.21487E-006	0.00000E+000	7.45140E-004	-3.27687E+002	7	...........
	364	365	3.82248E+000	8.39748E-007	0.00000E+000	3.20992E-006	0.00000E+000	7.45157E-004	-3.27687E+002	7	...........
	365	366	3.82248E+000	8.39905E-007	0.00000E+000	3.21052E-006	0.00000E+000	7.46057E-004	-3.27687E+002	7	...........
	366	367	3.82247E+000	8.39540E-007	0.00000E+000	3.20912E-006	0.00000E+000	7.44840E-004	-3.27687E+002	7	...........
	367	368	3.82246E+000	8.40016E-007	0.00000E+000	3.21092E-006	0.00000E+000	7.45090E-004	-3.27687E+002	7	...........
	368	369	3.82245E+000	8.40368E-007	0.00000E+000	3.21226E-006	0.00000E+000	7.43574E-004	-3.27687E+002	7	...........
	369	370	3.82244E+000	8.40062E-007	0.00000E+000	3.21109E-006	0.00000E+000	7.46157E-004	-3.27687E+002	7	...........
	370	371	3.82243E+000	8.38922E-007	0.00000E+000	3.20672E-006	0.00000E+000	7.46090E-004	-3.27687E+002	7	...........
	371	372	3.82243E+000	8.38468E-007	0.00000E+000	3.20499E-006	0.00000E+000	7.44690E-004	-3.27687E+002	7	...........
	372	373	3.82242E+000	8.38611E-007	0.00000E+000	3.20552E-006	0.00000E+000	7.45690E-004	-3.27687E+002	7	...........
	373	374	3.82241E+000	8.38786E-007	0.00000E+000	3.20619E-006	0.00000E+000	7.43474E-004	-3.27687E+002	7	...........
	374	375	3.82241E+000	8.39169E-007	0.00000E+000	3.20765E-006	0.00000E+000	7.44424E-004	-3.27687E+002	7	...........
	375	376	3.82240E+000	8.39217E-007	0.00000E+000	3.20782E-006	0.00000E+000	7.42174E-004	-3.27687E+002	7	...........
	376	377	3.82239E+000	8.39738E-007	0.00000E+000	3.20980E-006	0.00000E+000	7.43807E-004	-3.27687E+002	7	...........
	377	378	3.82238E+000	8.39086E-007	0.00000E+000	3.20731E-006	0.00000E+000	7.44890E-004	-3.27687E+002	7	...........
	378	379	3.82237E+000	8.38531E-007	0.00000E+000	3.20518E-006	0.00000E+000	7.43840E-004	-3.27687E+002	7	...........
	379	380	3.82236E+000	8.39463E-007	0.00000E+000	3.20873E-006	0.00000E+000	7.46807E-004	-3.27687E+002	7	...........
	380	381	3.82236E+000	8.39555E-007	0.00000E+000	3.20908E-006	0.00000E+000	7.43790E-004	-3.27687E+002	7	...........
	381	382	3.82236E+000	8.39215E-007	0.00000E+000	3.20778E-006	0.00000E+000	7.46307E-004	-3.27687E+002	7	...........
	382	383	3.82234E+000	8.39026E-007	0.00000E+000	3.20705E-006	0.00000E+000	7.45657E-004	-3.27687E+002	7	...........
	383	384	3.82234E+000	8.39937E-007	0.00000E+000	3.21052E-006	0.00000E+000	7.48357E-004	-3.27687E+002	7	...........
	384	385	3.82232E+000	8.39695E-007	0.00000E+000	3.20958E-006	0.00000E+000	7.46224E-004	-3.27687E+002	7	...........
	385	386	3.82231E+000	8.39984E-007	0.00000E+000	3.21068E-006	0.00000E+000	7.45090E-004	-3.27687E+002	7	...........
	386	387	3.82231E+000	8.40206E-007	0.00000E+000	3.21152E-006	0.00000E+000	7.46340E-004	-3.27687E+002	7	...........
	387	388	3.82231E+000	8.40264E-007	0.00000E+000	3.21175E-006	0.00000E+000	7.46090E-004	-3.27687E+002	7	...........
	388	389	3.82231E+000	8.40261E-007	0.00000E+000	3.21174E-006	0.00000E+000	7.48057E-004	-3.27687E+002	7	...........
	389	390	3.82229E+000	8.40169E-007	0.00000E+000	3.21137E-006	0.00000E+000	7.45957E-004	-3.27687E+002	7	...........
	390	391	3.82229E+000	8.39452E-007	0.00000E+000	3.20863E-006	0.00000E+000	7.46624E-004	-3.27687E+002	7	...........
	391	392	3.82227E+000	8.39088E-007	0.00000E+000	3.20722E-006	0.00000E+000	7.46890E-004	-3.27687E+002	7	...........
	392	393	3.82226E+000	8.38990E-007	0.00000E+000	3.20684E-006	0.00000E+000	7.47907E-004	-3.27687E+002	7	...........
	393	394	3.82226E+000	8.39460E-007	0.00000E+000	3.20863E-006	0.00000E+000	7.45324E-004	-3.27687E+002	7	...........
	394	395	3.82226E+000	8.39443E-007	0.00000E+000	3.20857E-006	0.00000E+000	7.46557E-004	-3.27687E+002	7	...........
	395	396	3.82225E+000	8.39008E-007	0.00000E+000	3.20690E-006	0.00000E+000	7.45857E-004	-3.27687E+002	7	...........
	396	397	3.82225E+000	8.38565E-007	0.00000E+000	3.20520E-006	0.00000E+000	7.46590E-004	-3.27687E+002	7	...........
	397	398	3.82224E+000	8.38134E-007	0.00000E+000	3.20355E-006	0.00000E+000	7.46407E-004	-3.27687E+002	7	...........
	398	399	3.82223E+000	8.38733E-007	0.00000E+000	3.20583E-006	0.00000E+000	7.48607E-004	-3.27687E+002	7	...........
	399	400	3.82222E+000	8.39396E-007	0.00000E+000	3.20836E-006	0.00000E+000	7.47507E-004	-3.27687E+002	7	...........
	400	401	3.82222E+000	8.38923E-007	0.00000E+000	3.20655E-006	0.00000E+000	7.45774E-004	-3.27687E+002	7	...........
	401	402	3.82222E+000	8.39407E-007	0.00000E+000	3.20840E-006	0.00000E+000	7.46757E-004	-3.27687E+002	7	...........
	402	403	3.82221E+000	8.39168E-007	0.00000E+000	3.20747E-006	0.00000E+000	7.46024E-004	-3.27687E+002	7	...........
	403	404	3.82220E+000	8.39092E-007	0.00000E+000	3.20718E-006	0.00000E+000	7.48990E-004	-3.27687E+002	7	...........
	404	405	3.82219E+000	8.37698E-007	0.00000E+000	3.20184E-006	0.00000E+000	7.48424E-004	-3.27687E+002	7	...........
	405	406	3.82219E+000	8.37384E-007	0.00000E+000	3.20064E-006	0.00000E+000	7.46524E-004	-3.27687E+002	7	...........
	406	407	3.82218E+000	8.37666E-007	0.00000E+000	3.20171E-006	0.00000E+000	7.48524E-004	-3.27687E+002	7	...........
	407	408	3.82218E+000	8.37992E-007	0.00000E+000	3.20295E-006	0.00000E+000	7.48040E-004	-3.27687E+002	7	...........
	408	409	3.82217E+000	8.37259E-007	0.00000E+000	3.20015E-006	0.00000E+000	7.47024E-004	-3.27687E+002	7	...........
	409	410	3.82216E+000	8.37451E-007	0.00000E+000	3.20087E-006	0.00000E+000	7.47607E-004	-3.27687E+002	7	...........
	410	411	3.82216E+000	8.37660E-007	0.00000E+000	3.20167E-006	0.00000E+000	7.46440E-004	-3.27687E+002	7	...........
	411	412	3.82215E+000	8.37077E-007	0.00000E+000	3.19943E-006	0.00000E+000	7.46524E-004	-3.27687E+002	7	...........
	412	413	3.82214E+000	8.37754E-007	0.00000E+000	3.20201E-006	0.00000E+000	7.45590E-004	-3.27687E+002	7	...........
	413	414	3.82214E+000	8.36998E-007	0.00000E+000	3.19912E-006	0.00000E+000	7.46757E-004	-3.27687E+002	7	...........
	414	415	3.82213E+000	8.37158E-007	0.00000E+000	3.19973E-006	0.00000E+000	7.48640E-004	-3.27687E+002	7	...........
	415	416	3.82212E+000	8.36917E-007	0.00000E+000	3.19880E-006	0.00000E+000	7.47540E-004	-3.27687E+002	7	...........
	416	417	3.82212E+000	8.36561E-007	0.00000E+000	3.19744E-006	0.00000E+000	7.46624E-004	-3.27687E+002	7	...........
	417	418	3.82211E+000	8.36934E-007	0.00000E+000	3.19885E-006	0.00000E+000	7.46657E-004	-3.27687E+002	7	...........
	418	419	3.82210E+000	8.36646E-007	0.00000E+000	3.19775E-006	0.00000E+000	7.47557E-004	-3.27687E+002	7	...........
	419	420	3.82210E+000	8.37198E-007	0.00000E+000	3.19985E-006	0.00000E+000	7.47657E-004	-3.27687E+002	7	...........
	420	421	3.82209E+000	8.37580E-007	0.00000E+000	3.20131E-006	0.00000E+000	7.47007E-004	-3.27687E+002	7	...........
	421	422	3.82209E+000	8.37755E-007	0.00000E+000	3.20197E-006	0.00000E+000	7.46757E-004	-3.27687E+002	7	...........
	422	423	3.82208E+000	8.37375E-007	0.00000E+000	3.20051E-006	0.00000E+000	7.47307E-004	-3.27687E+002	7	...........
	423	424	3.82207E+000	8.36400E-007	0.00000E+000	3.19678E-006	0.00000E+000	7.46674E-004	-3.27687E+002	7	...........
	424	425	3.82207E+000	8.36856E-007	0.00000E+000	3.19852E-006	0.00000E+000	7.45624E-004	-3.27687E+002	7	...........
	425	426	3.82207E+000	8.36898E-007	0.00000E+000	3.19868E-006	0.00000E+000	7.46524E-004	-3.27687E+002	7	...........
	426	427	3.82206E+000	8.36647E-007	0.00000E+000	3.19772E-006	0.00000E+000	7.46857E-004	-3.27687E+002	7	...........
	427	428	3.82205E+000	8.36881E-007	0.00000E+000	3.19860E-006	0.00000E+000	7.45924E-004	-3.27687E+002	7	...........
	428	429	3.82205E+000	8.37576E-007	0.00000E+000	3.20126E-006	0.00000E+000	7.46807E-004	-3.27687E+002	7	...........
	429	430	3.82204E+000	8.37730E-007	0.00000E+000	3.20184E-006	0.00000E+000	7.45474E-004	-3.27687E+002	7	...........
	430	431	3.82204E+000	8.36872E-007	0.00000E+000	3.19856E-006	0.00000E+000	7.45240E-004	-3.27687E+002	7	...........
	431	432	3.82203E+000	8.36986E-007	0.00000E+000	3.19898E-006	0.00000E+000	7.47557E-004	-3.27687E+002	7	...........
	432	433	3.82202E+000	8.37191E-007	0.00000E+000	3.19976E-006	0.00000E+000	7.47624E-004	-3.27687E+002	7	...........
	433	434	3.82202E+000	8.36988E-007	0.00000E+000	3.19899E-006	0.00000E+000	7.44090E-004	-3.27687E+002	7	...........
	434	435	3.82201E+000	8.37844E-007	0.00000E+000	3.20225E-006	0.00000E+000	7.46874E-004	-3.27687E+002	7	...........
	435	436	3.82200E+000	8.37729E-007	0.00000E+000	3.20180E-006	0.00000E+000	7.46424E-004	-3.27687E+002	7	...........
	436	437	3.82199E+000	8.37855E-007	0.00000E+000	3.20227E-006	0.00000E+000	7.45440E-004	-3.27687E+002	7	...........
	437	438	3.82199E+000	8.36570E-007	0.00000E+000	3.19736E-006	0.00000E+000	7.46057E-004	-3.27687E+002	7	...........
	438	439	3.82198E+000	8.37374E-007	0.00000E+000	3.20043E-006	0.00000E+000	7.45090E-004	-3.27687E+002	7	...........
	439	440	3.82196E+000	8.36500E-007	0.00000E+000	3.19707E-006	0.00000E+000	7.45007E-004	-3.27687E+002	7	...........
	440	441	3.82197E+000	8.36693E-007	0.00000E+000	3.19781E-006	0.00000E+000	7.46757E-004	-3.27687E+002	7	...........
	441	442	3.82197E+000	8.36410E-007	0.00000E+000	3.19673E-006	0.00000E+000	7.46307E-004	-3.27687E+002	7	...........
	442	443	3.82196E+000	8.36762E-007	0.00000E+000	3.19807E-006	0.00000E+000	7.45257E-004	-3.27687E+002	7	...........
	443	444	3.82196E+000	8.34934E-007	0.00000E+000	3.19108E-006	0.00000E+000	7.45040E-004	-3.27687E+002	7	...........
	444	445	3.82195E+000	8.35577E-007	0.00000E+000	3.19353E-006	0.00000E+000	7.45057E-004	-3.27687E+002	7	...........
	445	446	3.82194E+000	8.35111E-007	0.00000E+000	3.19175E-006	0.00000E+000	7.44290E-004	-3.27687E+002	7	...........
	446	447	3.82194E+000	8.36467E-007	0.00000E+000	3.19693E-006	0.00000E+000	7.44707E-004	-3.27687E+002	7	...........
	447	448	3.82194E+000	8.35792E-007	0.00000E+000	3.19434E-006	0.00000E+000	7.46840E-004	-3.27687E+002	7	...........
	448	449	3.82193E+000	8.36936E-007	0.00000E+000	3.19871E-006	0.00000E+000	7.45357E-004	-3.27687E+002	7	...........
	449	450	3.82191E+000	8.36260E-007	0.00000E+000	3.19611E-006	0.00000E+000	7.45690E-004	-3.27687E+002	7	...........
	450	451	3.82191E+000	8.36360E-007	0.00000E+000	3.19650E-006	0.00000E+000	7.43640E-004	-3.27687E+002	7	...........
	451	452	3.82191E+000	8.35905E-007	0.00000E+000	3.19476E-006	0.00000E+000	7.44757E-004	-3.27687E+002	7	...........
	452	453	3.82191E+000	8.35771E-007	0.00000E+000	3.19424E-006	0.00000E+000	7.44090E-004	-3.27687E+002	7	...........
	453	454	3.82190E+000	8.36152E-007	0.00000E+000	3.19569E-006	0.00000E+000	7.45440E-004	-3.27687E+002	7	...........
	454	455	3.82188E+000	8.36171E-007	0.00000E+000	3.19575E-006	0.00000E+000	7.41824E-004	-3.27687E+002	7	...........
	455	456	3.82188E+000	8.36359E-007	0.00000E+000	3.19647E-006	0.00000E+000	7.43257E-004	-3.27687E+002	7	...........
	456	457	3.82187E+000	8.35443E-007	0.00000E+000	3.19296E-006	0.00000E+000	7.39724E-004	-3.27687E+002	7	...........
	457	458	3.82186E+000	8.34748E-007	0.00000E+000	3.19029E-006	0.00000E+000	7.40924E-004	-3.27687E+002	7	...........
	458	459	3.82187E+000	8.35261E-007	0.00000E+000	3.19226E-006	0.00000E+000	7.41374E-004	-3.27687E+002	7	...........
	459	460	3.82186E+000	8.35111E-007	0.00000E+000	3.19168E-006	0.00000E+000	7.40507E-004	-3.27687E+002	7	...........
	460	461	3.82185E+000	8.35860E-007	0.00000E+000	3.19453E-006	0.00000E+000	7.41907E-004	-3.27687E+002	7	...........
	461	462	3.82184E+000	8.35958E-007	0.00000E+000	3.19490E-006	0.00000E+000	7.42540E-004	-3.27687E+002	7	...........
	462	463	3.82184E+000	8.35373E-007	0.00000E+000	3.19266E-006	0.00000E+000	7.43540E-004	-3.27687E+002	7	...........
	463	464	3.82183E+000	8.35080E-007	0.00000E+000	3.19154E-006	0.00000E+000	7.42790E-004	-3.27687E+002	7	...........
	464	465	3.82183E+000	8.34678E-007	0.00000E+000	3.18999E-006	0.00000E+000	7.42890E-004	-3.27687E+002	7	...........
	465	466	3.82182E+000	8.34444E-007	0.00000E+000	3.18910E-006	0.00000E+000	7.40757E-004	-3.27687E+002	7	...........
	466	467	3.82181E+000	8.34265E-007	0.00000E+000	3.18840E-006	0.00000E+000	7.39440E-004	-3.27687E+002	7	...........
	467	468	3.82180E+000	8.34888E-007	0.00000E+000	3.19077E-006	0.00000E+000	7.42257E-004	-3.27687E+002	7	...........
	468	469	3.82179E+000	8.36033E-007	0.00000E+000	3.19514E-006	0.00000E+000	7.42824E-004	-3.27687E+002	7	...........
	469	470	3.82179E+000	8.35543E-007	0.00000E+000	3.19327E-006	0.00000E+000	7.42807E-004	-3.27687E+002	7	...........
	470	471	3.82179E+000	8.35098E-007	0.00000E+000	3.19157E-006	0.00000E+000	7.42957E-004	-3.27687E+002	7	...........
	471	472	3.82176E+000	8.34947E-007	0.00000E+000	3.19097E-006	0.00000E+000	7.42774E-004	-3.27687E+002	7	...........
	472	473	3.82177E+000	8.35516E-007	0.00000E+000	3.19315E-006	0.00000E+000	7.42090E-004	-3.27687E+002	7	...........
	473	474	3.82177E+000	8.35708E-007	0.00000E+000	3.19388E-006	0.00000E+000	7.41590E-004	-3.27687E+002	7	...........
	474	475	3.82175E+000	8.35962E-007	0.00000E+000	3.19484E-006	0.00000E+000	7.42907E-004	-3.27687E+002	7	...........
	475	476	3.82175E+000	8.36008E-007	0.00000E+000	3.19501E-006	0.00000E+000	7.41207E-004	-3.27687E+002	7	...........
	476	477	3.82174E+000	8.35882E-007	0.00000E+000	3.19453E-006	0.00000E+000	7.41824E-004	-3.27687E+002	7	...........
	477	478	3.82174E+000	8.35244E-007	0.00000E+000	3.19208E-006	0.00000E+000	7.39107E-004	-3.27687E+002	7	...........
	478	479	3.82172E+000	8.35592E-007	0.00000E+000	3.19340E-006	0.00000E+000	7.39240E-004	-3.27687E+002	7	...........
	479	480	3.82173E+000	8.35924E-007	0.00000E+000	3.19468E-006	0.00000E+000	7.42424E-004	-3.27687E+002	7	...........
	480	481	3.82171E+000	8.36808E-007	0.00000E+000	3.19803E-006	0.00000E+000	7.40574E-004	-3.27687E+002	7	...........
	481	482	3.82171E+000	8.36845E-007	0.00000E+000	3.19818E-006	0.00000E+000	7.40490E-004	-3.27687E+002	7	...........
	482	483	3.82170E+000	8.35730E-007	0.00000E+000	3.19391E-006	0.00000E+000	7.43190E-004	-3.27687E+002	7	...........
	483	484	3.82169E+000	8.35301E-007	0.00000E+000	3.19227E-006	0.00000E+000	7.39990E-004	-3.27687E+002	7	...........
	484	485	3.82168E+000	8.34962E-007	0.00000E+000	3.19096E-006	0.00000E+000	7.39974E-004	-3.27687E+002	7	...........
	485	486	3.82167E+000	8.35913E-007	0.00000E+000	3.19458E-006	0.00000E+000	7.39340E-004	-3.27687E+002	7	...........
	486	487	3.82166E+000	8.36621E-007	0.00000E+000	3.19728E-006	0.00000E+000	7.40724E-004	-3.27687E+002	7	...........
	487	488	3.82165E+000	8.36275E-007	0.00000E+000	3.19596E-006	0.00000E+000	7.40624E-004	-3.27687E+002	7	...........
	488	489	3.82164E+000	8.35096E-007	0.00000E+000	3.19144E-006	0.00000E+000	7.38707E-004	-3.27687E+002	7	...........
	489	490	3.82165E+000	8.35582E-007	0.00000E+000	3.19330E-006	0.00000E+000	7.37274E-004	-3.27687E+002	7	...........
	490	491	3.82164E+000	8.34826E-007	0.00000E+000	3.19040E-006	0.00000E+000	7.39907E-004	-3.27687E+002	7	...........
	491	492	3.82163E+000	8.34265E-007	0.00000E+000	3.18825E-006	0.00000E+000	7.40040E-004	-3.27687E+002	7	...........
	492	493	3.82163E+000	8.33451E-007	0.00000E+000	3.18514E-006	0.00000E+000	7.39290E-004	-3.27687E+002	7	...........
	493	494	3.82162E+000	8.34502E-007	0.00000E+000	3.18915E-006	0.00000E+000	7.39574E-004	-3.27687E+002	7	...........
	494	495	3.82161E+000	8.35507E-007	0.00000E+000	3.19298E-006	0.00000E+000	7.37340E-004	-3.27687E+002	7	...........
	495	496	3.82161E+000	8.35044E-007	0.00000E+000	3.19121E-006	0.00000E+000	7.40390E-004	-3.27687E+002	7	...........
	496	497	3.82160E+000	8.34970E-007	0.00000E+000	3.19092E-006	0.00000E+000	7.38190E-004	-3.27687E+002	7	...........
	497	498	3.82160E+000	8.35512E-007	0.00000E+000	3.19299E-006	0.00000E+000	7.40407E-004	-3.27687E+002	7	...........
	498	499	3.82159E+000	8.35791E-007	0.00000E+000	3.19405E-006	0.00000E+000	7.40490E-004	-3.27687E+002	7	...........
	499	500	3.82158E+000	8.36462E-007	0.00000E+000	3.19661E-006	0.00000E+000	7.40390E-004	-3.27687E+002	7	...........
	500	501	3.82157E+000	8.35894E-007	0.00000E+000	3.19443E-006	0.00000E+000	7.38774E-004	-3.27687E+002	7	...........
	501	502	3.82157E+000	8.35695E-007	0.00000E+000	3.19367E-006	0.00000E+000	7.40074E-004	-3.27687E+002	7	...........
	502	503	3.82156E+000	8.35275E-007	0.00000E+000	3.19205E-006	0.00000E+000	7.39007E-004	-3.27687E+002	7	...........
	503	504	3.82155E+000	8.35715E-007	0.00000E+000	3.19372E-006	0.00000E+000	7.41224E-004	-3.27687E+002	7	...........
	504	505	3.82154E+000	8.35387E-007	0.00000E+000	3.19246E-006	0.00000E+000	7.41157E-004	-3.27687E+002	7	...........
	505	506	3.82153E+000	8.35217E-007	0.00000E+000	3.19181E-006	0.00000E+000	7.40224E-004	-3.27687E+002	7	...........
	506	507	3.82154E+000	8.36225E-007	0.00000E+000	3.19567E-006	0.00000E+000	7.39890E-004	-3.27687E+002	7	...........
	507	508	3.82152E+000	8.36622E-007	0.00000E+000	3.19717E-006	0.00000E+000	7.37440E-004	-3.27687E+002	7	...........
	508	509	3.82152E+000	8.36810E-007	0.00000E+000	3.19789E-006	0.00000E+000	7.38457E-004	-3.27687E+002	7	...........
	509	510	3.82151E+000	8.35998E-007	0.00000E+000	3.19478E-006	0.00000E+000	7.39424E-004	-3.27687E+002	7	...........
	510	511	3.82151E+000	8.35854E-007	0.00000E+000	3.19423E-006	0.00000E+000	7.38607E-004	-3.27687E+002	7	...........
	511	512	3.82150E+000	8.36078E-007	0.00000E+000	3.19507E-006	0.00000E+000	7.37940E-004	-3.27687E+002	7	...........
	512	513	3.82149E+000	8.35632E-007	0.00000E+000	3.19336E-006	0.00000E+000	7.39290E-004	-3.27687E+002	7	...........
	513	514	3.82148E+000	8.35814E-007	0.00000E+000	3.19405E-006	0.00000E+000	7.38357E-004	-3.27687E+002	7	...........
	514	515	3.82148E+000	8.35605E-007	0.00000E+000	3.19325E-006	0.00000E+000	7.37440E-004	-3.27687E+002	7	...........
	515	516	3.82147E+000	8.35626E-007	0.00000E+000	3.19333E-006	0.00000E+000	7.38907E-004	-3.27687E+002	7	...........
	516	517	3.82147E+000	8.35119E-007	0.00000E+000	3.19138E-006	0.00000E+000	7.37307E-004	-3.27687E+002	7	...........
	517	518	3.82146E+000	8.34736E-007	0.00000E+000	3.18991E-006	0.00000E+000	7.39957E-004	-3.27687E+002	7	...........
	518	519	3.82147E+000	8.34725E-007	0.00000E+000	3.18988E-006	0.00000E+000	7.36757E-004	-3.27687E+002	7	...........
	519	520	3.82145E+000	8.34528E-007	0.00000E+000	3.18911E-006	0.00000E+000	7.38757E-004	-3.27687E+002	7	...........
	520	521	3.82144E+000	8.35516E-007	0.00000E+000	3.19288E-006	0.00000E+000	7.40074E-004	-3.27687E+002	7	...........
	521	522	3.82143E+000	8.35459E-007	0.00000E+000	3.19265E-006	0.00000E+000	7.37424E-004	-3.27687E+002	7	...........
	522	523	3.82144E+000	8.35220E-007	0.00000E+000	3.19174E-006	0.00000E+000	7.36190E-004	-3.27687E+002	7	...........
	523	524	3.82143E+000	8.35376E-007	0.00000E+000	3.19233E-006	0.00000E+000	7.38357E-004	-3.27687E+002	7	...........
	524	525	3.82143E+000	8.35301E-007	0.00000E+000	3.19204E-006	0.00000E+000	7.38757E-004	-3.27687E+002	7	...........
	525	526	3.82142E+000	8.34727E-007	0.00000E+000	3.18984E-006	0.00000E+000	7.39140E-004	-3.27687E+002	7	...........
	526	527	3.82142E+000	8.34608E-007	0.00000E+000	3.18939E-006	0.00000E+000	7.40607E-004	-3.27687E+002	7	...........
	527	528	3.82140E+000	8.33120E-007	0.00000E+000	3.18369E-006	0.00000E+000	7.38607E-004	-3.27687E+002	7	...........
	528	529	3.82141E+000	8.32953E-007	0.00000E+000	3.18305E-006	0.00000E+000	7.38324E-004	-3.27687E+002	7	...........
	529	530	3.82140E+000	8.33484E-007	0.00000E+000	3.18508E-006	0.00000E+000	7.41057E-004	-3.27687E+002	7	...........
	530	531	3.82138E+000	8.32370E-007	0.00000E+000	3.18080E-006	0.00000E+000	7.39907E-004	-3.27687E+002	7	...........
	531	532	3.82138E+000	8.32909E-007	0.00000E+000	3.18287E-006	0.00000E+000	7.41207E-004	-3.27687E+002	7	...........
	532	533	3.82137E+000	8.33268E-007	0.00000E+000	3.18423E-006	0.00000E+000	7.38874E-004	-3.27687E+002	7	...........
	533	534	3.82136E+000	8.32693E-007	0.00000E+000	3.18202E-006	0.00000E+000	7.37440E-004	-3.27687E+002	7	...........
	534	535	3.82137E+000	8.33465E-007	0.00000E+000	3.18498E-006	0.00000E+000	7.38657E-004	-3.27687E+002	7	...........
	535	536	3.82136E+000	8.33201E-007	0.00000E+000	3.18396E-006	0.00000E+000	7.39724E-004	-3.27687E+002	7	...........
	536	537	3.82135E+000	8.33172E-007	0.00000E+000	3.18384E-006	0.00000E+000	7.39240E-004	-3.27687E+002	7	...........
	537	538	3.82135E+000	8.33058E-007	0.00000E+000	3.18341E-006	0.00000E+000	7.38590E-004	-3.27687E+002	7	...........
	538	539	3.82135E+000	8.34101E-007	0.00000E+000	3.18739E-006	0.00000E+000	7.37290E-004	-3.27687E+002	7	...........
	539	540	3.82134E+000	8.33931E-007	0.00000E+000	3.18673E-006	0.00000E+000	7.37790E-004	-3.27687E+002	7	...........
	540	541	3.82134E+000	8.33483E-007	0.00000E+000	3.18502E-006	0.00000E+000	7.38457E-004	-3.27687E+002	7	...........
	541	542	3.82133E+000	8.33420E-007	0.00000E+000	3.18477E-006	0.00000E+000	7.37924E-004	-3.27687E+002	7	...........
	542	543	3.82132E+000	8.33256E-007	0.00000E+000	3.18414E-006	0.00000E+000	7.40140E-004	-3.27687E+002	7	...........
	543	544	3.82132E+000	8.32818E-007	0.00000E+000	3.18246E-006	0.00000E+000	7.39790E-004	-3.27687E+002	7	...........
	544	545	3.82131E+000	8.32034E-007	0.00000E+000	3.17946E-006	0.00000E+000	7.40240E-004	-3.27687E+002	7	...........
	545	546	3.82130E+000	8.32473E-007	0.00000E+000	3.18113E-006	0.00000E+000	7.38740E-004	-3.27687E+002	7	...........
	546	547	3.82130E+000	8.33359E-007	0.00000E+000	3.18451E-006	0.00000E+000	7.39140E-004	-3.27687E+002	7	...........
	547	548	3.82129E+000	8.34178E-007	0.00000E+000	3.18764E-006	0.00000E+000	7.38490E-004	-3.27687E+002	7	...........
	548	549	3.82129E+000	8.33971E-007	0.00000E+000	3.18685E-006	0.00000E+000	7.38324E-004	-3.27687E+002	7	...........
	549	550	3.82129E+000	8.33521E-007	0.00000E+000	3.18513E-006	0.00000E+000	7.38040E-004	-3.27687E+002	7	...........
	550	551	3.82128E+000	8.33273E-007	0.00000E+000	3.18417E-006	0.00000E+000	7.40257E-004	-3.27687E+002	7	...........
	551	552	3.82129E+000	8.33259E-007	0.00000E+000	3.18412E-006	0.00000E+000	7.41640E-004	-3.27687E+002	7	...........
	552	553	3.82128E+000	8.33146E-007	0.00000E+000	3.18368E-006	0.00000E+000	7.37357E-004	-3.27687E+002	7	...........
	553	554	3.82127E+000	8.33033E-007	0.00000E+000	3.18324E-006	0.00000E+000	7.39490E-004	-3.27687E+002	7	...........
	554	555	3.82126E+000	8.32595E-007	0.00000E+000	3.18156E-006	0.00000E+000	7.38324E-004	-3.27687E+002	7	...........
	555	556	3.82125E+000	8.32202E-007	0.00000E+000	3.18006E-006	0.00000E+000	7.38707E-004	-3.27687E+002	7	...........
	556	557	3.82125E+000	8.32883E-007	0.00000E+000	3.18265E-006	0.00000E+000	7.38124E-004	-3.27687E+002	7	...........
	557	558	3.82124E+000	8.32455E-007	0.00000E+000	3.18101E-006	0.00000E+000	7.41507E-004	-3.27687E+002	7	...........
	558	559	3.82124E+000	8.33148E-007	0.00000E+000	3.18366E-006	0.00000E+000	7.40274E-004	-3.27687E+002	7	...........
	559	560	3.82123E+000	8.33699E-007	0.00000E+000	3.18576E-006	0.00000E+000	7.39757E-004	-3.27687E+002	7	...........
	560	561	3.82122E+000	8.33336E-007	0.00000E+000	3.18436E-006	0.00000E+000	7.38057E-004	-3.27687E+002	7	...........
	561	562	3.82122E+000	8.32976E-007	0.00000E+000	3.18298E-006	0.00000E+000	7.41257E-004	-3.27687E+002	7	...........
	562	563	3.82121E+000	8.32647E-007	0.00000E+000	3.18172E-006	0.00000E+000	7.40907E-004	-3.27687E+002	7	...........
	563	564	3.82121E+000	8.33446E-007	0.00000E+000	3.18477E-006	0.00000E+000	7.40190E-004	-3.27687E+002	7	...........
	564	565	3.82121E+000	8.33519E-007	0.00000E+000	3.18505E-006	0.00000E+000	7.38924E-004	-3.27687E+002	7	...........
	565	566	3.82120E+000	8.32799E-007	0.00000E+000	3.18229E-006	0.00000E+000	7.39207E-004	-3.27687E+002	7	...........
	566	567	3.82119E+000	8.33241E-007	0.00000E+000	3.18397E-006	0.00000E+000	7.40024E-004	-3.27687E+002	7	...........
	567	568	3.82119E+000	8.32960E-007	0.00000E+000	3.18290E-006	0.00000E+000	7.39024E-004	-3.27687E+002	7	...........
	568	569	3.82118E+000	8.32691E-007	0.00000E+000	3.18186E-006	0.00000E+000	7.40307E-004	-3.27687E+002	7	...........
	569	570	3.82117E+000	8.32133E-007	0.00000E+000	3.17972E-006	0.00000E+000	7.40707E-004	-3.27687E+002	7	...........
	570	571	3.82116E+000	8.32764E-007	0.00000E+000	3.18213E-006	0.00000E+000	7.40207E-004	-3.27687E+002	7	...........
	571	572	3.82115E+000	8.31842E-007	0.00000E+000	3.17859E-006	0.00000E+000	7.40340E-004	-3.27687E+002	7	...........
	572	573	3.82114E+000	8.32077E-007	0.00000E+000	3.17949E-006	0.00000E+000	7.39424E-004	-3.27687E+002	7	...........
	573	574	3.82114E+000	8.32030E-007	0.00000E+000	3.17930E-006	0.00000E+000	7.40140E-004	-3.27687E+002	7	...........
	574	575	3.82113E+000	8.31634E-007	0.00000E+000	3.17778E-006	0.00000E+000	7.38957E-004	-3.27687E+002	7	...........
	575	576	3.82113E+000	8.31742E-007	0.00000E+000	3.17819E-006	0.00000E+000	7.40657E-004	-3.27687E+002	7	...........
	576	577	3.82113E+000	8.31936E-007	0.00000E+000	3.17893E-006	0.00000E+000	7.38524E-004	-3.27687E+002	7	...........
	577	578	3.82112E+000	8.32731E-007	0.00000E+000	3.18196E-006	0.00000E+000	7.41007E-004	-3.27687E+002	7	...........
	578	579	3.82111E+000	8.33099E-007	0.00000E+000	3.18337E-006	0.00000E+000	7.41540E-004	-3.27687E+002	7	...........
	579	580	3.82111E+000	8.33470E-007	0.00000E+000	3.18478E-006	0.00000E+000	7.42324E-004	-3.27687E+002	7	...........
	580	581	3.82110E+000	8.32917E-007	0.00000E+000	3.18266E-006	0.00000E+000	7.40890E-004	-3.27687E+002	7	...........
	581	582	3.82108E+000	8.32826E-007	0.00000E+000	3.18230E-006	0.00000E+000	7.40657E-004	-3.27687E+002	7	...........
	582	583	3.82109E+000	8.32690E-007	0.00000E+000	3.18179E-006	0.00000E+000	7.40340E-004	-3.27687E+002	7	...........
	583	584	3.82108E+000	8.32960E-007	0.00000E+000	3.18281E-006	0.00000E+000	7.41440E-004	-3.27687E+002	7	...........
	584	585	3.82108E+000	8.33004E-007	0.00000E+000	3.18298E-006	0.00000E+000	7.40540E-004	-3.27687E+002	7	...........
	585	586	3.82107E+000	8.32821E-007	0.00000E+000	3.18227E-006	0.00000E+000	7.43190E-004	-3.27687E+002	7	...........
	586	587	3.82106E+000	8.34326E-007	0.00000E+000	3.18801E-006	0.00000E+000	7.43107E-004	-3.27687E+002	7	...........
	587	588	3.82106E+000	8.34522E-007	0.00000E+000	3.18876E-006	0.00000E+000	7.43557E-004	-3.27687E+002	7	...........
	588	589	3.82106E+000	8.34000E-007	0.00000E+000	3.18676E-006	0.00000E+000	7.42290E-004	-3.27687E+002	7	...........
	589	590	3.82104E+000	8.33657E-007	0.00000E+000	3.18544E-006	0.00000E+000	7.43407E-004	-3.27687E+002	7	...........
	590	591	3.82104E+000	8.34006E-007	0.00000E+000	3.18677E-006	0.00000E+000	7.43207E-004	-3.27687E+002	7	...........
	591	592	3.82104E+000	8.34552E-007	0.00000E+000	3.18886E-006	0.00000E+000	7.42024E-004	-3.27687E+002	7	...........
	592	593	3.82103E+000	8.34594E-007	0.00000E+000	3.18901E-006	0.00000E+000	7.42324E-004	-3.27687E+002	7	...........
	593	594	3.82103E+000	8.35208E-007	0.00000E+000	3.19135E-006	0.00000E+000	7.42890E-004	-3.27687E+002	7	...........
	594	595	3.82102E+000	8.35152E-007	0.00000E+000	3.19113E-006	0.00000E+000	7.44624E-004	-3.27687E+002	7	...........
	595	596	3.82101E+000	8.34199E-007	0.00000E+000	3.18748E-006	0.00000E+000	7.41990E-004	-3.27687E+002	7	...........
	596	597	3.82100E+000	8.34086E-007	0.00000E+000	3.18705E-006	0.00000E+000	7.43274E-004	-3.27687E+002	7	...........
	597	598	3.82099E+000	8.34331E-007	0.00000E+000	3.18797E-006	0.00000E+000	7.44474E-004	-3.27687E+002	7	...........
	598	599	3.82099E+000	8.34310E-007	0.00000E+000	3.18789E-006	0.00000E+000	7.43757E-004	-3.27687E+002	7	...........
	599	600	3.82098E+000	8.34264E-007	0.00000E+000	3.18771E-006	0.00000E+000	7.43207E-004	-3.27687E+002	7	...........
