EXPLAIN
TAG	PWR800_READVOLTAGE
TITLE	LABEL	PWR Read Voltage	Test Identifier
DATE	LABEL	24.5.2024	Date
TIME	LABEL	9:22:06	Time
NOTES	NOTES	1	Notes...
	
PSTAT	PSTAT	REF600-12055	Potentiostat
CAPACITY	QUANT	1.00000E+000	Capacity (A-hr)
CELLTYPE	SELECTOR	1	Cell Type
WORKINGCONNECTION	SELECTOR	0	Working Connection
MAXTIME	VARIABLEANDUNITS	6.00000E+002	s	6.00000E+002	second(s)	Max Time
SAMPLETIME	QUANT	1.00000E+000	Sample Period (s)
STOPAT1	MULTIPARAM	0	0.00000E+000	Stop At 1	None	N/A
STOPAT2	MULTIPARAM	0	0.00000E+000	Stop At 2	None	N/A
AESBHCSELECTOR	TOGGLE	F	Save Both Half Cells
EOC	QUANT	0	Open Circuit (V)
SEQUENCER	TOGGLE	TRUE	Run as Sequence
PSTATMODEL	IQUANT	4	Pstat Model
PSTATSECTION	LABEL	REF600-12055	Pstat Section
PSTATSERIALNO	LABEL	12055	Pstat Serial Number
CTRLMODE	IQUANT	0	Control Mode
ELECTROMETER	IQUANT	0	RE=0 or CS=1
IESTAB	IQUANT	0	I/E Stability
CASPEED	IQUANT	4	Control Amp Speed
CONVENTION	IQUANT	1	Current Convention
ICHRANGE	IQUANT	2	Ich Range
ICHRANGEMODE	TOGGLE	T	Ich Auto Range
ICHOFFSETENABLE	TOGGLE	F	Ich Offset Enable
ICHOFFSET	QUANT	0	Ich Offset (V)
ICHFILTER	IQUANT	1	Ich Filter
VCHRANGE	IQUANT	3	Vch Range
VCHRANGEMODE	TOGGLE	T	Vch Auto Range
VCHOFFSETENABLE	TOGGLE	F	Vch Offset Enable
VCHOFFSET	QUANT	0	Vch Offset (V)
VCHFILTER	IQUANT	1	Vch Filter
ACHRANGE	IQUANT	2	Ach Range
ACHOFFSETENABLE	TOGGLE	F	Ach Offset Enable
ACHOFFSET	QUANT	0	Ach Offset (V)
ACHFILTER	IQUANT	1	Ach Filter
IERANGELOWERLIMIT	IQUANT	7	I/E Range Lower Limit
IERANGEMODE	TOGGLE	F	I/E AutoRange
IERANGE	IQUANT	11	I/E Range
POSFEEDENABLE	TOGGLE	F	Positive Feedback IR Comp
POSFEEDRESISTANCE	QUANT	0	Positive Feedback Resistance (ohm)
ACHSELECT	IQUANT	4	Ach Select
SENSECABLEID	IQUANT	14	Sense Cable ID
PWRCABLEID	IQUANT	14	Power Cable ID
DCCALDATE	LABEL	2/12/2024	DC Calibration Date
ACCALDATE	LABEL	2/12/2024	AC Calibration Date
THERMOSELECT	IQUANT	1	Thermo Select
FRAMEWORKVERSION	LABEL	7.10.3	Framework Version
INSTRUMENTVERSION	LABEL	4.91	Instrument Version
COMMVERSION	LABEL	2.24	Communications Version
CPUPLDVERSION	LABEL	0.00	CPU PLD Version
CTRLPLDVERSION	LABEL	0.00	CTRL PLD Version
PSTATPLDVERSION	LABEL	0.00	PSTAT PLD Version
CURVE	TABLE	600
	Pt	T	Vf	Im	Vu	Pwr	Sig	Ach	Temp	IERange	Over
	#	s	V	A	V	W	V	V	deg C	#	bits
	0	1	3.19385E+000	1.62552E-006	0.00000E+000	5.19166E-006	0.00000E+000	1.00244E-003	-3.27687E+002	7	...........
	1	2	3.19323E+000	1.62609E-006	0.00000E+000	5.19247E-006	0.00000E+000	1.00371E-003	-3.27687E+002	7	...........
	2	3	3.19289E+000	1.62604E-006	0.00000E+000	5.19178E-006	0.00000E+000	9.98507E-004	-3.27687E+002	7	...........
	3	4	3.19269E+000	1.62593E-006	0.00000E+000	5.19110E-006	0.00000E+000	9.96407E-004	-3.27687E+002	7	...........
	4	5	3.19253E+000	1.62546E-006	0.00000E+000	5.18931E-006	0.00000E+000	9.94190E-004	-3.27687E+002	7	...........
	5	6	3.19235E+000	1.62611E-006	0.00000E+000	5.19111E-006	0.00000E+000	9.94107E-004	-3.27687E+002	7	...........
	6	7	3.19216E+000	1.62586E-006	0.00000E+000	5.19000E-006	0.00000E+000	9.95524E-004	-3.27687E+002	7	...........
	7	8	3.19195E+000	1.62576E-006	0.00000E+000	5.18936E-006	0.00000E+000	9.98024E-004	-3.27687E+002	7	...........
	8	9	3.19177E+000	1.62591E-006	0.00000E+000	5.18954E-006	0.00000E+000	9.98407E-004	-3.27687E+002	7	...........
	9	10	3.19159E+000	1.62582E-006	0.00000E+000	5.18895E-006	0.00000E+000	9.95074E-004	-3.27687E+002	7	...........
	10	11	3.19144E+000	1.62512E-006	0.00000E+000	5.18647E-006	0.00000E+000	9.93390E-004	-3.27687E+002	7	...........
	11	12	3.19131E+000	1.62519E-006	0.00000E+000	5.18648E-006	0.00000E+000	9.92074E-004	-3.27687E+002	7	...........
	12	13	3.19119E+000	1.62546E-006	0.00000E+000	5.18715E-006	0.00000E+000	9.88224E-004	-3.27687E+002	7	...........
	13	14	3.19106E+000	1.62642E-006	0.00000E+000	5.19000E-006	0.00000E+000	9.88540E-004	-3.27687E+002	7	...........
	14	15	3.19094E+000	1.62675E-006	0.00000E+000	5.19087E-006	0.00000E+000	9.91290E-004	-3.27687E+002	7	...........
	15	16	3.19081E+000	1.62591E-006	0.00000E+000	5.18797E-006	0.00000E+000	9.95257E-004	-3.27687E+002	7	...........
	16	17	3.19069E+000	1.62597E-006	0.00000E+000	5.18796E-006	0.00000E+000	9.91490E-004	-3.27687E+002	7	...........
	17	18	3.19055E+000	1.62588E-006	0.00000E+000	5.18744E-006	0.00000E+000	1.00119E-003	-3.27687E+002	7	...........
	18	19	3.19041E+000	1.62626E-006	0.00000E+000	5.18846E-006	0.00000E+000	1.00011E-003	-3.27687E+002	7	...........
	19	20	3.19028E+000	1.62647E-006	0.00000E+000	5.18889E-006	0.00000E+000	1.00367E-003	-3.27687E+002	7	...........
	20	21	3.19016E+000	1.62606E-006	0.00000E+000	5.18740E-006	0.00000E+000	8.33790E-004	-3.27687E+002	7	...........
	21	22	3.19005E+000	1.62603E-006	0.00000E+000	5.18711E-006	0.00000E+000	7.55290E-004	-3.27687E+002	7	...........
	22	23	3.18995E+000	1.62564E-006	0.00000E+000	5.18573E-006	0.00000E+000	7.51724E-004	-3.27687E+002	7	...........
	23	24	3.18985E+000	1.62552E-006	0.00000E+000	5.18517E-006	0.00000E+000	7.53507E-004	-3.27687E+002	7	...........
	24	25	3.18976E+000	1.62577E-006	0.00000E+000	5.18582E-006	0.00000E+000	7.52390E-004	-3.27687E+002	7	...........
	25	26	3.18965E+000	1.62622E-006	0.00000E+000	5.18707E-006	0.00000E+000	7.49540E-004	-3.27687E+002	7	...........
	26	27	3.18956E+000	1.62712E-006	0.00000E+000	5.18980E-006	0.00000E+000	7.44824E-004	-3.27687E+002	7	...........
	27	28	3.18947E+000	1.62647E-006	0.00000E+000	5.18757E-006	0.00000E+000	7.42240E-004	-3.27687E+002	7	...........
	28	29	3.18938E+000	1.62590E-006	0.00000E+000	5.18560E-006	0.00000E+000	7.44657E-004	-3.27687E+002	7	...........
	29	30	3.18930E+000	1.62620E-006	0.00000E+000	5.18643E-006	0.00000E+000	7.46490E-004	-3.27687E+002	7	...........
	30	31	3.18922E+000	1.62643E-006	0.00000E+000	5.18704E-006	0.00000E+000	7.47940E-004	-3.27687E+002	7	...........
	31	32	3.18913E+000	1.62614E-006	0.00000E+000	5.18596E-006	0.00000E+000	7.51207E-004	-3.27687E+002	7	...........
	32	33	3.18906E+000	1.62648E-006	0.00000E+000	5.18693E-006	0.00000E+000	7.52840E-004	-3.27687E+002	7	...........
	33	34	3.18897E+000	1.62641E-006	0.00000E+000	5.18657E-006	0.00000E+000	7.53674E-004	-3.27687E+002	7	...........
	34	35	3.18889E+000	1.62649E-006	0.00000E+000	5.18670E-006	0.00000E+000	7.55657E-004	-3.27687E+002	7	...........
	35	36	3.18880E+000	1.62614E-006	0.00000E+000	5.18545E-006	0.00000E+000	7.56507E-004	-3.27687E+002	7	...........
	36	37	3.18872E+000	1.62639E-006	0.00000E+000	5.18610E-006	0.00000E+000	7.56857E-004	-3.27687E+002	7	...........
	37	38	3.18865E+000	1.62693E-006	0.00000E+000	5.18772E-006	0.00000E+000	7.58824E-004	-3.27687E+002	7	...........
	38	39	3.18858E+000	1.62751E-006	0.00000E+000	5.18944E-006	0.00000E+000	7.56674E-004	-3.27687E+002	7	...........
	39	40	3.18851E+000	1.62707E-006	0.00000E+000	5.18794E-006	0.00000E+000	7.57457E-004	-3.27687E+002	7	...........
	40	41	3.18844E+000	1.62687E-006	0.00000E+000	5.18716E-006	0.00000E+000	7.54057E-004	-3.27687E+002	7	...........
	41	42	3.18837E+000	1.62634E-006	0.00000E+000	5.18537E-006	0.00000E+000	7.55340E-004	-3.27687E+002	7	...........
	42	43	3.18831E+000	1.62662E-006	0.00000E+000	5.18618E-006	0.00000E+000	7.52807E-004	-3.27687E+002	7	...........
	43	44	3.18824E+000	1.62685E-006	0.00000E+000	5.18678E-006	0.00000E+000	7.55407E-004	-3.27687E+002	7	...........
	44	45	3.18818E+000	1.62706E-006	0.00000E+000	5.18734E-006	0.00000E+000	7.49040E-004	-3.27687E+002	7	...........
	45	46	3.18813E+000	1.62700E-006	0.00000E+000	5.18708E-006	0.00000E+000	7.50274E-004	-3.27687E+002	7	...........
	46	47	3.18806E+000	1.62651E-006	0.00000E+000	5.18541E-006	0.00000E+000	7.47957E-004	-3.27687E+002	7	...........
	47	48	3.18800E+000	1.62601E-006	0.00000E+000	5.18373E-006	0.00000E+000	7.45857E-004	-3.27687E+002	7	...........
	48	49	3.18795E+000	1.62616E-006	0.00000E+000	5.18411E-006	0.00000E+000	7.46457E-004	-3.27687E+002	7	...........
	49	50	3.18791E+000	1.62633E-006	0.00000E+000	5.18460E-006	0.00000E+000	7.43774E-004	-3.27687E+002	7	...........
	50	51	3.18785E+000	1.62708E-006	0.00000E+000	5.18688E-006	0.00000E+000	7.43740E-004	-3.27687E+002	7	...........
	51	52	3.18781E+000	1.62647E-006	0.00000E+000	5.18488E-006	0.00000E+000	7.43657E-004	-3.27687E+002	7	...........
	52	53	3.18775E+000	1.62636E-006	0.00000E+000	5.18443E-006	0.00000E+000	7.44324E-004	-3.27687E+002	7	...........
	53	54	3.18770E+000	1.62664E-006	0.00000E+000	5.18526E-006	0.00000E+000	7.43707E-004	-3.27687E+002	7	...........
	54	55	3.18765E+000	1.62727E-006	0.00000E+000	5.18719E-006	0.00000E+000	7.47424E-004	-3.27687E+002	7	...........
	55	56	3.18761E+000	1.62720E-006	0.00000E+000	5.18688E-006	0.00000E+000	7.46474E-004	-3.27687E+002	7	...........
	56	57	3.18756E+000	1.62712E-006	0.00000E+000	5.18655E-006	0.00000E+000	7.45407E-004	-3.27687E+002	7	...........
	57	58	3.18751E+000	1.62698E-006	0.00000E+000	5.18601E-006	0.00000E+000	7.47390E-004	-3.27687E+002	7	...........
	58	59	3.18746E+000	1.62709E-006	0.00000E+000	5.18628E-006	0.00000E+000	7.49340E-004	-3.27687E+002	7	...........
	59	60	3.18741E+000	1.62683E-006	0.00000E+000	5.18537E-006	0.00000E+000	7.49790E-004	-3.27687E+002	7	...........
	60	61	3.18734E+000	1.62728E-006	0.00000E+000	5.18671E-006	0.00000E+000	7.50890E-004	-3.27687E+002	7	...........
	61	62	3.18730E+000	1.62772E-006	0.00000E+000	5.18804E-006	0.00000E+000	7.49907E-004	-3.27687E+002	7	...........
	62	63	3.18725E+000	1.62813E-006	0.00000E+000	5.18925E-006	0.00000E+000	7.53124E-004	-3.27687E+002	7	...........
	63	64	3.18720E+000	1.62728E-006	0.00000E+000	5.18647E-006	0.00000E+000	7.50507E-004	-3.27687E+002	7	...........
	64	65	3.18712E+000	1.62738E-006	0.00000E+000	5.18666E-006	0.00000E+000	7.53140E-004	-3.27687E+002	7	...........
	65	66	3.18707E+000	1.62768E-006	0.00000E+000	5.18753E-006	0.00000E+000	7.52640E-004	-3.27687E+002	7	...........
	66	67	3.18702E+000	1.62790E-006	0.00000E+000	5.18816E-006	0.00000E+000	7.51957E-004	-3.27687E+002	7	...........
	67	68	3.18696E+000	1.62744E-006	0.00000E+000	5.18660E-006	0.00000E+000	7.55524E-004	-3.27687E+002	7	...........
	68	69	3.18691E+000	1.62676E-006	0.00000E+000	5.18433E-006	0.00000E+000	7.55624E-004	-3.27687E+002	7	...........
	69	70	3.18687E+000	1.62699E-006	0.00000E+000	5.18499E-006	0.00000E+000	7.56257E-004	-3.27687E+002	7	...........
	70	71	3.18682E+000	1.62696E-006	0.00000E+000	5.18482E-006	0.00000E+000	7.56240E-004	-3.27687E+002	7	...........
	71	72	3.18679E+000	1.62699E-006	0.00000E+000	5.18488E-006	0.00000E+000	7.54374E-004	-3.27687E+002	7	...........
	72	73	3.18674E+000	1.62724E-006	0.00000E+000	5.18560E-006	0.00000E+000	7.54857E-004	-3.27687E+002	7	...........
	73	74	3.18670E+000	1.62820E-006	0.00000E+000	5.18859E-006	0.00000E+000	7.54940E-004	-3.27687E+002	7	...........
	74	75	3.18667E+000	1.62877E-006	0.00000E+000	5.19035E-006	0.00000E+000	7.53190E-004	-3.27687E+002	7	...........
	75	76	3.18664E+000	1.62800E-006	0.00000E+000	5.18785E-006	0.00000E+000	7.52340E-004	-3.27687E+002	7	...........
	76	77	3.18660E+000	1.62773E-006	0.00000E+000	5.18693E-006	0.00000E+000	7.52324E-004	-3.27687E+002	7	...........
	77	78	3.18657E+000	1.62824E-006	0.00000E+000	5.18850E-006	0.00000E+000	7.54207E-004	-3.27687E+002	7	...........
	78	79	3.18655E+000	1.62803E-006	0.00000E+000	5.18779E-006	0.00000E+000	7.52574E-004	-3.27687E+002	7	...........
	79	80	3.18652E+000	1.62846E-006	0.00000E+000	5.18910E-006	0.00000E+000	7.50757E-004	-3.27687E+002	7	...........
	80	81	3.18649E+000	1.62807E-006	0.00000E+000	5.18782E-006	0.00000E+000	7.52374E-004	-3.27687E+002	7	...........
	81	82	3.18647E+000	1.62762E-006	0.00000E+000	5.18635E-006	0.00000E+000	7.49924E-004	-3.27687E+002	7	...........
	82	83	3.18645E+000	1.62741E-006	0.00000E+000	5.18564E-006	0.00000E+000	7.48740E-004	-3.27687E+002	7	...........
	83	84	3.18642E+000	1.62731E-006	0.00000E+000	5.18528E-006	0.00000E+000	7.48174E-004	-3.27687E+002	7	...........
	84	85	3.18640E+000	1.62802E-006	0.00000E+000	5.18752E-006	0.00000E+000	7.47807E-004	-3.27687E+002	7	...........
	85	86	3.18638E+000	1.62887E-006	0.00000E+000	5.19021E-006	0.00000E+000	7.48124E-004	-3.27687E+002	7	...........
	86	87	3.18637E+000	1.62905E-006	0.00000E+000	5.19076E-006	0.00000E+000	7.47840E-004	-3.27687E+002	7	...........
	87	88	3.18634E+000	1.62878E-006	0.00000E+000	5.18985E-006	0.00000E+000	7.45740E-004	-3.27687E+002	7	...........
	88	89	3.18632E+000	1.62814E-006	0.00000E+000	5.18778E-006	0.00000E+000	7.46540E-004	-3.27687E+002	7	...........
	89	90	3.18631E+000	1.62792E-006	0.00000E+000	5.18705E-006	0.00000E+000	7.46340E-004	-3.27687E+002	7	...........
	90	91	3.18629E+000	1.62834E-006	0.00000E+000	5.18838E-006	0.00000E+000	7.45557E-004	-3.27687E+002	7	...........
	91	92	3.18627E+000	1.62899E-006	0.00000E+000	5.19041E-006	0.00000E+000	7.49140E-004	-3.27687E+002	7	...........
	92	93	3.18626E+000	1.62879E-006	0.00000E+000	5.18974E-006	0.00000E+000	7.45824E-004	-3.27687E+002	7	...........
	93	94	3.18624E+000	1.62805E-006	0.00000E+000	5.18736E-006	0.00000E+000	7.45274E-004	-3.27687E+002	7	...........
	94	95	3.18623E+000	1.62838E-006	0.00000E+000	5.18837E-006	0.00000E+000	7.47040E-004	-3.27687E+002	7	...........
	95	96	3.18622E+000	1.62808E-006	0.00000E+000	5.18742E-006	0.00000E+000	7.43507E-004	-3.27687E+002	7	...........
	96	97	3.18620E+000	1.62787E-006	0.00000E+000	5.18672E-006	0.00000E+000	7.43290E-004	-3.27687E+002	7	...........
	97	98	3.18618E+000	1.62902E-006	0.00000E+000	5.19036E-006	0.00000E+000	7.43957E-004	-3.27687E+002	7	...........
	98	99	3.18617E+000	1.62941E-006	0.00000E+000	5.19159E-006	0.00000E+000	7.43224E-004	-3.27687E+002	7	...........
	99	100	3.18615E+000	1.62869E-006	0.00000E+000	5.18926E-006	0.00000E+000	7.45990E-004	-3.27687E+002	7	...........
	100	101	3.18614E+000	1.62885E-006	0.00000E+000	5.18973E-006	0.00000E+000	7.41640E-004	-3.27687E+002	7	...........
	101	102	3.18612E+000	1.62882E-006	0.00000E+000	5.18962E-006	0.00000E+000	7.42724E-004	-3.27687E+002	7	...........
	102	103	3.18611E+000	1.62871E-006	0.00000E+000	5.18925E-006	0.00000E+000	7.40290E-004	-3.27687E+002	7	...........
	103	104	3.18610E+000	1.62938E-006	0.00000E+000	5.19135E-006	0.00000E+000	7.41290E-004	-3.27687E+002	7	...........
	104	105	3.18608E+000	1.62905E-006	0.00000E+000	5.19029E-006	0.00000E+000	7.42324E-004	-3.27687E+002	7	...........
	105	106	3.18607E+000	1.62933E-006	0.00000E+000	5.19114E-006	0.00000E+000	7.41907E-004	-3.27687E+002	7	...........
	106	107	3.18606E+000	1.62882E-006	0.00000E+000	5.18952E-006	0.00000E+000	7.41124E-004	-3.27687E+002	7	...........
	107	108	3.18604E+000	1.62861E-006	0.00000E+000	5.18881E-006	0.00000E+000	7.41674E-004	-3.27687E+002	7	...........
	108	109	3.18602E+000	1.62874E-006	0.00000E+000	5.18921E-006	0.00000E+000	7.42340E-004	-3.27687E+002	7	...........
	109	110	3.18601E+000	1.62983E-006	0.00000E+000	5.19265E-006	0.00000E+000	7.46124E-004	-3.27687E+002	7	...........
	110	111	3.18599E+000	1.62961E-006	0.00000E+000	5.19193E-006	0.00000E+000	7.45907E-004	-3.27687E+002	7	...........
	111	112	3.18598E+000	1.62941E-006	0.00000E+000	5.19127E-006	0.00000E+000	7.43940E-004	-3.27687E+002	7	...........
	112	113	3.18597E+000	1.62975E-006	0.00000E+000	5.19233E-006	0.00000E+000	7.43957E-004	-3.27687E+002	7	...........
	113	114	3.18596E+000	1.62939E-006	0.00000E+000	5.19118E-006	0.00000E+000	7.45524E-004	-3.27687E+002	7	...........
	114	115	3.18594E+000	1.62953E-006	0.00000E+000	5.19158E-006	0.00000E+000	7.48674E-004	-3.27687E+002	7	...........
	115	116	3.18593E+000	1.62990E-006	0.00000E+000	5.19276E-006	0.00000E+000	7.46174E-004	-3.27687E+002	7	...........
	116	117	3.18592E+000	1.63012E-006	0.00000E+000	5.19342E-006	0.00000E+000	7.48624E-004	-3.27687E+002	7	...........
	117	118	3.18590E+000	1.63023E-006	0.00000E+000	5.19376E-006	0.00000E+000	7.47190E-004	-3.27687E+002	7	...........
	118	119	3.18588E+000	1.62961E-006	0.00000E+000	5.19176E-006	0.00000E+000	7.46374E-004	-3.27687E+002	7	...........
	119	120	3.18587E+000	1.62951E-006	0.00000E+000	5.19140E-006	0.00000E+000	7.46524E-004	-3.27687E+002	7	...........
	120	121	3.18585E+000	1.62963E-006	0.00000E+000	5.19176E-006	0.00000E+000	7.48857E-004	-3.27687E+002	7	...........
	121	122	3.18584E+000	1.63057E-006	0.00000E+000	5.19475E-006	0.00000E+000	7.46640E-004	-3.27687E+002	7	...........
	122	123	3.18582E+000	1.63092E-006	0.00000E+000	5.19582E-006	0.00000E+000	7.48407E-004	-3.27687E+002	7	...........
	123	124	3.18582E+000	1.63000E-006	0.00000E+000	5.19289E-006	0.00000E+000	7.45257E-004	-3.27687E+002	7	...........
	124	125	3.18579E+000	1.63002E-006	0.00000E+000	5.19291E-006	0.00000E+000	7.48040E-004	-3.27687E+002	7	...........
	125	126	3.18578E+000	1.63047E-006	0.00000E+000	5.19432E-006	0.00000E+000	7.50007E-004	-3.27687E+002	7	...........
	126	127	3.18576E+000	1.63049E-006	0.00000E+000	5.19434E-006	0.00000E+000	7.50157E-004	-3.27687E+002	7	...........
	127	128	3.18575E+000	1.63042E-006	0.00000E+000	5.19409E-006	0.00000E+000	7.49957E-004	-3.27687E+002	7	...........
	128	129	3.18573E+000	1.63074E-006	0.00000E+000	5.19509E-006	0.00000E+000	7.48824E-004	-3.27687E+002	7	...........
	129	130	3.18572E+000	1.63018E-006	0.00000E+000	5.19328E-006	0.00000E+000	7.49190E-004	-3.27687E+002	7	...........
	130	131	3.18571E+000	1.63019E-006	0.00000E+000	5.19332E-006	0.00000E+000	7.48740E-004	-3.27687E+002	7	...........
	131	132	3.18570E+000	1.62959E-006	0.00000E+000	5.19137E-006	0.00000E+000	7.50907E-004	-3.27687E+002	7	...........
	132	133	3.18567E+000	1.63044E-006	0.00000E+000	5.19403E-006	0.00000E+000	7.49190E-004	-3.27687E+002	7	...........
	133	134	3.18567E+000	1.63071E-006	0.00000E+000	5.19489E-006	0.00000E+000	7.49607E-004	-3.27687E+002	7	...........
	134	135	3.18565E+000	1.63115E-006	0.00000E+000	5.19628E-006	0.00000E+000	7.50124E-004	-3.27687E+002	7	...........
	135	136	3.18564E+000	1.63032E-006	0.00000E+000	5.19361E-006	0.00000E+000	7.49440E-004	-3.27687E+002	7	...........
	136	137	3.18563E+000	1.63004E-006	0.00000E+000	5.19271E-006	0.00000E+000	7.47874E-004	-3.27687E+002	7	...........
	137	138	3.18562E+000	1.63039E-006	0.00000E+000	5.19380E-006	0.00000E+000	7.51190E-004	-3.27687E+002	7	...........
	138	139	3.18561E+000	1.63031E-006	0.00000E+000	5.19352E-006	0.00000E+000	7.50357E-004	-3.27687E+002	7	...........
	139	140	3.18559E+000	1.63025E-006	0.00000E+000	5.19332E-006	0.00000E+000	7.48540E-004	-3.27687E+002	7	...........
	140	141	3.18558E+000	1.62974E-006	0.00000E+000	5.19165E-006	0.00000E+000	7.49840E-004	-3.27687E+002	7	...........
	141	142	3.18557E+000	1.62937E-006	0.00000E+000	5.19047E-006	0.00000E+000	7.52257E-004	-3.27687E+002	7	...........
	142	143	3.18556E+000	1.62933E-006	0.00000E+000	5.19032E-006	0.00000E+000	7.49874E-004	-3.27687E+002	7	...........
	143	144	3.18554E+000	1.62925E-006	0.00000E+000	5.19003E-006	0.00000E+000	7.48674E-004	-3.27687E+002	7	...........
	144	145	3.18552E+000	1.62986E-006	0.00000E+000	5.19195E-006	0.00000E+000	7.49324E-004	-3.27687E+002	7	...........
	145	146	3.18552E+000	1.63007E-006	0.00000E+000	5.19262E-006	0.00000E+000	7.51774E-004	-3.27687E+002	7	...........
	146	147	3.18551E+000	1.63083E-006	0.00000E+000	5.19503E-006	0.00000E+000	7.48407E-004	-3.27687E+002	7	...........
	147	148	3.18549E+000	1.63001E-006	0.00000E+000	5.19237E-006	0.00000E+000	7.47740E-004	-3.27687E+002	7	...........
	148	149	3.18548E+000	1.62978E-006	0.00000E+000	5.19164E-006	0.00000E+000	7.51174E-004	-3.27687E+002	7	...........
	149	150	3.18547E+000	1.63026E-006	0.00000E+000	5.19313E-006	0.00000E+000	7.50890E-004	-3.27687E+002	7	...........
	150	151	3.18545E+000	1.63018E-006	0.00000E+000	5.19287E-006	0.00000E+000	7.48307E-004	-3.27687E+002	7	...........
	151	152	3.18545E+000	1.62999E-006	0.00000E+000	5.19223E-006	0.00000E+000	7.48840E-004	-3.27687E+002	7	...........
	152	153	3.18543E+000	1.62973E-006	0.00000E+000	5.19140E-006	0.00000E+000	7.50340E-004	-3.27687E+002	7	...........
	153	154	3.18542E+000	1.62991E-006	0.00000E+000	5.19195E-006	0.00000E+000	7.50674E-004	-3.27687E+002	7	...........
	154	155	3.18541E+000	1.62950E-006	0.00000E+000	5.19063E-006	0.00000E+000	7.51157E-004	-3.27687E+002	7	...........
	155	156	3.18540E+000	1.62979E-006	0.00000E+000	5.19154E-006	0.00000E+000	7.50390E-004	-3.27687E+002	7	...........
	156	157	3.18540E+000	1.63075E-006	0.00000E+000	5.19458E-006	0.00000E+000	7.49690E-004	-3.27687E+002	7	...........
	157	158	3.18538E+000	1.62996E-006	0.00000E+000	5.19203E-006	0.00000E+000	7.48757E-004	-3.27687E+002	7	...........
	158	159	3.18537E+000	1.63049E-006	0.00000E+000	5.19372E-006	0.00000E+000	7.50140E-004	-3.27687E+002	7	...........
	159	160	3.18536E+000	1.62980E-006	0.00000E+000	5.19152E-006	0.00000E+000	7.46857E-004	-3.27687E+002	7	...........
	160	161	3.18535E+000	1.63016E-006	0.00000E+000	5.19262E-006	0.00000E+000	7.47940E-004	-3.27687E+002	7	...........
	161	162	3.18535E+000	1.62992E-006	0.00000E+000	5.19187E-006	0.00000E+000	7.49507E-004	-3.27687E+002	7	...........
	162	163	3.18533E+000	1.63031E-006	0.00000E+000	5.19308E-006	0.00000E+000	7.50157E-004	-3.27687E+002	7	...........
	163	164	3.18533E+000	1.63021E-006	0.00000E+000	5.19277E-006	0.00000E+000	7.48757E-004	-3.27687E+002	7	...........
	164	165	3.18532E+000	1.63043E-006	0.00000E+000	5.19345E-006	0.00000E+000	7.50990E-004	-3.27687E+002	7	...........
	165	166	3.18531E+000	1.62991E-006	0.00000E+000	5.19177E-006	0.00000E+000	7.50457E-004	-3.27687E+002	7	...........
	166	167	3.18531E+000	1.62974E-006	0.00000E+000	5.19123E-006	0.00000E+000	7.48590E-004	-3.27687E+002	7	...........
	167	168	3.18530E+000	1.62953E-006	0.00000E+000	5.19054E-006	0.00000E+000	7.48774E-004	-3.27687E+002	7	...........
	168	169	3.18529E+000	1.63012E-006	0.00000E+000	5.19241E-006	0.00000E+000	7.48924E-004	-3.27687E+002	7	...........
	169	170	3.18528E+000	1.63083E-006	0.00000E+000	5.19465E-006	0.00000E+000	7.45657E-004	-3.27687E+002	7	...........
	170	171	3.18527E+000	1.63094E-006	0.00000E+000	5.19500E-006	0.00000E+000	7.44574E-004	-3.27687E+002	7	...........
	171	172	3.18526E+000	1.63040E-006	0.00000E+000	5.19325E-006	0.00000E+000	7.44357E-004	-3.27687E+002	7	...........
	172	173	3.18526E+000	1.63041E-006	0.00000E+000	5.19329E-006	0.00000E+000	7.47690E-004	-3.27687E+002	7	...........
	173	174	3.18525E+000	1.63054E-006	0.00000E+000	5.19369E-006	0.00000E+000	7.46590E-004	-3.27687E+002	7	...........
	174	175	3.18525E+000	1.63099E-006	0.00000E+000	5.19511E-006	0.00000E+000	7.43974E-004	-3.27687E+002	7	...........
	175	176	3.18524E+000	1.63087E-006	0.00000E+000	5.19471E-006	0.00000E+000	7.47624E-004	-3.27687E+002	7	...........
	176	177	3.18523E+000	1.63060E-006	0.00000E+000	5.19384E-006	0.00000E+000	7.45890E-004	-3.27687E+002	7	...........
	177	178	3.18521E+000	1.63073E-006	0.00000E+000	5.19421E-006	0.00000E+000	7.46024E-004	-3.27687E+002	7	...........
	178	179	3.18521E+000	1.63025E-006	0.00000E+000	5.19269E-006	0.00000E+000	7.47207E-004	-3.27687E+002	7	...........
	179	180	3.18521E+000	1.63031E-006	0.00000E+000	5.19288E-006	0.00000E+000	7.43524E-004	-3.27687E+002	7	...........
	180	181	3.18519E+000	1.63038E-006	0.00000E+000	5.19309E-006	0.00000E+000	7.46240E-004	-3.27687E+002	7	...........
	181	182	3.18520E+000	1.63069E-006	0.00000E+000	5.19407E-006	0.00000E+000	7.45524E-004	-3.27687E+002	7	...........
	182	183	3.18519E+000	1.63116E-006	0.00000E+000	5.19556E-006	0.00000E+000	7.46207E-004	-3.27687E+002	7	...........
	183	184	3.18518E+000	1.63136E-006	0.00000E+000	5.19617E-006	0.00000E+000	7.43657E-004	-3.27687E+002	7	...........
	184	185	3.18518E+000	1.63073E-006	0.00000E+000	5.19416E-006	0.00000E+000	7.47457E-004	-3.27687E+002	7	...........
	185	186	3.18517E+000	1.63076E-006	0.00000E+000	5.19425E-006	0.00000E+000	7.45374E-004	-3.27687E+002	7	...........
	186	187	3.18515E+000	1.63055E-006	0.00000E+000	5.19355E-006	0.00000E+000	7.41690E-004	-3.27687E+002	7	...........
	187	188	3.18515E+000	1.63039E-006	0.00000E+000	5.19303E-006	0.00000E+000	7.43524E-004	-3.27687E+002	7	...........
	188	189	3.18515E+000	1.63062E-006	0.00000E+000	5.19375E-006	0.00000E+000	7.45207E-004	-3.27687E+002	7	...........
	189	190	3.18514E+000	1.63012E-006	0.00000E+000	5.19216E-006	0.00000E+000	7.41940E-004	-3.27687E+002	7	...........
	190	191	3.18513E+000	1.63019E-006	0.00000E+000	5.19235E-006	0.00000E+000	7.42657E-004	-3.27687E+002	7	...........
	191	192	3.18512E+000	1.63017E-006	0.00000E+000	5.19229E-006	0.00000E+000	7.40807E-004	-3.27687E+002	7	...........
	192	193	3.18511E+000	1.63049E-006	0.00000E+000	5.19330E-006	0.00000E+000	7.40007E-004	-3.27687E+002	7	...........
	193	194	3.18511E+000	1.63093E-006	0.00000E+000	5.19470E-006	0.00000E+000	7.43574E-004	-3.27687E+002	7	...........
	194	195	3.18511E+000	1.63089E-006	0.00000E+000	5.19455E-006	0.00000E+000	7.42924E-004	-3.27687E+002	7	...........
	195	196	3.18510E+000	1.63068E-006	0.00000E+000	5.19386E-006	0.00000E+000	7.41024E-004	-3.27687E+002	7	...........
	196	197	3.18510E+000	1.63071E-006	0.00000E+000	5.19398E-006	0.00000E+000	7.43040E-004	-3.27687E+002	7	...........
	197	198	3.18510E+000	1.63137E-006	0.00000E+000	5.19608E-006	0.00000E+000	7.43107E-004	-3.27687E+002	7	...........
	198	199	3.18508E+000	1.63171E-006	0.00000E+000	5.19712E-006	0.00000E+000	7.44040E-004	-3.27687E+002	7	...........
	199	200	3.18509E+000	1.63162E-006	0.00000E+000	5.19684E-006	0.00000E+000	7.45857E-004	-3.27687E+002	7	...........
	200	201	3.18508E+000	1.63122E-006	0.00000E+000	5.19558E-006	0.00000E+000	7.40990E-004	-3.27687E+002	7	...........
	201	202	3.18507E+000	1.63085E-006	0.00000E+000	5.19436E-006	0.00000E+000	7.42224E-004	-3.27687E+002	7	...........
	202	203	3.18507E+000	1.63080E-006	0.00000E+000	5.19422E-006	0.00000E+000	7.43757E-004	-3.27687E+002	7	...........
	203	204	3.18505E+000	1.63034E-006	0.00000E+000	5.19273E-006	0.00000E+000	7.40640E-004	-3.27687E+002	7	...........
	204	205	3.18505E+000	1.63031E-006	0.00000E+000	5.19261E-006	0.00000E+000	7.39440E-004	-3.27687E+002	7	...........
	205	206	3.18505E+000	1.63092E-006	0.00000E+000	5.19455E-006	0.00000E+000	7.42957E-004	-3.27687E+002	7	...........
	206	207	3.18504E+000	1.63126E-006	0.00000E+000	5.19564E-006	0.00000E+000	7.41940E-004	-3.27687E+002	7	...........
	207	208	3.18503E+000	1.63078E-006	0.00000E+000	5.19410E-006	0.00000E+000	7.42407E-004	-3.27687E+002	7	...........
	208	209	3.18504E+000	1.63019E-006	0.00000E+000	5.19221E-006	0.00000E+000	7.40224E-004	-3.27687E+002	7	...........
	209	210	3.18504E+000	1.63054E-006	0.00000E+000	5.19334E-006	0.00000E+000	7.42257E-004	-3.27687E+002	7	...........
	210	211	3.18502E+000	1.63072E-006	0.00000E+000	5.19389E-006	0.00000E+000	7.38707E-004	-3.27687E+002	7	...........
	211	212	3.18503E+000	1.63086E-006	0.00000E+000	5.19433E-006	0.00000E+000	7.38940E-004	-3.27687E+002	7	...........
	212	213	3.18501E+000	1.63054E-006	0.00000E+000	5.19331E-006	0.00000E+000	7.37574E-004	-3.27687E+002	7	...........
	213	214	3.18502E+000	1.63025E-006	0.00000E+000	5.19237E-006	0.00000E+000	7.37790E-004	-3.27687E+002	7	...........
	214	215	3.18501E+000	1.62996E-006	0.00000E+000	5.19145E-006	0.00000E+000	7.39390E-004	-3.27687E+002	7	...........
	215	216	3.18500E+000	1.63018E-006	0.00000E+000	5.19213E-006	0.00000E+000	7.37457E-004	-3.27687E+002	7	...........
	216	217	3.18500E+000	1.63063E-006	0.00000E+000	5.19354E-006	0.00000E+000	7.38007E-004	-3.27687E+002	7	...........
	217	218	3.18499E+000	1.63117E-006	0.00000E+000	5.19527E-006	0.00000E+000	7.36657E-004	-3.27687E+002	7	...........
	218	219	3.18499E+000	1.63153E-006	0.00000E+000	5.19642E-006	0.00000E+000	7.38957E-004	-3.27687E+002	7	...........
	219	220	3.18499E+000	1.63136E-006	0.00000E+000	5.19588E-006	0.00000E+000	7.38657E-004	-3.27687E+002	7	...........
	220	221	3.18499E+000	1.63090E-006	0.00000E+000	5.19439E-006	0.00000E+000	7.36340E-004	-3.27687E+002	7	...........
	221	222	3.18498E+000	1.63173E-006	0.00000E+000	5.19702E-006	0.00000E+000	7.35640E-004	-3.27687E+002	7	...........
	222	223	3.18498E+000	1.63137E-006	0.00000E+000	5.19589E-006	0.00000E+000	7.36774E-004	-3.27687E+002	7	...........
	223	224	3.18497E+000	1.63123E-006	0.00000E+000	5.19543E-006	0.00000E+000	7.36407E-004	-3.27687E+002	7	...........
	224	225	3.18496E+000	1.63119E-006	0.00000E+000	5.19529E-006	0.00000E+000	7.39040E-004	-3.27687E+002	7	...........
	225	226	3.18496E+000	1.63058E-006	0.00000E+000	5.19335E-006	0.00000E+000	7.36074E-004	-3.27687E+002	7	...........
	226	227	3.18495E+000	1.63059E-006	0.00000E+000	5.19337E-006	0.00000E+000	7.36924E-004	-3.27687E+002	7	...........
	227	228	3.18496E+000	1.63008E-006	0.00000E+000	5.19173E-006	0.00000E+000	7.37040E-004	-3.27687E+002	7	...........
	228	229	3.18495E+000	1.63021E-006	0.00000E+000	5.19212E-006	0.00000E+000	7.33924E-004	-3.27687E+002	7	...........
	229	230	3.18495E+000	1.63071E-006	0.00000E+000	5.19371E-006	0.00000E+000	7.36524E-004	-3.27687E+002	7	...........
	230	231	3.18495E+000	1.63110E-006	0.00000E+000	5.19496E-006	0.00000E+000	7.36374E-004	-3.27687E+002	7	...........
	231	232	3.18494E+000	1.63066E-006	0.00000E+000	5.19356E-006	0.00000E+000	7.35640E-004	-3.27687E+002	7	...........
	232	233	3.18494E+000	1.63055E-006	0.00000E+000	5.19320E-006	0.00000E+000	7.35224E-004	-3.27687E+002	7	...........
	233	234	3.18493E+000	1.63101E-006	0.00000E+000	5.19465E-006	0.00000E+000	7.37707E-004	-3.27687E+002	7	...........
	234	235	3.18493E+000	1.63155E-006	0.00000E+000	5.19639E-006	0.00000E+000	7.37574E-004	-3.27687E+002	7	...........
	235	236	3.18492E+000	1.63172E-006	0.00000E+000	5.19691E-006	0.00000E+000	7.34640E-004	-3.27687E+002	7	...........
	236	237	3.18492E+000	1.63105E-006	0.00000E+000	5.19478E-006	0.00000E+000	7.37007E-004	-3.27687E+002	7	...........
	237	238	3.18492E+000	1.63088E-006	0.00000E+000	5.19423E-006	0.00000E+000	7.38074E-004	-3.27687E+002	7	...........
	238	239	3.18491E+000	1.63097E-006	0.00000E+000	5.19449E-006	0.00000E+000	7.35007E-004	-3.27687E+002	7	...........
	239	240	3.18491E+000	1.63085E-006	0.00000E+000	5.19410E-006	0.00000E+000	7.33974E-004	-3.27687E+002	7	...........
	240	241	3.18490E+000	1.63160E-006	0.00000E+000	5.19648E-006	0.00000E+000	7.32874E-004	-3.27687E+002	7	...........
	241	242	3.18491E+000	1.63170E-006	0.00000E+000	5.19682E-006	0.00000E+000	7.34490E-004	-3.27687E+002	7	...........
	242	243	3.18489E+000	1.63183E-006	0.00000E+000	5.19721E-006	0.00000E+000	7.34574E-004	-3.27687E+002	7	...........
	243	244	3.18490E+000	1.63116E-006	0.00000E+000	5.19508E-006	0.00000E+000	7.35557E-004	-3.27687E+002	7	...........
	244	245	3.18490E+000	1.63177E-006	0.00000E+000	5.19703E-006	0.00000E+000	7.34040E-004	-3.27687E+002	7	...........
	245	246	3.18489E+000	1.63154E-006	0.00000E+000	5.19626E-006	0.00000E+000	7.35390E-004	-3.27687E+002	7	...........
	246	247	3.18488E+000	1.63192E-006	0.00000E+000	5.19747E-006	0.00000E+000	7.31007E-004	-3.27687E+002	7	...........
	247	248	3.18489E+000	1.63209E-006	0.00000E+000	5.19804E-006	0.00000E+000	7.35490E-004	-3.27687E+002	7	...........
	248	249	3.18489E+000	1.63184E-006	0.00000E+000	5.19724E-006	0.00000E+000	7.33774E-004	-3.27687E+002	7	...........
	249	250	3.18489E+000	1.63172E-006	0.00000E+000	5.19684E-006	0.00000E+000	7.36024E-004	-3.27687E+002	7	...........
	250	251	3.18489E+000	1.63112E-006	0.00000E+000	5.19495E-006	0.00000E+000	7.34140E-004	-3.27687E+002	7	...........
	251	252	3.18488E+000	1.63159E-006	0.00000E+000	5.19640E-006	0.00000E+000	7.33840E-004	-3.27687E+002	7	...........
	252	253	3.18488E+000	1.63158E-006	0.00000E+000	5.19638E-006	0.00000E+000	7.36874E-004	-3.27687E+002	7	...........
	253	254	3.18487E+000	1.63147E-006	0.00000E+000	5.19602E-006	0.00000E+000	7.35824E-004	-3.27687E+002	7	...........
	254	255	3.18487E+000	1.63184E-006	0.00000E+000	5.19720E-006	0.00000E+000	7.34407E-004	-3.27687E+002	7	...........
	255	256	3.18486E+000	1.63155E-006	0.00000E+000	5.19626E-006	0.00000E+000	7.32957E-004	-3.27687E+002	7	...........
	256	257	3.18486E+000	1.63117E-006	0.00000E+000	5.19506E-006	0.00000E+000	7.33557E-004	-3.27687E+002	7	...........
	257	258	3.18486E+000	1.63156E-006	0.00000E+000	5.19630E-006	0.00000E+000	7.34724E-004	-3.27687E+002	7	...........
	258	259	3.18486E+000	1.63226E-006	0.00000E+000	5.19852E-006	0.00000E+000	7.36257E-004	-3.27687E+002	7	...........
	259	260	3.18486E+000	1.63178E-006	0.00000E+000	5.19699E-006	0.00000E+000	7.32407E-004	-3.27687E+002	7	...........
	260	261	3.18486E+000	1.63134E-006	0.00000E+000	5.19560E-006	0.00000E+000	7.33374E-004	-3.27687E+002	7	...........
	261	262	3.18486E+000	1.63128E-006	0.00000E+000	5.19539E-006	0.00000E+000	7.35357E-004	-3.27687E+002	7	...........
	262	263	3.18485E+000	1.63119E-006	0.00000E+000	5.19511E-006	0.00000E+000	7.36390E-004	-3.27687E+002	7	...........
	263	264	3.18485E+000	1.63074E-006	0.00000E+000	5.19366E-006	0.00000E+000	7.33957E-004	-3.27687E+002	7	...........
	264	265	3.18484E+000	1.63121E-006	0.00000E+000	5.19515E-006	0.00000E+000	7.33390E-004	-3.27687E+002	7	...........
	265	266	3.18485E+000	1.63204E-006	0.00000E+000	5.19780E-006	0.00000E+000	7.34857E-004	-3.27687E+002	7	...........
	266	267	3.18484E+000	1.63208E-006	0.00000E+000	5.19793E-006	0.00000E+000	7.35440E-004	-3.27687E+002	7	...........
	267	268	3.18484E+000	1.63126E-006	0.00000E+000	5.19529E-006	0.00000E+000	7.31207E-004	-3.27687E+002	7	...........
	268	269	3.18483E+000	1.63123E-006	0.00000E+000	5.19519E-006	0.00000E+000	7.31090E-004	-3.27687E+002	7	...........
	269	270	3.18484E+000	1.63212E-006	0.00000E+000	5.19804E-006	0.00000E+000	7.34107E-004	-3.27687E+002	7	...........
	270	271	3.18483E+000	1.63189E-006	0.00000E+000	5.19728E-006	0.00000E+000	7.34990E-004	-3.27687E+002	7	...........
	271	272	3.18484E+000	1.63247E-006	0.00000E+000	5.19915E-006	0.00000E+000	7.33940E-004	-3.27687E+002	7	...........
	272	273	3.18484E+000	1.63178E-006	0.00000E+000	5.19695E-006	0.00000E+000	7.33457E-004	-3.27687E+002	7	...........
	273	274	3.18482E+000	1.63199E-006	0.00000E+000	5.19759E-006	0.00000E+000	7.32674E-004	-3.27687E+002	7	...........
	274	275	3.18482E+000	1.63144E-006	0.00000E+000	5.19583E-006	0.00000E+000	7.32474E-004	-3.27687E+002	7	...........
	275	276	3.18482E+000	1.63152E-006	0.00000E+000	5.19609E-006	0.00000E+000	7.35907E-004	-3.27687E+002	7	...........
	276	277	3.18481E+000	1.63175E-006	0.00000E+000	5.19681E-006	0.00000E+000	7.35857E-004	-3.27687E+002	7	...........
	277	278	3.18481E+000	1.63260E-006	0.00000E+000	5.19951E-006	0.00000E+000	7.33740E-004	-3.27687E+002	7	...........
	278	279	3.18481E+000	1.63255E-006	0.00000E+000	5.19938E-006	0.00000E+000	7.35107E-004	-3.27687E+002	7	...........
	279	280	3.18481E+000	1.63163E-006	0.00000E+000	5.19642E-006	0.00000E+000	7.33007E-004	-3.27687E+002	7	...........
	280	281	3.18481E+000	1.63176E-006	0.00000E+000	5.19685E-006	0.00000E+000	7.37690E-004	-3.27687E+002	7	...........
	281	282	3.18481E+000	1.63187E-006	0.00000E+000	5.19721E-006	0.00000E+000	7.35257E-004	-3.27687E+002	7	...........
	282	283	3.18480E+000	1.63208E-006	0.00000E+000	5.19784E-006	0.00000E+000	7.38240E-004	-3.27687E+002	7	...........
	283	284	3.18481E+000	1.63184E-006	0.00000E+000	5.19710E-006	0.00000E+000	7.35940E-004	-3.27687E+002	7	...........
	284	285	3.18480E+000	1.63190E-006	0.00000E+000	5.19728E-006	0.00000E+000	7.34057E-004	-3.27687E+002	7	...........
	285	286	3.18480E+000	1.63166E-006	0.00000E+000	5.19650E-006	0.00000E+000	7.33107E-004	-3.27687E+002	7	...........
	286	287	3.18479E+000	1.63107E-006	0.00000E+000	5.19461E-006	0.00000E+000	7.34257E-004	-3.27687E+002	7	...........
	287	288	3.18479E+000	1.63119E-006	0.00000E+000	5.19501E-006	0.00000E+000	7.34124E-004	-3.27687E+002	7	...........
	288	289	3.18479E+000	1.63129E-006	0.00000E+000	5.19532E-006	0.00000E+000	7.35074E-004	-3.27687E+002	7	...........
	289	290	3.18479E+000	1.63173E-006	0.00000E+000	5.19673E-006	0.00000E+000	7.34774E-004	-3.27687E+002	7	...........
	290	291	3.18479E+000	1.63195E-006	0.00000E+000	5.19740E-006	0.00000E+000	7.34574E-004	-3.27687E+002	7	...........
	291	292	3.18478E+000	1.63135E-006	0.00000E+000	5.19550E-006	0.00000E+000	7.31790E-004	-3.27687E+002	7	...........
	292	293	3.18478E+000	1.63146E-006	0.00000E+000	5.19584E-006	0.00000E+000	7.32257E-004	-3.27687E+002	7	...........
	293	294	3.18478E+000	1.63159E-006	0.00000E+000	5.19625E-006	0.00000E+000	7.33424E-004	-3.27687E+002	7	...........
	294	295	3.18476E+000	1.63200E-006	0.00000E+000	5.19754E-006	0.00000E+000	7.35190E-004	-3.27687E+002	7	...........
	295	296	3.18477E+000	1.63142E-006	0.00000E+000	5.19570E-006	0.00000E+000	7.35974E-004	-3.27687E+002	7	...........
	296	297	3.18476E+000	1.63146E-006	0.00000E+000	5.19582E-006	0.00000E+000	7.36574E-004	-3.27687E+002	7	...........
	297	298	3.18476E+000	1.63176E-006	0.00000E+000	5.19676E-006	0.00000E+000	7.33374E-004	-3.27687E+002	7	...........
	298	299	3.18476E+000	1.63126E-006	0.00000E+000	5.19518E-006	0.00000E+000	7.37074E-004	-3.27687E+002	7	...........
	299	300	3.18475E+000	1.63128E-006	0.00000E+000	5.19524E-006	0.00000E+000	7.35724E-004	-3.27687E+002	7	...........
	300	301	3.18476E+000	1.63145E-006	0.00000E+000	5.19577E-006	0.00000E+000	7.35874E-004	-3.27687E+002	7	...........
	301	302	3.18475E+000	1.63194E-006	0.00000E+000	5.19732E-006	0.00000E+000	7.37440E-004	-3.27687E+002	7	...........
	302	303	3.18474E+000	1.63227E-006	0.00000E+000	5.19835E-006	0.00000E+000	7.34857E-004	-3.27687E+002	7	...........
	303	304	3.18475E+000	1.63182E-006	0.00000E+000	5.19693E-006	0.00000E+000	7.35590E-004	-3.27687E+002	7	...........
	304	305	3.18474E+000	1.63177E-006	0.00000E+000	5.19678E-006	0.00000E+000	7.34190E-004	-3.27687E+002	7	...........
	305	306	3.18475E+000	1.63123E-006	0.00000E+000	5.19505E-006	0.00000E+000	7.35774E-004	-3.27687E+002	7	...........
	306	307	3.18475E+000	1.63171E-006	0.00000E+000	5.19658E-006	0.00000E+000	7.34357E-004	-3.27687E+002	7	...........
	307	308	3.18475E+000	1.63200E-006	0.00000E+000	5.19752E-006	0.00000E+000	7.36957E-004	-3.27687E+002	7	...........
	308	309	3.18475E+000	1.63245E-006	0.00000E+000	5.19893E-006	0.00000E+000	7.34257E-004	-3.27687E+002	7	...........
	309	310	3.18475E+000	1.63137E-006	0.00000E+000	5.19550E-006	0.00000E+000	7.39974E-004	-3.27687E+002	7	...........
	310	311	3.18473E+000	1.63170E-006	0.00000E+000	5.19654E-006	0.00000E+000	7.34257E-004	-3.27687E+002	7	...........
	311	312	3.18474E+000	1.63121E-006	0.00000E+000	5.19497E-006	0.00000E+000	7.32574E-004	-3.27687E+002	7	...........
	312	313	3.18475E+000	1.63143E-006	0.00000E+000	5.19570E-006	0.00000E+000	7.33524E-004	-3.27687E+002	7	...........
	313	314	3.18474E+000	1.63186E-006	0.00000E+000	5.19704E-006	0.00000E+000	7.36540E-004	-3.27687E+002	7	...........
	314	315	3.18474E+000	1.63276E-006	0.00000E+000	5.19990E-006	0.00000E+000	7.35674E-004	-3.27687E+002	7	...........
	315	316	3.18473E+000	1.63174E-006	0.00000E+000	5.19667E-006	0.00000E+000	7.34174E-004	-3.27687E+002	7	...........
	316	317	3.18473E+000	1.63214E-006	0.00000E+000	5.19791E-006	0.00000E+000	7.36474E-004	-3.27687E+002	7	...........
	317	318	3.18473E+000	1.63168E-006	0.00000E+000	5.19646E-006	0.00000E+000	7.33557E-004	-3.27687E+002	7	...........
	318	319	3.18471E+000	1.63231E-006	0.00000E+000	5.19845E-006	0.00000E+000	7.32824E-004	-3.27687E+002	7	...........
	319	320	3.18473E+000	1.63263E-006	0.00000E+000	5.19948E-006	0.00000E+000	7.35774E-004	-3.27687E+002	7	...........
	320	321	3.18473E+000	1.63255E-006	0.00000E+000	5.19921E-006	0.00000E+000	7.36790E-004	-3.27687E+002	7	...........
	321	322	3.18473E+000	1.63257E-006	0.00000E+000	5.19929E-006	0.00000E+000	7.33507E-004	-3.27687E+002	7	...........
	322	323	3.18472E+000	1.63202E-006	0.00000E+000	5.19752E-006	0.00000E+000	7.35890E-004	-3.27687E+002	7	...........
	323	324	3.18473E+000	1.63176E-006	0.00000E+000	5.19671E-006	0.00000E+000	7.35090E-004	-3.27687E+002	7	...........
	324	325	3.18472E+000	1.63231E-006	0.00000E+000	5.19845E-006	0.00000E+000	7.34607E-004	-3.27687E+002	7	...........
	325	326	3.18472E+000	1.63248E-006	0.00000E+000	5.19900E-006	0.00000E+000	7.33040E-004	-3.27687E+002	7	...........
	326	327	3.18472E+000	1.63253E-006	0.00000E+000	5.19915E-006	0.00000E+000	7.32157E-004	-3.27687E+002	7	...........
	327	328	3.18472E+000	1.63200E-006	0.00000E+000	5.19748E-006	0.00000E+000	7.33907E-004	-3.27687E+002	7	...........
	328	329	3.18473E+000	1.63166E-006	0.00000E+000	5.19638E-006	0.00000E+000	7.32507E-004	-3.27687E+002	7	...........
	329	330	3.18472E+000	1.63197E-006	0.00000E+000	5.19736E-006	0.00000E+000	7.32524E-004	-3.27687E+002	7	...........
	330	331	3.18472E+000	1.63229E-006	0.00000E+000	5.19839E-006	0.00000E+000	7.31957E-004	-3.27687E+002	7	...........
	331	332	3.18471E+000	1.63254E-006	0.00000E+000	5.19918E-006	0.00000E+000	7.31107E-004	-3.27687E+002	7	...........
	332	333	3.18471E+000	1.63251E-006	0.00000E+000	5.19906E-006	0.00000E+000	7.33957E-004	-3.27687E+002	7	...........
	333	334	3.18471E+000	1.63212E-006	0.00000E+000	5.19783E-006	0.00000E+000	7.35340E-004	-3.27687E+002	7	...........
	334	335	3.18471E+000	1.63174E-006	0.00000E+000	5.19662E-006	0.00000E+000	7.30657E-004	-3.27687E+002	7	...........
	335	336	3.18471E+000	1.63087E-006	0.00000E+000	5.19385E-006	0.00000E+000	7.33890E-004	-3.27687E+002	7	...........
	336	337	3.18471E+000	1.63134E-006	0.00000E+000	5.19536E-006	0.00000E+000	7.33590E-004	-3.27687E+002	7	...........
	337	338	3.18472E+000	1.63181E-006	0.00000E+000	5.19685E-006	0.00000E+000	7.33257E-004	-3.27687E+002	7	...........
	338	339	3.18471E+000	1.63242E-006	0.00000E+000	5.19880E-006	0.00000E+000	7.31824E-004	-3.27687E+002	7	...........
	339	340	3.18471E+000	1.63190E-006	0.00000E+000	5.19712E-006	0.00000E+000	7.31624E-004	-3.27687E+002	7	...........
	340	341	3.18471E+000	1.63166E-006	0.00000E+000	5.19636E-006	0.00000E+000	7.32324E-004	-3.27687E+002	7	...........
	341	342	3.18471E+000	1.63203E-006	0.00000E+000	5.19755E-006	0.00000E+000	7.33340E-004	-3.27687E+002	7	...........
	342	343	3.18471E+000	1.63240E-006	0.00000E+000	5.19873E-006	0.00000E+000	7.34007E-004	-3.27687E+002	7	...........
	343	344	3.18471E+000	1.63238E-006	0.00000E+000	5.19867E-006	0.00000E+000	7.33040E-004	-3.27687E+002	7	...........
	344	345	3.18471E+000	1.63205E-006	0.00000E+000	5.19761E-006	0.00000E+000	7.37607E-004	-3.27687E+002	7	...........
	345	346	3.18471E+000	1.63193E-006	0.00000E+000	5.19721E-006	0.00000E+000	7.32890E-004	-3.27687E+002	7	...........
	346	347	3.18470E+000	1.63168E-006	0.00000E+000	5.19643E-006	0.00000E+000	7.36624E-004	-3.27687E+002	7	...........
	347	348	3.18471E+000	1.63101E-006	0.00000E+000	5.19428E-006	0.00000E+000	7.34090E-004	-3.27687E+002	7	...........
	348	349	3.18471E+000	1.63210E-006	0.00000E+000	5.19777E-006	0.00000E+000	7.34357E-004	-3.27687E+002	7	...........
	349	350	3.18470E+000	1.63174E-006	0.00000E+000	5.19662E-006	0.00000E+000	7.33807E-004	-3.27687E+002	7	...........
	350	351	3.18470E+000	1.63246E-006	0.00000E+000	5.19890E-006	0.00000E+000	7.33174E-004	-3.27687E+002	7	...........
	351	352	3.18470E+000	1.63169E-006	0.00000E+000	5.19645E-006	0.00000E+000	7.35190E-004	-3.27687E+002	7	...........
	352	353	3.18470E+000	1.63090E-006	0.00000E+000	5.19392E-006	0.00000E+000	7.33240E-004	-3.27687E+002	7	...........
	353	354	3.18470E+000	1.63138E-006	0.00000E+000	5.19547E-006	0.00000E+000	7.34540E-004	-3.27687E+002	7	...........
	354	355	3.18470E+000	1.63177E-006	0.00000E+000	5.19668E-006	0.00000E+000	7.32257E-004	-3.27687E+002	7	...........
	355	356	3.18470E+000	1.63173E-006	0.00000E+000	5.19656E-006	0.00000E+000	7.34690E-004	-3.27687E+002	7	...........
	356	357	3.18470E+000	1.63204E-006	0.00000E+000	5.19757E-006	0.00000E+000	7.33607E-004	-3.27687E+002	7	...........
	357	358	3.18470E+000	1.63181E-006	0.00000E+000	5.19683E-006	0.00000E+000	7.33274E-004	-3.27687E+002	7	...........
	358	359	3.18469E+000	1.63150E-006	0.00000E+000	5.19581E-006	0.00000E+000	7.31607E-004	-3.27687E+002	7	...........
	359	360	3.18468E+000	1.63126E-006	0.00000E+000	5.19506E-006	0.00000E+000	7.34774E-004	-3.27687E+002	7	...........
	360	361	3.18469E+000	1.63103E-006	0.00000E+000	5.19433E-006	0.00000E+000	7.35207E-004	-3.27687E+002	7	...........
	361	362	3.18469E+000	1.63149E-006	0.00000E+000	5.19580E-006	0.00000E+000	7.35040E-004	-3.27687E+002	7	...........
	362	363	3.18469E+000	1.63216E-006	0.00000E+000	5.19791E-006	0.00000E+000	7.36040E-004	-3.27687E+002	7	...........
	363	364	3.18469E+000	1.63128E-006	0.00000E+000	5.19512E-006	0.00000E+000	7.35440E-004	-3.27687E+002	7	...........
	364	365	3.18469E+000	1.63172E-006	0.00000E+000	5.19652E-006	0.00000E+000	7.36190E-004	-3.27687E+002	7	...........
	365	366	3.18469E+000	1.63117E-006	0.00000E+000	5.19475E-006	0.00000E+000	7.34440E-004	-3.27687E+002	7	...........
	366	367	3.18468E+000	1.63116E-006	0.00000E+000	5.19472E-006	0.00000E+000	7.33324E-004	-3.27687E+002	7	...........
	367	368	3.18469E+000	1.63138E-006	0.00000E+000	5.19542E-006	0.00000E+000	7.32340E-004	-3.27687E+002	7	...........
	368	369	3.18468E+000	1.63172E-006	0.00000E+000	5.19650E-006	0.00000E+000	7.32840E-004	-3.27687E+002	7	...........
	369	370	3.18469E+000	1.63165E-006	0.00000E+000	5.19629E-006	0.00000E+000	7.36374E-004	-3.27687E+002	7	...........
	370	371	3.18469E+000	1.63164E-006	0.00000E+000	5.19627E-006	0.00000E+000	7.35940E-004	-3.27687E+002	7	...........
	371	372	3.18468E+000	1.63075E-006	0.00000E+000	5.19341E-006	0.00000E+000	7.34224E-004	-3.27687E+002	7	...........
	372	373	3.18468E+000	1.63132E-006	0.00000E+000	5.19524E-006	0.00000E+000	7.33557E-004	-3.27687E+002	7	...........
	373	374	3.18469E+000	1.63231E-006	0.00000E+000	5.19841E-006	0.00000E+000	7.34074E-004	-3.27687E+002	7	...........
	374	375	3.18468E+000	1.63255E-006	0.00000E+000	5.19916E-006	0.00000E+000	7.31407E-004	-3.27687E+002	7	...........
	375	376	3.18468E+000	1.63237E-006	0.00000E+000	5.19859E-006	0.00000E+000	7.32690E-004	-3.27687E+002	7	...........
	376	377	3.18469E+000	1.63219E-006	0.00000E+000	5.19803E-006	0.00000E+000	7.35390E-004	-3.27687E+002	7	...........
	377	378	3.18469E+000	1.63226E-006	0.00000E+000	5.19825E-006	0.00000E+000	7.33640E-004	-3.27687E+002	7	...........
	378	379	3.18468E+000	1.63209E-006	0.00000E+000	5.19771E-006	0.00000E+000	7.33874E-004	-3.27687E+002	7	...........
	379	380	3.18469E+000	1.63254E-006	0.00000E+000	5.19913E-006	0.00000E+000	7.31107E-004	-3.27687E+002	7	...........
	380	381	3.18468E+000	1.63220E-006	0.00000E+000	5.19805E-006	0.00000E+000	7.32524E-004	-3.27687E+002	7	...........
	381	382	3.18469E+000	1.63204E-006	0.00000E+000	5.19753E-006	0.00000E+000	7.32240E-004	-3.27687E+002	7	...........
	382	383	3.18468E+000	1.63204E-006	0.00000E+000	5.19752E-006	0.00000E+000	7.32624E-004	-3.27687E+002	7	...........
	383	384	3.18468E+000	1.63099E-006	0.00000E+000	5.19417E-006	0.00000E+000	7.33340E-004	-3.27687E+002	7	...........
	384	385	3.18468E+000	1.63148E-006	0.00000E+000	5.19576E-006	0.00000E+000	7.32624E-004	-3.27687E+002	7	...........
	385	386	3.18467E+000	1.63174E-006	0.00000E+000	5.19654E-006	0.00000E+000	7.33857E-004	-3.27687E+002	7	...........
	386	387	3.18468E+000	1.63228E-006	0.00000E+000	5.19830E-006	0.00000E+000	7.34774E-004	-3.27687E+002	7	...........
	387	388	3.18469E+000	1.63232E-006	0.00000E+000	5.19843E-006	0.00000E+000	7.35374E-004	-3.27687E+002	7	...........
	388	389	3.18467E+000	1.63166E-006	0.00000E+000	5.19631E-006	0.00000E+000	7.31690E-004	-3.27687E+002	7	...........
	389	390	3.18467E+000	1.63197E-006	0.00000E+000	5.19730E-006	0.00000E+000	7.34124E-004	-3.27687E+002	7	...........
	390	391	3.18468E+000	1.63213E-006	0.00000E+000	5.19781E-006	0.00000E+000	7.33624E-004	-3.27687E+002	7	...........
	391	392	3.18467E+000	1.63264E-006	0.00000E+000	5.19942E-006	0.00000E+000	7.31990E-004	-3.27687E+002	7	...........
	392	393	3.18467E+000	1.63225E-006	0.00000E+000	5.19818E-006	0.00000E+000	7.32824E-004	-3.27687E+002	7	...........
	393	394	3.18468E+000	1.63243E-006	0.00000E+000	5.19876E-006	0.00000E+000	7.34340E-004	-3.27687E+002	7	...........
	394	395	3.18468E+000	1.63264E-006	0.00000E+000	5.19944E-006	0.00000E+000	7.34107E-004	-3.27687E+002	7	...........
	395	396	3.18468E+000	1.63244E-006	0.00000E+000	5.19881E-006	0.00000E+000	7.33657E-004	-3.27687E+002	7	...........
	396	397	3.18467E+000	1.63251E-006	0.00000E+000	5.19901E-006	0.00000E+000	7.33257E-004	-3.27687E+002	7	...........
	397	398	3.18468E+000	1.63224E-006	0.00000E+000	5.19815E-006	0.00000E+000	7.32324E-004	-3.27687E+002	7	...........
	398	399	3.18468E+000	1.63321E-006	0.00000E+000	5.20126E-006	0.00000E+000	7.31607E-004	-3.27687E+002	7	...........
	399	400	3.18467E+000	1.63300E-006	0.00000E+000	5.20056E-006	0.00000E+000	7.34024E-004	-3.27687E+002	7	...........
	400	401	3.18468E+000	1.63226E-006	0.00000E+000	5.19822E-006	0.00000E+000	7.32424E-004	-3.27687E+002	7	...........
	401	402	3.18467E+000	1.63290E-006	0.00000E+000	5.20025E-006	0.00000E+000	7.36557E-004	-3.27687E+002	7	...........
	402	403	3.18467E+000	1.63236E-006	0.00000E+000	5.19852E-006	0.00000E+000	7.34074E-004	-3.27687E+002	7	...........
	403	404	3.18467E+000	1.63250E-006	0.00000E+000	5.19898E-006	0.00000E+000	7.35874E-004	-3.27687E+002	7	...........
	404	405	3.18467E+000	1.63297E-006	0.00000E+000	5.20047E-006	0.00000E+000	7.34440E-004	-3.27687E+002	7	...........
	405	406	3.18467E+000	1.63233E-006	0.00000E+000	5.19844E-006	0.00000E+000	7.34490E-004	-3.27687E+002	7	...........
	406	407	3.18466E+000	1.63196E-006	0.00000E+000	5.19724E-006	0.00000E+000	7.33190E-004	-3.27687E+002	7	...........
	407	408	3.18467E+000	1.63161E-006	0.00000E+000	5.19614E-006	0.00000E+000	7.32724E-004	-3.27687E+002	7	...........
	408	409	3.18467E+000	1.63193E-006	0.00000E+000	5.19717E-006	0.00000E+000	7.29757E-004	-3.27687E+002	7	...........
	409	410	3.18468E+000	1.63193E-006	0.00000E+000	5.19716E-006	0.00000E+000	7.35240E-004	-3.27687E+002	7	...........
	410	411	3.18467E+000	1.63218E-006	0.00000E+000	5.19796E-006	0.00000E+000	7.33107E-004	-3.27687E+002	7	...........
	411	412	3.18467E+000	1.63298E-006	0.00000E+000	5.20051E-006	0.00000E+000	7.34957E-004	-3.27687E+002	7	...........
	412	413	3.18468E+000	1.63280E-006	0.00000E+000	5.19995E-006	0.00000E+000	7.36524E-004	-3.27687E+002	7	...........
	413	414	3.18467E+000	1.63257E-006	0.00000E+000	5.19920E-006	0.00000E+000	7.36207E-004	-3.27687E+002	7	...........
	414	415	3.18467E+000	1.63278E-006	0.00000E+000	5.19986E-006	0.00000E+000	7.31174E-004	-3.27687E+002	7	...........
	415	416	3.18467E+000	1.63271E-006	0.00000E+000	5.19965E-006	0.00000E+000	7.35840E-004	-3.27687E+002	7	...........
	416	417	3.18467E+000	1.63277E-006	0.00000E+000	5.19982E-006	0.00000E+000	7.34340E-004	-3.27687E+002	7	...........
	417	418	3.18467E+000	1.63281E-006	0.00000E+000	5.19996E-006	0.00000E+000	7.35874E-004	-3.27687E+002	7	...........
	418	419	3.18467E+000	1.63281E-006	0.00000E+000	5.19997E-006	0.00000E+000	7.32957E-004	-3.27687E+002	7	...........
	419	420	3.18467E+000	1.63209E-006	0.00000E+000	5.19766E-006	0.00000E+000	7.35690E-004	-3.27687E+002	7	...........
	420	421	3.18467E+000	1.63237E-006	0.00000E+000	5.19857E-006	0.00000E+000	7.35790E-004	-3.27687E+002	7	...........
	421	422	3.18467E+000	1.63238E-006	0.00000E+000	5.19860E-006	0.00000E+000	7.35424E-004	-3.27687E+002	7	...........
	422	423	3.18467E+000	1.63240E-006	0.00000E+000	5.19868E-006	0.00000E+000	7.35107E-004	-3.27687E+002	7	...........
	423	424	3.18467E+000	1.63306E-006	0.00000E+000	5.20075E-006	0.00000E+000	7.33974E-004	-3.27687E+002	7	...........
	424	425	3.18468E+000	1.63272E-006	0.00000E+000	5.19967E-006	0.00000E+000	7.35474E-004	-3.27687E+002	7	...........
	425	426	3.18468E+000	1.63267E-006	0.00000E+000	5.19952E-006	0.00000E+000	7.37407E-004	-3.27687E+002	7	...........
	426	427	3.18467E+000	1.63210E-006	0.00000E+000	5.19769E-006	0.00000E+000	7.37757E-004	-3.27687E+002	7	...........
	427	428	3.18468E+000	1.63294E-006	0.00000E+000	5.20039E-006	0.00000E+000	7.35207E-004	-3.27687E+002	7	...........
	428	429	3.18468E+000	1.63291E-006	0.00000E+000	5.20030E-006	0.00000E+000	7.33824E-004	-3.27687E+002	7	...........
	429	430	3.18467E+000	1.63237E-006	0.00000E+000	5.19856E-006	0.00000E+000	7.32324E-004	-3.27687E+002	7	...........
	430	431	3.18467E+000	1.63183E-006	0.00000E+000	5.19686E-006	0.00000E+000	7.33090E-004	-3.27687E+002	7	...........
	431	432	3.18467E+000	1.63131E-006	0.00000E+000	5.19517E-006	0.00000E+000	7.33490E-004	-3.27687E+002	7	...........
	432	433	3.18468E+000	1.63181E-006	0.00000E+000	5.19677E-006	0.00000E+000	7.34890E-004	-3.27687E+002	7	...........
	433	434	3.18467E+000	1.63164E-006	0.00000E+000	5.19624E-006	0.00000E+000	7.32624E-004	-3.27687E+002	7	...........
	434	435	3.18467E+000	1.63176E-006	0.00000E+000	5.19663E-006	0.00000E+000	7.36557E-004	-3.27687E+002	7	...........
	435	436	3.18467E+000	1.63275E-006	0.00000E+000	5.19976E-006	0.00000E+000	7.35540E-004	-3.27687E+002	7	...........
	436	437	3.18467E+000	1.63192E-006	0.00000E+000	5.19713E-006	0.00000E+000	7.35557E-004	-3.27687E+002	7	...........
	437	438	3.18467E+000	1.63187E-006	0.00000E+000	5.19696E-006	0.00000E+000	7.33507E-004	-3.27687E+002	7	...........
	438	439	3.18467E+000	1.63203E-006	0.00000E+000	5.19749E-006	0.00000E+000	7.37240E-004	-3.27687E+002	7	...........
	439	440	3.18467E+000	1.63236E-006	0.00000E+000	5.19853E-006	0.00000E+000	7.36257E-004	-3.27687E+002	7	...........
	440	441	3.18466E+000	1.63267E-006	0.00000E+000	5.19951E-006	0.00000E+000	7.36057E-004	-3.27687E+002	7	...........
	441	442	3.18467E+000	1.63230E-006	0.00000E+000	5.19833E-006	0.00000E+000	7.34840E-004	-3.27687E+002	7	...........
	442	443	3.18466E+000	1.63200E-006	0.00000E+000	5.19736E-006	0.00000E+000	7.35457E-004	-3.27687E+002	7	...........
	443	444	3.18466E+000	1.63165E-006	0.00000E+000	5.19624E-006	0.00000E+000	7.33874E-004	-3.27687E+002	7	...........
	444	445	3.18466E+000	1.63131E-006	0.00000E+000	5.19516E-006	0.00000E+000	7.35124E-004	-3.27687E+002	7	...........
	445	446	3.18467E+000	1.63207E-006	0.00000E+000	5.19761E-006	0.00000E+000	7.34624E-004	-3.27687E+002	7	...........
	446	447	3.18466E+000	1.63250E-006	0.00000E+000	5.19897E-006	0.00000E+000	7.36374E-004	-3.27687E+002	7	...........
	447	448	3.18468E+000	1.63310E-006	0.00000E+000	5.20089E-006	0.00000E+000	7.35707E-004	-3.27687E+002	7	...........
	448	449	3.18467E+000	1.63220E-006	0.00000E+000	5.19803E-006	0.00000E+000	7.38507E-004	-3.27687E+002	7	...........
	449	450	3.18467E+000	1.63211E-006	0.00000E+000	5.19773E-006	0.00000E+000	7.37574E-004	-3.27687E+002	7	...........
	450	451	3.18466E+000	1.63239E-006	0.00000E+000	5.19863E-006	0.00000E+000	7.36807E-004	-3.27687E+002	7	...........
	451	452	3.18467E+000	1.63274E-006	0.00000E+000	5.19974E-006	0.00000E+000	7.37324E-004	-3.27687E+002	7	...........
	452	453	3.18467E+000	1.63301E-006	0.00000E+000	5.20060E-006	0.00000E+000	7.36040E-004	-3.27687E+002	7	...........
	453	454	3.18467E+000	1.63286E-006	0.00000E+000	5.20011E-006	0.00000E+000	7.37840E-004	-3.27687E+002	7	...........
	454	455	3.18467E+000	1.63261E-006	0.00000E+000	5.19932E-006	0.00000E+000	7.36540E-004	-3.27687E+002	7	...........
	455	456	3.18468E+000	1.63238E-006	0.00000E+000	5.19861E-006	0.00000E+000	7.36707E-004	-3.27687E+002	7	...........
	456	457	3.18468E+000	1.63186E-006	0.00000E+000	5.19694E-006	0.00000E+000	7.36757E-004	-3.27687E+002	7	...........
	457	458	3.18467E+000	1.63211E-006	0.00000E+000	5.19775E-006	0.00000E+000	7.37290E-004	-3.27687E+002	7	...........
	458	459	3.18468E+000	1.63188E-006	0.00000E+000	5.19700E-006	0.00000E+000	7.36290E-004	-3.27687E+002	7	...........
	459	460	3.18467E+000	1.63358E-006	0.00000E+000	5.20243E-006	0.00000E+000	7.37524E-004	-3.27687E+002	7	...........
	460	461	3.18467E+000	1.63293E-006	0.00000E+000	5.20034E-006	0.00000E+000	7.37590E-004	-3.27687E+002	7	...........
	461	462	3.18467E+000	1.63319E-006	0.00000E+000	5.20117E-006	0.00000E+000	7.36607E-004	-3.27687E+002	7	...........
	462	463	3.18466E+000	1.63287E-006	0.00000E+000	5.20013E-006	0.00000E+000	7.34657E-004	-3.27687E+002	7	...........
	463	464	3.18466E+000	1.63279E-006	0.00000E+000	5.19987E-006	0.00000E+000	7.37190E-004	-3.27687E+002	7	...........
	464	465	3.18466E+000	1.63260E-006	0.00000E+000	5.19929E-006	0.00000E+000	7.35840E-004	-3.27687E+002	7	...........
	465	466	3.18467E+000	1.63275E-006	0.00000E+000	5.19977E-006	0.00000E+000	7.37090E-004	-3.27687E+002	7	...........
	466	467	3.18467E+000	1.63255E-006	0.00000E+000	5.19915E-006	0.00000E+000	7.36890E-004	-3.27687E+002	7	...........
	467	468	3.18467E+000	1.63191E-006	0.00000E+000	5.19710E-006	0.00000E+000	7.36640E-004	-3.27687E+002	7	...........
	468	469	3.18467E+000	1.63232E-006	0.00000E+000	5.19839E-006	0.00000E+000	7.38740E-004	-3.27687E+002	7	...........
	469	470	3.18468E+000	1.63248E-006	0.00000E+000	5.19893E-006	0.00000E+000	7.39557E-004	-3.27687E+002	7	...........
	470	471	3.18467E+000	1.63249E-006	0.00000E+000	5.19895E-006	0.00000E+000	7.37240E-004	-3.27687E+002	7	...........
	471	472	3.18468E+000	1.63319E-006	0.00000E+000	5.20118E-006	0.00000E+000	7.38824E-004	-3.27687E+002	7	...........
	472	473	3.18467E+000	1.63285E-006	0.00000E+000	5.20010E-006	0.00000E+000	7.40590E-004	-3.27687E+002	7	...........
	473	474	3.18469E+000	1.63269E-006	0.00000E+000	5.19961E-006	0.00000E+000	7.36874E-004	-3.27687E+002	7	...........
	474	475	3.18469E+000	1.63255E-006	0.00000E+000	5.19917E-006	0.00000E+000	7.34074E-004	-3.27687E+002	7	...........
	475	476	3.18469E+000	1.63292E-006	0.00000E+000	5.20034E-006	0.00000E+000	7.40490E-004	-3.27687E+002	7	...........
	476	477	3.18468E+000	1.63318E-006	0.00000E+000	5.20116E-006	0.00000E+000	7.37307E-004	-3.27687E+002	7	...........
	477	478	3.18468E+000	1.63311E-006	0.00000E+000	5.20094E-006	0.00000E+000	7.37057E-004	-3.27687E+002	7	...........
	478	479	3.18468E+000	1.63286E-006	0.00000E+000	5.20014E-006	0.00000E+000	7.35624E-004	-3.27687E+002	7	...........
	479	480	3.18469E+000	1.63265E-006	0.00000E+000	5.19948E-006	0.00000E+000	7.37890E-004	-3.27687E+002	7	...........
	480	481	3.18468E+000	1.63264E-006	0.00000E+000	5.19943E-006	0.00000E+000	7.37957E-004	-3.27687E+002	7	...........
	481	482	3.18469E+000	1.63275E-006	0.00000E+000	5.19982E-006	0.00000E+000	7.35757E-004	-3.27687E+002	7	...........
	482	483	3.18469E+000	1.63251E-006	0.00000E+000	5.19906E-006	0.00000E+000	7.36474E-004	-3.27687E+002	7	...........
	483	484	3.18469E+000	1.63347E-006	0.00000E+000	5.20210E-006	0.00000E+000	7.38890E-004	-3.27687E+002	7	...........
	484	485	3.18469E+000	1.63325E-006	0.00000E+000	5.20140E-006	0.00000E+000	7.36190E-004	-3.27687E+002	7	...........
	485	486	3.18469E+000	1.63286E-006	0.00000E+000	5.20015E-006	0.00000E+000	7.36090E-004	-3.27687E+002	7	...........
	486	487	3.18469E+000	1.63268E-006	0.00000E+000	5.19958E-006	0.00000E+000	7.38024E-004	-3.27687E+002	7	...........
	487	488	3.18468E+000	1.63341E-006	0.00000E+000	5.20191E-006	0.00000E+000	7.38257E-004	-3.27687E+002	7	...........
	488	489	3.18468E+000	1.63342E-006	0.00000E+000	5.20193E-006	0.00000E+000	7.36824E-004	-3.27687E+002	7	...........
	489	490	3.18468E+000	1.63328E-006	0.00000E+000	5.20147E-006	0.00000E+000	7.34957E-004	-3.27687E+002	7	...........
	490	491	3.18468E+000	1.63338E-006	0.00000E+000	5.20178E-006	0.00000E+000	7.36940E-004	-3.27687E+002	7	...........
	491	492	3.18469E+000	1.63315E-006	0.00000E+000	5.20109E-006	0.00000E+000	7.36790E-004	-3.27687E+002	7	...........
	492	493	3.18469E+000	1.63308E-006	0.00000E+000	5.20086E-006	0.00000E+000	7.35290E-004	-3.27687E+002	7	...........
	493	494	3.18469E+000	1.63292E-006	0.00000E+000	5.20034E-006	0.00000E+000	7.37424E-004	-3.27687E+002	7	...........
	494	495	3.18468E+000	1.63315E-006	0.00000E+000	5.20108E-006	0.00000E+000	7.37574E-004	-3.27687E+002	7	...........
	495	496	3.18469E+000	1.63388E-006	0.00000E+000	5.20340E-006	0.00000E+000	7.37740E-004	-3.27687E+002	7	...........
	496	497	3.18470E+000	1.63363E-006	0.00000E+000	5.20260E-006	0.00000E+000	7.39024E-004	-3.27687E+002	7	...........
	497	498	3.18470E+000	1.63289E-006	0.00000E+000	5.20025E-006	0.00000E+000	7.37740E-004	-3.27687E+002	7	...........
	498	499	3.18469E+000	1.63293E-006	0.00000E+000	5.20036E-006	0.00000E+000	7.36807E-004	-3.27687E+002	7	...........
	499	500	3.18469E+000	1.63250E-006	0.00000E+000	5.19902E-006	0.00000E+000	7.38190E-004	-3.27687E+002	7	...........
	500	501	3.18469E+000	1.63246E-006	0.00000E+000	5.19886E-006	0.00000E+000	7.35674E-004	-3.27687E+002	7	...........
	501	502	3.18469E+000	1.63309E-006	0.00000E+000	5.20089E-006	0.00000E+000	7.39424E-004	-3.27687E+002	7	...........
	502	503	3.18470E+000	1.63309E-006	0.00000E+000	5.20090E-006	0.00000E+000	7.38024E-004	-3.27687E+002	7	...........
	503	504	3.18470E+000	1.63270E-006	0.00000E+000	5.19964E-006	0.00000E+000	7.37774E-004	-3.27687E+002	7	...........
	504	505	3.18470E+000	1.63212E-006	0.00000E+000	5.19782E-006	0.00000E+000	7.37140E-004	-3.27687E+002	7	...........
	505	506	3.18470E+000	1.63211E-006	0.00000E+000	5.19776E-006	0.00000E+000	7.34507E-004	-3.27687E+002	7	...........
	506	507	3.18470E+000	1.63247E-006	0.00000E+000	5.19893E-006	0.00000E+000	7.39740E-004	-3.27687E+002	7	...........
	507	508	3.18469E+000	1.63305E-006	0.00000E+000	5.20077E-006	0.00000E+000	7.39540E-004	-3.27687E+002	7	...........
	508	509	3.18470E+000	1.63294E-006	0.00000E+000	5.20044E-006	0.00000E+000	7.36257E-004	-3.27687E+002	7	...........
	509	510	3.18471E+000	1.63241E-006	0.00000E+000	5.19875E-006	0.00000E+000	7.36707E-004	-3.27687E+002	7	...........
	510	511	3.18471E+000	1.63176E-006	0.00000E+000	5.19668E-006	0.00000E+000	7.36790E-004	-3.27687E+002	7	...........
	511	512	3.18470E+000	1.63177E-006	0.00000E+000	5.19670E-006	0.00000E+000	7.36074E-004	-3.27687E+002	7	...........
	512	513	3.18471E+000	1.63193E-006	0.00000E+000	5.19722E-006	0.00000E+000	7.37424E-004	-3.27687E+002	7	...........
	513	514	3.18471E+000	1.63193E-006	0.00000E+000	5.19723E-006	0.00000E+000	7.38340E-004	-3.27687E+002	7	...........
	514	515	3.18471E+000	1.63212E-006	0.00000E+000	5.19785E-006	0.00000E+000	7.37124E-004	-3.27687E+002	7	...........
	515	516	3.18471E+000	1.63212E-006	0.00000E+000	5.19782E-006	0.00000E+000	7.37457E-004	-3.27687E+002	7	...........
	516	517	3.18472E+000	1.63180E-006	0.00000E+000	5.19681E-006	0.00000E+000	7.34774E-004	-3.27687E+002	7	...........
	517	518	3.18472E+000	1.63140E-006	0.00000E+000	5.19556E-006	0.00000E+000	7.38690E-004	-3.27687E+002	7	...........
	518	519	3.18472E+000	1.63209E-006	0.00000E+000	5.19776E-006	0.00000E+000	7.36607E-004	-3.27687E+002	7	...........
	519	520	3.18471E+000	1.63178E-006	0.00000E+000	5.19674E-006	0.00000E+000	7.35624E-004	-3.27687E+002	7	...........
	520	521	3.18472E+000	1.63225E-006	0.00000E+000	5.19827E-006	0.00000E+000	7.36674E-004	-3.27687E+002	7	...........
	521	522	3.18471E+000	1.63190E-006	0.00000E+000	5.19715E-006	0.00000E+000	7.39290E-004	-3.27687E+002	7	...........
	522	523	3.18472E+000	1.63171E-006	0.00000E+000	5.19654E-006	0.00000E+000	7.38540E-004	-3.27687E+002	7	...........
	523	524	3.18472E+000	1.63201E-006	0.00000E+000	5.19749E-006	0.00000E+000	7.36590E-004	-3.27687E+002	7	...........
	524	525	3.18472E+000	1.63209E-006	0.00000E+000	5.19776E-006	0.00000E+000	7.36474E-004	-3.27687E+002	7	...........
	525	526	3.18472E+000	1.63234E-006	0.00000E+000	5.19854E-006	0.00000E+000	7.36607E-004	-3.27687E+002	7	...........
	526	527	3.18472E+000	1.63186E-006	0.00000E+000	5.19701E-006	0.00000E+000	7.36274E-004	-3.27687E+002	7	...........
	527	528	3.18472E+000	1.63201E-006	0.00000E+000	5.19751E-006	0.00000E+000	7.38474E-004	-3.27687E+002	7	...........
	528	529	3.18472E+000	1.63162E-006	0.00000E+000	5.19626E-006	0.00000E+000	7.37824E-004	-3.27687E+002	7	...........
	529	530	3.18472E+000	1.63158E-006	0.00000E+000	5.19613E-006	0.00000E+000	7.37390E-004	-3.27687E+002	7	...........
	530	531	3.18472E+000	1.63194E-006	0.00000E+000	5.19729E-006	0.00000E+000	7.41274E-004	-3.27687E+002	7	...........
	531	532	3.18472E+000	1.63247E-006	0.00000E+000	5.19897E-006	0.00000E+000	7.39374E-004	-3.27687E+002	7	...........
	532	533	3.18473E+000	1.63312E-006	0.00000E+000	5.20104E-006	0.00000E+000	7.41240E-004	-3.27687E+002	7	...........
	533	534	3.18473E+000	1.63230E-006	0.00000E+000	5.19844E-006	0.00000E+000	7.41124E-004	-3.27687E+002	7	...........
	534	535	3.18472E+000	1.63189E-006	0.00000E+000	5.19711E-006	0.00000E+000	7.41007E-004	-3.27687E+002	7	...........
	535	536	3.18472E+000	1.63251E-006	0.00000E+000	5.19908E-006	0.00000E+000	7.38724E-004	-3.27687E+002	7	...........
	536	537	3.18472E+000	1.63257E-006	0.00000E+000	5.19928E-006	0.00000E+000	7.39490E-004	-3.27687E+002	7	...........
	537	538	3.18472E+000	1.63314E-006	0.00000E+000	5.20110E-006	0.00000E+000	7.40240E-004	-3.27687E+002	7	...........
	538	539	3.18474E+000	1.63275E-006	0.00000E+000	5.19988E-006	0.00000E+000	7.39290E-004	-3.27687E+002	7	...........
	539	540	3.18473E+000	1.63256E-006	0.00000E+000	5.19925E-006	0.00000E+000	7.38757E-004	-3.27687E+002	7	...........
	540	541	3.18473E+000	1.63212E-006	0.00000E+000	5.19786E-006	0.00000E+000	7.41640E-004	-3.27687E+002	7	...........
	541	542	3.18474E+000	1.63160E-006	0.00000E+000	5.19624E-006	0.00000E+000	7.39690E-004	-3.27687E+002	7	...........
	542	543	3.18473E+000	1.63173E-006	0.00000E+000	5.19661E-006	0.00000E+000	7.41440E-004	-3.27687E+002	7	...........
	543	544	3.18473E+000	1.63199E-006	0.00000E+000	5.19746E-006	0.00000E+000	7.37374E-004	-3.27687E+002	7	...........
	544	545	3.18474E+000	1.63238E-006	0.00000E+000	5.19870E-006	0.00000E+000	7.39140E-004	-3.27687E+002	7	...........
	545	546	3.18474E+000	1.63229E-006	0.00000E+000	5.19841E-006	0.00000E+000	7.38024E-004	-3.27687E+002	7	...........
	546	547	3.18474E+000	1.63205E-006	0.00000E+000	5.19766E-006	0.00000E+000	7.38407E-004	-3.27687E+002	7	...........
	547	548	3.18474E+000	1.63168E-006	0.00000E+000	5.19647E-006	0.00000E+000	7.40274E-004	-3.27687E+002	7	...........
	548	549	3.18474E+000	1.63200E-006	0.00000E+000	5.19751E-006	0.00000E+000	7.36407E-004	-3.27687E+002	7	...........
	549	550	3.18474E+000	1.63221E-006	0.00000E+000	5.19817E-006	0.00000E+000	7.39824E-004	-3.27687E+002	7	...........
	550	551	3.18474E+000	1.63204E-006	0.00000E+000	5.19763E-006	0.00000E+000	7.38307E-004	-3.27687E+002	7	...........
	551	552	3.18474E+000	1.63180E-006	0.00000E+000	5.19685E-006	0.00000E+000	7.38357E-004	-3.27687E+002	7	...........
	552	553	3.18474E+000	1.63156E-006	0.00000E+000	5.19611E-006	0.00000E+000	7.37774E-004	-3.27687E+002	7	...........
	553	554	3.18474E+000	1.63111E-006	0.00000E+000	5.19465E-006	0.00000E+000	7.40590E-004	-3.27687E+002	7	...........
	554	555	3.18474E+000	1.63134E-006	0.00000E+000	5.19539E-006	0.00000E+000	7.40657E-004	-3.27687E+002	7	...........
	555	556	3.18474E+000	1.63147E-006	0.00000E+000	5.19581E-006	0.00000E+000	7.39774E-004	-3.27687E+002	7	...........
	556	557	3.18475E+000	1.63207E-006	0.00000E+000	5.19773E-006	0.00000E+000	7.39540E-004	-3.27687E+002	7	...........
	557	558	3.18475E+000	1.63197E-006	0.00000E+000	5.19741E-006	0.00000E+000	7.38924E-004	-3.27687E+002	7	...........
	558	559	3.18475E+000	1.63160E-006	0.00000E+000	5.19622E-006	0.00000E+000	7.35057E-004	-3.27687E+002	7	...........
	559	560	3.18475E+000	1.63173E-006	0.00000E+000	5.19664E-006	0.00000E+000	7.38607E-004	-3.27687E+002	7	...........
	560	561	3.18476E+000	1.63176E-006	0.00000E+000	5.19677E-006	0.00000E+000	7.41207E-004	-3.27687E+002	7	...........
	561	562	3.18475E+000	1.63230E-006	0.00000E+000	5.19846E-006	0.00000E+000	7.40590E-004	-3.27687E+002	7	...........
	562	563	3.18476E+000	1.63219E-006	0.00000E+000	5.19813E-006	0.00000E+000	7.40374E-004	-3.27687E+002	7	...........
	563	564	3.18476E+000	1.63187E-006	0.00000E+000	5.19711E-006	0.00000E+000	7.40307E-004	-3.27687E+002	7	...........
	564	565	3.18476E+000	1.63182E-006	0.00000E+000	5.19695E-006	0.00000E+000	7.38890E-004	-3.27687E+002	7	...........
	565	566	3.18476E+000	1.63180E-006	0.00000E+000	5.19687E-006	0.00000E+000	7.37490E-004	-3.27687E+002	7	...........
	566	567	3.18476E+000	1.63149E-006	0.00000E+000	5.19592E-006	0.00000E+000	7.40107E-004	-3.27687E+002	7	...........
	567	568	3.18476E+000	1.63146E-006	0.00000E+000	5.19582E-006	0.00000E+000	7.41424E-004	-3.27687E+002	7	...........
	568	569	3.18476E+000	1.63208E-006	0.00000E+000	5.19779E-006	0.00000E+000	7.39774E-004	-3.27687E+002	7	...........
	569	570	3.18476E+000	1.63247E-006	0.00000E+000	5.19901E-006	0.00000E+000	7.40790E-004	-3.27687E+002	7	...........
	570	571	3.18476E+000	1.63170E-006	0.00000E+000	5.19658E-006	0.00000E+000	7.39757E-004	-3.27687E+002	7	...........
	571	572	3.18476E+000	1.63198E-006	0.00000E+000	5.19748E-006	0.00000E+000	7.40774E-004	-3.27687E+002	7	...........
	572	573	3.18477E+000	1.63158E-006	0.00000E+000	5.19621E-006	0.00000E+000	7.40774E-004	-3.27687E+002	7	...........
	573	574	3.18476E+000	1.63227E-006	0.00000E+000	5.19839E-006	0.00000E+000	7.41690E-004	-3.27687E+002	7	...........
	574	575	3.18477E+000	1.63252E-006	0.00000E+000	5.19922E-006	0.00000E+000	7.40807E-004	-3.27687E+002	7	...........
	575	576	3.18477E+000	1.63237E-006	0.00000E+000	5.19871E-006	0.00000E+000	7.37174E-004	-3.27687E+002	7	...........
	576	577	3.18477E+000	1.63207E-006	0.00000E+000	5.19777E-006	0.00000E+000	7.36257E-004	-3.27687E+002	7	...........
	577	578	3.18478E+000	1.63156E-006	0.00000E+000	5.19615E-006	0.00000E+000	7.38607E-004	-3.27687E+002	7	...........
	578	579	3.18478E+000	1.63088E-006	0.00000E+000	5.19398E-006	0.00000E+000	7.39924E-004	-3.27687E+002	7	...........
	579	580	3.18477E+000	1.63110E-006	0.00000E+000	5.19469E-006	0.00000E+000	7.36857E-004	-3.27687E+002	7	...........
	580	581	3.18477E+000	1.63171E-006	0.00000E+000	5.19662E-006	0.00000E+000	7.37424E-004	-3.27687E+002	7	...........
	581	582	3.18477E+000	1.63136E-006	0.00000E+000	5.19550E-006	0.00000E+000	7.38390E-004	-3.27687E+002	7	...........
	582	583	3.18478E+000	1.63125E-006	0.00000E+000	5.19518E-006	0.00000E+000	7.40707E-004	-3.27687E+002	7	...........
	583	584	3.18477E+000	1.63152E-006	0.00000E+000	5.19602E-006	0.00000E+000	7.39457E-004	-3.27687E+002	7	...........
	584	585	3.18477E+000	1.63174E-006	0.00000E+000	5.19673E-006	0.00000E+000	7.38990E-004	-3.27687E+002	7	...........
	585	586	3.18478E+000	1.63245E-006	0.00000E+000	5.19900E-006	0.00000E+000	7.36874E-004	-3.27687E+002	7	...........
	586	587	3.18478E+000	1.63207E-006	0.00000E+000	5.19778E-006	0.00000E+000	7.39390E-004	-3.27687E+002	7	...........
	587	588	3.18479E+000	1.63176E-006	0.00000E+000	5.19681E-006	0.00000E+000	7.39474E-004	-3.27687E+002	7	...........
	588	589	3.18479E+000	1.63197E-006	0.00000E+000	5.19749E-006	0.00000E+000	7.39157E-004	-3.27687E+002	7	...........
	589	590	3.18479E+000	1.63152E-006	0.00000E+000	5.19605E-006	0.00000E+000	7.40007E-004	-3.27687E+002	7	...........
	590	591	3.18479E+000	1.63148E-006	0.00000E+000	5.19593E-006	0.00000E+000	7.38590E-004	-3.27687E+002	7	...........
	591	592	3.18479E+000	1.63191E-006	0.00000E+000	5.19730E-006	0.00000E+000	7.37857E-004	-3.27687E+002	7	...........
	592	593	3.18479E+000	1.63223E-006	0.00000E+000	5.19831E-006	0.00000E+000	7.40040E-004	-3.27687E+002	7	...........
	593	594	3.18480E+000	1.63310E-006	0.00000E+000	5.20111E-006	0.00000E+000	7.42557E-004	-3.27687E+002	7	...........
	594	595	3.18480E+000	1.63215E-006	0.00000E+000	5.19807E-006	0.00000E+000	7.39140E-004	-3.27687E+002	7	...........
	595	596	3.18480E+000	1.63220E-006	0.00000E+000	5.19824E-006	0.00000E+000	7.39390E-004	-3.27687E+002	7	...........
	596	597	3.18480E+000	1.63173E-006	0.00000E+000	5.19673E-006	0.00000E+000	7.37407E-004	-3.27687E+002	7	...........
	597	598	3.18479E+000	1.63187E-006	0.00000E+000	5.19718E-006	0.00000E+000	7.41307E-004	-3.27687E+002	7	...........
	598	599	3.18480E+000	1.63202E-006	0.00000E+000	5.19765E-006	0.00000E+000	7.41740E-004	-3.27687E+002	7	...........
	599	600	3.18480E+000	1.63266E-006	0.00000E+000	5.19970E-006	0.00000E+000	7.43407E-004	-3.27687E+002	7	...........
