EXPLAIN
TAG	PWR800_READVOLTAGE
TITLE	LABEL	PWR Read Voltage	Test Identifier
DATE	LABEL	24.5.2024	Date
TIME	LABEL	10:21:12	Time
NOTES	NOTES	1	Notes...
	
PSTAT	PSTAT	REF600-12055	Potentiostat
CAPACITY	QUANT	1.00000E+000	Capacity (A-hr)
CELLTYPE	SELECTOR	1	Cell Type
WORKINGCONNECTION	SELECTOR	0	Working Connection
MAXTIME	VARIABLEANDUNITS	6.00000E+002	s	6.00000E+002	second(s)	Max Time
SAMPLETIME	QUANT	1.00000E+000	Sample Period (s)
STOPAT1	MULTIPARAM	0	0.00000E+000	Stop At 1	None	N/A
STOPAT2	MULTIPARAM	0	0.00000E+000	Stop At 2	None	N/A
AESBHCSELECTOR	TOGGLE	F	Save Both Half Cells
EOC	QUANT	3.184803	Open Circuit (V)
SEQUENCER	TOGGLE	TRUE	Run as Sequence
PSTATMODEL	IQUANT	4	Pstat Model
PSTATSECTION	LABEL	REF600-12055	Pstat Section
PSTATSERIALNO	LABEL	12055	Pstat Serial Number
CTRLMODE	IQUANT	0	Control Mode
ELECTROMETER	IQUANT	0	RE=0 or CS=1
IESTAB	IQUANT	0	I/E Stability
CASPEED	IQUANT	4	Control Amp Speed
CONVENTION	IQUANT	1	Current Convention
ICHRANGE	IQUANT	2	Ich Range
ICHRANGEMODE	TOGGLE	T	Ich Auto Range
ICHOFFSETENABLE	TOGGLE	F	Ich Offset Enable
ICHOFFSET	QUANT	0	Ich Offset (V)
ICHFILTER	IQUANT	1	Ich Filter
VCHRANGE	IQUANT	3	Vch Range
VCHRANGEMODE	TOGGLE	T	Vch Auto Range
VCHOFFSETENABLE	TOGGLE	F	Vch Offset Enable
VCHOFFSET	QUANT	0	Vch Offset (V)
VCHFILTER	IQUANT	1	Vch Filter
ACHRANGE	IQUANT	2	Ach Range
ACHOFFSETENABLE	TOGGLE	F	Ach Offset Enable
ACHOFFSET	QUANT	0	Ach Offset (V)
ACHFILTER	IQUANT	1	Ach Filter
IERANGELOWERLIMIT	IQUANT	7	I/E Range Lower Limit
IERANGEMODE	TOGGLE	F	I/E AutoRange
IERANGE	IQUANT	11	I/E Range
POSFEEDENABLE	TOGGLE	F	Positive Feedback IR Comp
POSFEEDRESISTANCE	QUANT	0	Positive Feedback Resistance (ohm)
ACHSELECT	IQUANT	4	Ach Select
SENSECABLEID	IQUANT	14	Sense Cable ID
PWRCABLEID	IQUANT	14	Power Cable ID
DCCALDATE	LABEL	2/12/2024	DC Calibration Date
ACCALDATE	LABEL	2/12/2024	AC Calibration Date
THERMOSELECT	IQUANT	1	Thermo Select
FRAMEWORKVERSION	LABEL	7.10.3	Framework Version
INSTRUMENTVERSION	LABEL	4.91	Instrument Version
COMMVERSION	LABEL	2.24	Communications Version
CPUPLDVERSION	LABEL	0.00	CPU PLD Version
CTRLPLDVERSION	LABEL	0.00	CTRL PLD Version
PSTATPLDVERSION	LABEL	0.00	PSTAT PLD Version
CURVE	TABLE	600
	Pt	T	Vf	Im	Vu	Pwr	Sig	Ach	Temp	IERange	Over
	#	s	V	A	V	W	V	V	deg C	#	bits
	0	1	3.40934E+000	8.82343E-007	0.00000E+000	3.00821E-006	0.00000E+000	9.93890E-004	-3.27687E+002	7	...........
	1	2	3.40907E+000	8.81440E-007	0.00000E+000	3.00489E-006	0.00000E+000	9.95674E-004	-3.27687E+002	7	...........
	2	3	3.40887E+000	8.81302E-007	0.00000E+000	3.00424E-006	0.00000E+000	9.91324E-004	-3.27687E+002	7	...........
	3	4	3.40867E+000	8.80113E-007	0.00000E+000	3.00001E-006	0.00000E+000	9.92040E-004	-3.27687E+002	7	...........
	4	5	3.40851E+000	8.79988E-007	0.00000E+000	2.99944E-006	0.00000E+000	9.92207E-004	-3.27687E+002	7	...........
	5	6	3.40834E+000	8.79158E-007	0.00000E+000	2.99647E-006	0.00000E+000	9.98207E-004	-3.27687E+002	7	...........
	6	7	3.40818E+000	8.79056E-007	0.00000E+000	2.99599E-006	0.00000E+000	9.99990E-004	-3.27687E+002	7	...........
	7	8	3.40805E+000	8.79064E-007	0.00000E+000	2.99589E-006	0.00000E+000	1.00319E-003	-3.27687E+002	7	...........
	8	9	3.40791E+000	8.79262E-007	0.00000E+000	2.99644E-006	0.00000E+000	1.00254E-003	-3.27687E+002	7	...........
	9	10	3.40779E+000	8.80269E-007	0.00000E+000	2.99977E-006	0.00000E+000	1.00677E-003	-3.27687E+002	7	...........
	10	11	3.40768E+000	8.79309E-007	0.00000E+000	2.99641E-006	0.00000E+000	1.00471E-003	-3.27687E+002	7	...........
	11	12	3.40757E+000	8.79138E-007	0.00000E+000	2.99572E-006	0.00000E+000	1.00571E-003	-3.27687E+002	7	...........
	12	13	3.40746E+000	8.78844E-007	0.00000E+000	2.99462E-006	0.00000E+000	1.00611E-003	-3.27687E+002	7	...........
	13	14	3.40735E+000	8.79478E-007	0.00000E+000	2.99669E-006	0.00000E+000	1.00127E-003	-3.27687E+002	7	...........
	14	15	3.40725E+000	8.79276E-007	0.00000E+000	2.99591E-006	0.00000E+000	1.00209E-003	-3.27687E+002	7	...........
	15	16	3.40713E+000	8.79167E-007	0.00000E+000	2.99544E-006	0.00000E+000	1.00069E-003	-3.27687E+002	7	...........
	16	17	3.40703E+000	8.78819E-007	0.00000E+000	2.99416E-006	0.00000E+000	1.00124E-003	-3.27687E+002	7	...........
	17	18	3.40694E+000	8.77853E-007	0.00000E+000	2.99080E-006	0.00000E+000	1.00152E-003	-3.27687E+002	7	...........
	18	19	3.40684E+000	8.77763E-007	0.00000E+000	2.99040E-006	0.00000E+000	1.00226E-003	-3.27687E+002	7	...........
	19	20	3.40675E+000	8.77840E-007	0.00000E+000	2.99058E-006	0.00000E+000	1.00296E-003	-3.27687E+002	7	...........
	20	21	3.40665E+000	8.79219E-007	0.00000E+000	2.99519E-006	0.00000E+000	8.28624E-004	-3.27687E+002	7	...........
	21	22	3.40656E+000	8.79485E-007	0.00000E+000	2.99602E-006	0.00000E+000	7.47140E-004	-3.27687E+002	7	...........
	22	23	3.40647E+000	8.78233E-007	0.00000E+000	2.99168E-006	0.00000E+000	7.46957E-004	-3.27687E+002	7	...........
	23	24	3.40638E+000	8.78333E-007	0.00000E+000	2.99193E-006	0.00000E+000	7.49007E-004	-3.27687E+002	7	...........
	24	25	3.40631E+000	8.77560E-007	0.00000E+000	2.98924E-006	0.00000E+000	7.49357E-004	-3.27687E+002	7	...........
	25	26	3.40625E+000	8.78204E-007	0.00000E+000	2.99138E-006	0.00000E+000	7.47240E-004	-3.27687E+002	7	...........
	26	27	3.40617E+000	8.78456E-007	0.00000E+000	2.99217E-006	0.00000E+000	7.47990E-004	-3.27687E+002	7	...........
	27	28	3.40611E+000	8.77253E-007	0.00000E+000	2.98802E-006	0.00000E+000	7.48057E-004	-3.27687E+002	7	...........
	28	29	3.40605E+000	8.76908E-007	0.00000E+000	2.98679E-006	0.00000E+000	7.45507E-004	-3.27687E+002	7	...........
	29	30	3.40598E+000	8.76748E-007	0.00000E+000	2.98619E-006	0.00000E+000	7.47674E-004	-3.27687E+002	7	...........
	30	31	3.40592E+000	8.76809E-007	0.00000E+000	2.98634E-006	0.00000E+000	7.46140E-004	-3.27687E+002	7	...........
	31	32	3.40585E+000	8.76691E-007	0.00000E+000	2.98588E-006	0.00000E+000	7.45990E-004	-3.27687E+002	7	...........
	32	33	3.40578E+000	8.77590E-007	0.00000E+000	2.98888E-006	0.00000E+000	7.44557E-004	-3.27687E+002	7	...........
	33	34	3.40570E+000	8.78698E-007	0.00000E+000	2.99258E-006	0.00000E+000	7.46757E-004	-3.27687E+002	7	...........
	34	35	3.40563E+000	8.77518E-007	0.00000E+000	2.98850E-006	0.00000E+000	7.43907E-004	-3.27687E+002	7	...........
	35	36	3.40555E+000	8.77680E-007	0.00000E+000	2.98899E-006	0.00000E+000	7.44307E-004	-3.27687E+002	7	...........
	36	37	3.40548E+000	8.78146E-007	0.00000E+000	2.99051E-006	0.00000E+000	7.41107E-004	-3.27687E+002	7	...........
	37	38	3.40541E+000	8.78781E-007	0.00000E+000	2.99261E-006	0.00000E+000	7.43524E-004	-3.27687E+002	7	...........
	38	39	3.40533E+000	8.78910E-007	0.00000E+000	2.99298E-006	0.00000E+000	7.42340E-004	-3.27687E+002	7	...........
	39	40	3.40528E+000	8.78856E-007	0.00000E+000	2.99275E-006	0.00000E+000	7.45407E-004	-3.27687E+002	7	...........
	40	41	3.40520E+000	8.78323E-007	0.00000E+000	2.99087E-006	0.00000E+000	7.47074E-004	-3.27687E+002	7	...........
	41	42	3.40515E+000	8.77603E-007	0.00000E+000	2.98837E-006	0.00000E+000	7.46540E-004	-3.27687E+002	7	...........
	42	43	3.40507E+000	8.78022E-007	0.00000E+000	2.98973E-006	0.00000E+000	7.47890E-004	-3.27687E+002	7	...........
	43	44	3.40500E+000	8.77083E-007	0.00000E+000	2.98647E-006	0.00000E+000	7.48674E-004	-3.27687E+002	7	...........
	44	45	3.40493E+000	8.77323E-007	0.00000E+000	2.98723E-006	0.00000E+000	7.48074E-004	-3.27687E+002	7	...........
	45	46	3.40486E+000	8.78407E-007	0.00000E+000	2.99085E-006	0.00000E+000	7.50807E-004	-3.27687E+002	7	...........
	46	47	3.40480E+000	8.78123E-007	0.00000E+000	2.98983E-006	0.00000E+000	7.49690E-004	-3.27687E+002	7	...........
	47	48	3.40473E+000	8.77784E-007	0.00000E+000	2.98862E-006	0.00000E+000	7.51707E-004	-3.27687E+002	7	...........
	48	49	3.40466E+000	8.77862E-007	0.00000E+000	2.98882E-006	0.00000E+000	7.50424E-004	-3.27687E+002	7	...........
	49	50	3.40459E+000	8.77881E-007	0.00000E+000	2.98882E-006	0.00000E+000	7.49824E-004	-3.27687E+002	7	...........
	50	51	3.40452E+000	8.78506E-007	0.00000E+000	2.99089E-006	0.00000E+000	7.52040E-004	-3.27687E+002	7	...........
	51	52	3.40446E+000	8.77486E-007	0.00000E+000	2.98737E-006	0.00000E+000	7.52624E-004	-3.27687E+002	7	...........
	52	53	3.40439E+000	8.76783E-007	0.00000E+000	2.98491E-006	0.00000E+000	7.50790E-004	-3.27687E+002	7	...........
	53	54	3.40435E+000	8.76786E-007	0.00000E+000	2.98489E-006	0.00000E+000	7.51224E-004	-3.27687E+002	7	...........
	54	55	3.40429E+000	8.76506E-007	0.00000E+000	2.98389E-006	0.00000E+000	7.51674E-004	-3.27687E+002	7	...........
	55	56	3.40425E+000	8.76485E-007	0.00000E+000	2.98377E-006	0.00000E+000	7.48757E-004	-3.27687E+002	7	...........
	56	57	3.40419E+000	8.76733E-007	0.00000E+000	2.98457E-006	0.00000E+000	7.50907E-004	-3.27687E+002	7	...........
	57	58	3.40415E+000	8.77108E-007	0.00000E+000	2.98581E-006	0.00000E+000	7.46707E-004	-3.27687E+002	7	...........
	58	59	3.40410E+000	8.76538E-007	0.00000E+000	2.98383E-006	0.00000E+000	7.48124E-004	-3.27687E+002	7	...........
	59	60	3.40406E+000	8.76195E-007	0.00000E+000	2.98262E-006	0.00000E+000	7.47140E-004	-3.27687E+002	7	...........
	60	61	3.40402E+000	8.76470E-007	0.00000E+000	2.98352E-006	0.00000E+000	7.44290E-004	-3.27687E+002	7	...........
	61	62	3.40398E+000	8.76961E-007	0.00000E+000	2.98516E-006	0.00000E+000	7.45007E-004	-3.27687E+002	7	...........
	62	63	3.40395E+000	8.76771E-007	0.00000E+000	2.98448E-006	0.00000E+000	7.42357E-004	-3.27687E+002	7	...........
	63	64	3.40391E+000	8.76415E-007	0.00000E+000	2.98324E-006	0.00000E+000	7.40707E-004	-3.27687E+002	7	...........
	64	65	3.40387E+000	8.76854E-007	0.00000E+000	2.98469E-006	0.00000E+000	7.42007E-004	-3.27687E+002	7	...........
	65	66	3.40382E+000	8.75696E-007	0.00000E+000	2.98071E-006	0.00000E+000	7.39407E-004	-3.27687E+002	7	...........
	66	67	3.40380E+000	8.76363E-007	0.00000E+000	2.98296E-006	0.00000E+000	7.40024E-004	-3.27687E+002	7	...........
	67	68	3.40377E+000	8.76004E-007	0.00000E+000	2.98171E-006	0.00000E+000	7.36440E-004	-3.27687E+002	7	...........
	68	69	3.40373E+000	8.75874E-007	0.00000E+000	2.98124E-006	0.00000E+000	7.38490E-004	-3.27687E+002	7	...........
	69	70	3.40370E+000	8.76413E-007	0.00000E+000	2.98305E-006	0.00000E+000	7.39990E-004	-3.27687E+002	7	...........
	70	71	3.40367E+000	8.75271E-007	0.00000E+000	2.97913E-006	0.00000E+000	7.40274E-004	-3.27687E+002	7	...........
	71	72	3.40364E+000	8.75705E-007	0.00000E+000	2.98058E-006	0.00000E+000	7.39990E-004	-3.27687E+002	7	...........
	72	73	3.40360E+000	8.75515E-007	0.00000E+000	2.97991E-006	0.00000E+000	7.38274E-004	-3.27687E+002	7	...........
	73	74	3.40356E+000	8.75577E-007	0.00000E+000	2.98008E-006	0.00000E+000	7.42474E-004	-3.27687E+002	7	...........
	74	75	3.40353E+000	8.75511E-007	0.00000E+000	2.97983E-006	0.00000E+000	7.40857E-004	-3.27687E+002	7	...........
	75	76	3.40349E+000	8.76222E-007	0.00000E+000	2.98221E-006	0.00000E+000	7.39940E-004	-3.27687E+002	7	...........
	76	77	3.40346E+000	8.75602E-007	0.00000E+000	2.98007E-006	0.00000E+000	7.41274E-004	-3.27687E+002	7	...........
	77	78	3.40342E+000	8.75827E-007	0.00000E+000	2.98081E-006	0.00000E+000	7.43207E-004	-3.27687E+002	7	...........
	78	79	3.40340E+000	8.75037E-007	0.00000E+000	2.97810E-006	0.00000E+000	7.43790E-004	-3.27687E+002	7	...........
	79	80	3.40336E+000	8.75641E-007	0.00000E+000	2.98012E-006	0.00000E+000	7.42824E-004	-3.27687E+002	7	...........
	80	81	3.40332E+000	8.74935E-007	0.00000E+000	2.97768E-006	0.00000E+000	7.44507E-004	-3.27687E+002	7	...........
	81	82	3.40329E+000	8.75362E-007	0.00000E+000	2.97911E-006	0.00000E+000	7.45407E-004	-3.27687E+002	7	...........
	82	83	3.40325E+000	8.74834E-007	0.00000E+000	2.97728E-006	0.00000E+000	7.45607E-004	-3.27687E+002	7	...........
	83	84	3.40321E+000	8.74939E-007	0.00000E+000	2.97760E-006	0.00000E+000	7.47407E-004	-3.27687E+002	7	...........
	84	85	3.40318E+000	8.75652E-007	0.00000E+000	2.98000E-006	0.00000E+000	7.45390E-004	-3.27687E+002	7	...........
	85	86	3.40316E+000	8.75169E-007	0.00000E+000	2.97834E-006	0.00000E+000	7.45140E-004	-3.27687E+002	7	...........
	86	87	3.40313E+000	8.75516E-007	0.00000E+000	2.97949E-006	0.00000E+000	7.45774E-004	-3.27687E+002	7	...........
	87	88	3.40310E+000	8.75656E-007	0.00000E+000	2.97995E-006	0.00000E+000	7.44507E-004	-3.27687E+002	7	...........
	88	89	3.40307E+000	8.74746E-007	0.00000E+000	2.97682E-006	0.00000E+000	7.43824E-004	-3.27687E+002	7	...........
	89	90	3.40304E+000	8.74814E-007	0.00000E+000	2.97703E-006	0.00000E+000	7.43190E-004	-3.27687E+002	7	...........
	90	91	3.40302E+000	8.74192E-007	0.00000E+000	2.97489E-006	0.00000E+000	7.41674E-004	-3.27687E+002	7	...........
	91	92	3.40299E+000	8.74672E-007	0.00000E+000	2.97650E-006	0.00000E+000	7.45174E-004	-3.27687E+002	7	...........
	92	93	3.40296E+000	8.75354E-007	0.00000E+000	2.97879E-006	0.00000E+000	7.42107E-004	-3.27687E+002	7	...........
	93	94	3.40293E+000	8.76199E-007	0.00000E+000	2.98165E-006	0.00000E+000	7.41407E-004	-3.27687E+002	7	...........
	94	95	3.40291E+000	8.76213E-007	0.00000E+000	2.98167E-006	0.00000E+000	7.42924E-004	-3.27687E+002	7	...........
	95	96	3.40288E+000	8.74944E-007	0.00000E+000	2.97732E-006	0.00000E+000	7.39557E-004	-3.27687E+002	7	...........
	96	97	3.40285E+000	8.75130E-007	0.00000E+000	2.97793E-006	0.00000E+000	7.38974E-004	-3.27687E+002	7	...........
	97	98	3.40283E+000	8.74807E-007	0.00000E+000	2.97682E-006	0.00000E+000	7.37174E-004	-3.27687E+002	7	...........
	98	99	3.40281E+000	8.74714E-007	0.00000E+000	2.97648E-006	0.00000E+000	7.36524E-004	-3.27687E+002	7	...........
	99	100	3.40278E+000	8.73789E-007	0.00000E+000	2.97332E-006	0.00000E+000	7.37007E-004	-3.27687E+002	7	...........
	100	101	3.40276E+000	8.74224E-007	0.00000E+000	2.97477E-006	0.00000E+000	7.37274E-004	-3.27687E+002	7	...........
	101	102	3.40272E+000	8.74918E-007	0.00000E+000	2.97711E-006	0.00000E+000	7.36407E-004	-3.27687E+002	7	...........
	102	103	3.40270E+000	8.74048E-007	0.00000E+000	2.97413E-006	0.00000E+000	7.34707E-004	-3.27687E+002	7	...........
	103	104	3.40268E+000	8.74931E-007	0.00000E+000	2.97711E-006	0.00000E+000	7.33324E-004	-3.27687E+002	7	...........
	104	105	3.40265E+000	8.75174E-007	0.00000E+000	2.97791E-006	0.00000E+000	7.32957E-004	-3.27687E+002	7	...........
	105	106	3.40262E+000	8.76149E-007	0.00000E+000	2.98120E-006	0.00000E+000	7.32407E-004	-3.27687E+002	7	...........
	106	107	3.40260E+000	8.76133E-007	0.00000E+000	2.98113E-006	0.00000E+000	7.33757E-004	-3.27687E+002	7	...........
	107	108	3.40256E+000	8.75227E-007	0.00000E+000	2.97802E-006	0.00000E+000	7.32107E-004	-3.27687E+002	7	...........
	108	109	3.40254E+000	8.74554E-007	0.00000E+000	2.97570E-006	0.00000E+000	7.32724E-004	-3.27687E+002	7	...........
	109	110	3.40250E+000	8.74267E-007	0.00000E+000	2.97470E-006	0.00000E+000	7.31957E-004	-3.27687E+002	7	...........
	110	111	3.40248E+000	8.75273E-007	0.00000E+000	2.97810E-006	0.00000E+000	7.31124E-004	-3.27687E+002	7	...........
	111	112	3.40245E+000	8.75445E-007	0.00000E+000	2.97865E-006	0.00000E+000	7.30640E-004	-3.27687E+002	7	...........
	112	113	3.40243E+000	8.75293E-007	0.00000E+000	2.97813E-006	0.00000E+000	7.31140E-004	-3.27687E+002	7	...........
	113	114	3.40239E+000	8.75183E-007	0.00000E+000	2.97771E-006	0.00000E+000	7.29674E-004	-3.27687E+002	7	...........
	114	115	3.40236E+000	8.73932E-007	0.00000E+000	2.97343E-006	0.00000E+000	7.32424E-004	-3.27687E+002	7	...........
	115	116	3.40233E+000	8.73223E-007	0.00000E+000	2.97099E-006	0.00000E+000	7.30140E-004	-3.27687E+002	7	...........
	116	117	3.40232E+000	8.73827E-007	0.00000E+000	2.97304E-006	0.00000E+000	7.31174E-004	-3.27687E+002	7	...........
	117	118	3.40228E+000	8.74285E-007	0.00000E+000	2.97457E-006	0.00000E+000	7.30557E-004	-3.27687E+002	7	...........
	118	119	3.40225E+000	8.74179E-007	0.00000E+000	2.97418E-006	0.00000E+000	7.30907E-004	-3.27687E+002	7	...........
	119	120	3.40222E+000	8.73988E-007	0.00000E+000	2.97350E-006	0.00000E+000	7.30690E-004	-3.27687E+002	7	...........
	120	121	3.40220E+000	8.73988E-007	0.00000E+000	2.97348E-006	0.00000E+000	7.29074E-004	-3.27687E+002	7	...........
	121	122	3.40218E+000	8.74964E-007	0.00000E+000	2.97678E-006	0.00000E+000	7.29490E-004	-3.27687E+002	7	...........
	122	123	3.40214E+000	8.74097E-007	0.00000E+000	2.97380E-006	0.00000E+000	7.33807E-004	-3.27687E+002	7	...........
	123	124	3.40211E+000	8.74094E-007	0.00000E+000	2.97376E-006	0.00000E+000	7.30957E-004	-3.27687E+002	7	...........
	124	125	3.40209E+000	8.73101E-007	0.00000E+000	2.97037E-006	0.00000E+000	7.31424E-004	-3.27687E+002	7	...........
	125	126	3.40206E+000	8.72907E-007	0.00000E+000	2.96968E-006	0.00000E+000	7.33207E-004	-3.27687E+002	7	...........
	126	127	3.40204E+000	8.72810E-007	0.00000E+000	2.96934E-006	0.00000E+000	7.32640E-004	-3.27687E+002	7	...........
	127	128	3.40202E+000	8.73201E-007	0.00000E+000	2.97065E-006	0.00000E+000	7.33224E-004	-3.27687E+002	7	...........
	128	129	3.40198E+000	8.73626E-007	0.00000E+000	2.97206E-006	0.00000E+000	7.34374E-004	-3.27687E+002	7	...........
	129	130	3.40196E+000	8.74654E-007	0.00000E+000	2.97554E-006	0.00000E+000	7.34607E-004	-3.27687E+002	7	...........
	130	131	3.40193E+000	8.73820E-007	0.00000E+000	2.97268E-006	0.00000E+000	7.37074E-004	-3.27687E+002	7	...........
	131	132	3.40191E+000	8.73772E-007	0.00000E+000	2.97249E-006	0.00000E+000	7.36507E-004	-3.27687E+002	7	...........
	132	133	3.40188E+000	8.73332E-007	0.00000E+000	2.97097E-006	0.00000E+000	7.36140E-004	-3.27687E+002	7	...........
	133	134	3.40187E+000	8.73204E-007	0.00000E+000	2.97053E-006	0.00000E+000	7.38440E-004	-3.27687E+002	7	...........
	134	135	3.40184E+000	8.73531E-007	0.00000E+000	2.97161E-006	0.00000E+000	7.39174E-004	-3.27687E+002	7	...........
	135	136	3.40181E+000	8.72565E-007	0.00000E+000	2.96830E-006	0.00000E+000	7.40224E-004	-3.27687E+002	7	...........
	136	137	3.40178E+000	8.72240E-007	0.00000E+000	2.96717E-006	0.00000E+000	7.39340E-004	-3.27687E+002	7	...........
	137	138	3.40175E+000	8.71575E-007	0.00000E+000	2.96489E-006	0.00000E+000	7.41174E-004	-3.27687E+002	7	...........
	138	139	3.40174E+000	8.71637E-007	0.00000E+000	2.96508E-006	0.00000E+000	7.43707E-004	-3.27687E+002	7	...........
	139	140	3.40172E+000	8.71798E-007	0.00000E+000	2.96561E-006	0.00000E+000	7.43057E-004	-3.27687E+002	7	...........
	140	141	3.40169E+000	8.71651E-007	0.00000E+000	2.96509E-006	0.00000E+000	7.42107E-004	-3.27687E+002	7	...........
	141	142	3.40166E+000	8.71605E-007	0.00000E+000	2.96490E-006	0.00000E+000	7.45224E-004	-3.27687E+002	7	...........
	142	143	3.40164E+000	8.72482E-007	0.00000E+000	2.96787E-006	0.00000E+000	7.44557E-004	-3.27687E+002	7	...........
	143	144	3.40161E+000	8.71804E-007	0.00000E+000	2.96554E-006	0.00000E+000	7.44324E-004	-3.27687E+002	7	...........
	144	145	3.40159E+000	8.71939E-007	0.00000E+000	2.96598E-006	0.00000E+000	7.45807E-004	-3.27687E+002	7	...........
	145	146	3.40157E+000	8.71664E-007	0.00000E+000	2.96503E-006	0.00000E+000	7.44540E-004	-3.27687E+002	7	...........
	146	147	3.40154E+000	8.72247E-007	0.00000E+000	2.96698E-006	0.00000E+000	7.48007E-004	-3.27687E+002	7	...........
	147	148	3.40152E+000	8.71949E-007	0.00000E+000	2.96595E-006	0.00000E+000	7.49624E-004	-3.27687E+002	7	...........
	148	149	3.40150E+000	8.72562E-007	0.00000E+000	2.96802E-006	0.00000E+000	7.48040E-004	-3.27687E+002	7	...........
	149	150	3.40149E+000	8.72995E-007	0.00000E+000	2.96948E-006	0.00000E+000	7.49374E-004	-3.27687E+002	7	...........
	150	151	3.40147E+000	8.72403E-007	0.00000E+000	2.96745E-006	0.00000E+000	7.47107E-004	-3.27687E+002	7	...........
	151	152	3.40145E+000	8.72014E-007	0.00000E+000	2.96611E-006	0.00000E+000	7.49190E-004	-3.27687E+002	7	...........
	152	153	3.40142E+000	8.71966E-007	0.00000E+000	2.96593E-006	0.00000E+000	7.48757E-004	-3.27687E+002	7	...........
	153	154	3.40142E+000	8.72026E-007	0.00000E+000	2.96612E-006	0.00000E+000	7.50090E-004	-3.27687E+002	7	...........
	154	155	3.40140E+000	8.72820E-007	0.00000E+000	2.96881E-006	0.00000E+000	7.48590E-004	-3.27687E+002	7	...........
	155	156	3.40138E+000	8.71994E-007	0.00000E+000	2.96598E-006	0.00000E+000	7.49057E-004	-3.27687E+002	7	...........
	156	157	3.40135E+000	8.71874E-007	0.00000E+000	2.96555E-006	0.00000E+000	7.50840E-004	-3.27687E+002	7	...........
	157	158	3.40134E+000	8.72201E-007	0.00000E+000	2.96665E-006	0.00000E+000	7.50324E-004	-3.27687E+002	7	...........
	158	159	3.40132E+000	8.72836E-007	0.00000E+000	2.96880E-006	0.00000E+000	7.48774E-004	-3.27687E+002	7	...........
	159	160	3.40130E+000	8.72892E-007	0.00000E+000	2.96897E-006	0.00000E+000	7.47707E-004	-3.27687E+002	7	...........
	160	161	3.40128E+000	8.72069E-007	0.00000E+000	2.96615E-006	0.00000E+000	7.49340E-004	-3.27687E+002	7	...........
	161	162	3.40126E+000	8.72065E-007	0.00000E+000	2.96612E-006	0.00000E+000	7.50640E-004	-3.27687E+002	7	...........
	162	163	3.40125E+000	8.72140E-007	0.00000E+000	2.96636E-006	0.00000E+000	7.50140E-004	-3.27687E+002	7	...........
	163	164	3.40123E+000	8.71680E-007	0.00000E+000	2.96478E-006	0.00000E+000	7.49657E-004	-3.27687E+002	7	...........
	164	165	3.40121E+000	8.72053E-007	0.00000E+000	2.96604E-006	0.00000E+000	7.48140E-004	-3.27687E+002	7	...........
	165	166	3.40120E+000	8.73328E-007	0.00000E+000	2.97036E-006	0.00000E+000	7.48457E-004	-3.27687E+002	7	...........
	166	167	3.40117E+000	8.73695E-007	0.00000E+000	2.97159E-006	0.00000E+000	7.48324E-004	-3.27687E+002	7	...........
	167	168	3.40115E+000	8.73016E-007	0.00000E+000	2.96926E-006	0.00000E+000	7.47257E-004	-3.27687E+002	7	...........
	168	169	3.40113E+000	8.72466E-007	0.00000E+000	2.96737E-006	0.00000E+000	7.46340E-004	-3.27687E+002	7	...........
	169	170	3.40112E+000	8.72877E-007	0.00000E+000	2.96876E-006	0.00000E+000	7.45940E-004	-3.27687E+002	7	...........
	170	171	3.40110E+000	8.73460E-007	0.00000E+000	2.97072E-006	0.00000E+000	7.47090E-004	-3.27687E+002	7	...........
	171	172	3.40108E+000	8.73044E-007	0.00000E+000	2.96930E-006	0.00000E+000	7.45690E-004	-3.27687E+002	7	...........
	172	173	3.40106E+000	8.73257E-007	0.00000E+000	2.97000E-006	0.00000E+000	7.45857E-004	-3.27687E+002	7	...........
	173	174	3.40104E+000	8.72888E-007	0.00000E+000	2.96873E-006	0.00000E+000	7.45340E-004	-3.27687E+002	7	...........
	174	175	3.40102E+000	8.72610E-007	0.00000E+000	2.96777E-006	0.00000E+000	7.44674E-004	-3.27687E+002	7	...........
	175	176	3.40101E+000	8.72827E-007	0.00000E+000	2.96849E-006	0.00000E+000	7.45640E-004	-3.27687E+002	7	...........
	176	177	3.40098E+000	8.72968E-007	0.00000E+000	2.96895E-006	0.00000E+000	7.46024E-004	-3.27687E+002	7	...........
	177	178	3.40096E+000	8.72730E-007	0.00000E+000	2.96812E-006	0.00000E+000	7.43090E-004	-3.27687E+002	7	...........
	178	179	3.40094E+000	8.73900E-007	0.00000E+000	2.97208E-006	0.00000E+000	7.41224E-004	-3.27687E+002	7	...........
	179	180	3.40092E+000	8.73766E-007	0.00000E+000	2.97161E-006	0.00000E+000	7.43740E-004	-3.27687E+002	7	...........
	180	181	3.40091E+000	8.73660E-007	0.00000E+000	2.97124E-006	0.00000E+000	7.43324E-004	-3.27687E+002	7	...........
	181	182	3.40088E+000	8.73898E-007	0.00000E+000	2.97202E-006	0.00000E+000	7.43024E-004	-3.27687E+002	7	...........
	182	183	3.40088E+000	8.73147E-007	0.00000E+000	2.96947E-006	0.00000E+000	7.42307E-004	-3.27687E+002	7	...........
	183	184	3.40086E+000	8.73912E-007	0.00000E+000	2.97205E-006	0.00000E+000	7.42090E-004	-3.27687E+002	7	...........
	184	185	3.40084E+000	8.73015E-007	0.00000E+000	2.96899E-006	0.00000E+000	7.43524E-004	-3.27687E+002	7	...........
	185	186	3.40082E+000	8.72914E-007	0.00000E+000	2.96862E-006	0.00000E+000	7.42990E-004	-3.27687E+002	7	...........
	186	187	3.40079E+000	8.72398E-007	0.00000E+000	2.96685E-006	0.00000E+000	7.42124E-004	-3.27687E+002	7	...........
	187	188	3.40078E+000	8.72139E-007	0.00000E+000	2.96596E-006	0.00000E+000	7.44840E-004	-3.27687E+002	7	...........
	188	189	3.40076E+000	8.72747E-007	0.00000E+000	2.96800E-006	0.00000E+000	7.44790E-004	-3.27687E+002	7	...........
	189	190	3.40073E+000	8.72613E-007	0.00000E+000	2.96752E-006	0.00000E+000	7.43174E-004	-3.27687E+002	7	...........
	190	191	3.40071E+000	8.74117E-007	0.00000E+000	2.97262E-006	0.00000E+000	7.42457E-004	-3.27687E+002	7	...........
	191	192	3.40071E+000	8.72784E-007	0.00000E+000	2.96808E-006	0.00000E+000	7.41357E-004	-3.27687E+002	7	...........
	192	193	3.40068E+000	8.72969E-007	0.00000E+000	2.96869E-006	0.00000E+000	7.40090E-004	-3.27687E+002	7	...........
	193	194	3.40066E+000	8.73083E-007	0.00000E+000	2.96906E-006	0.00000E+000	7.40840E-004	-3.27687E+002	7	...........
	194	195	3.40065E+000	8.73847E-007	0.00000E+000	2.97165E-006	0.00000E+000	7.42257E-004	-3.27687E+002	7	...........
	195	196	3.40063E+000	8.73044E-007	0.00000E+000	2.96890E-006	0.00000E+000	7.39940E-004	-3.27687E+002	7	...........
	196	197	3.40061E+000	8.73382E-007	0.00000E+000	2.97003E-006	0.00000E+000	7.40224E-004	-3.27687E+002	7	...........
	197	198	3.40059E+000	8.72786E-007	0.00000E+000	2.96799E-006	0.00000E+000	7.40774E-004	-3.27687E+002	7	...........
	198	199	3.40058E+000	8.72649E-007	0.00000E+000	2.96751E-006	0.00000E+000	7.41057E-004	-3.27687E+002	7	...........
	199	200	3.40056E+000	8.72121E-007	0.00000E+000	2.96570E-006	0.00000E+000	7.41990E-004	-3.27687E+002	7	...........
	200	201	3.40054E+000	8.72386E-007	0.00000E+000	2.96658E-006	0.00000E+000	7.41824E-004	-3.27687E+002	7	...........
	201	202	3.40053E+000	8.73606E-007	0.00000E+000	2.97072E-006	0.00000E+000	7.42757E-004	-3.27687E+002	7	...........
	202	203	3.40051E+000	8.73619E-007	0.00000E+000	2.97075E-006	0.00000E+000	7.41190E-004	-3.27687E+002	7	...........
	203	204	3.40049E+000	8.73506E-007	0.00000E+000	2.97035E-006	0.00000E+000	7.41824E-004	-3.27687E+002	7	...........
	204	205	3.40047E+000	8.72346E-007	0.00000E+000	2.96639E-006	0.00000E+000	7.43974E-004	-3.27687E+002	7	...........
	205	206	3.40046E+000	8.72521E-007	0.00000E+000	2.96697E-006	0.00000E+000	7.41490E-004	-3.27687E+002	7	...........
	206	207	3.40043E+000	8.73053E-007	0.00000E+000	2.96875E-006	0.00000E+000	7.42724E-004	-3.27687E+002	7	...........
	207	208	3.40042E+000	8.73287E-007	0.00000E+000	2.96954E-006	0.00000E+000	7.42907E-004	-3.27687E+002	7	...........
	208	209	3.40040E+000	8.72931E-007	0.00000E+000	2.96832E-006	0.00000E+000	7.42457E-004	-3.27687E+002	7	...........
	209	210	3.40039E+000	8.72923E-007	0.00000E+000	2.96828E-006	0.00000E+000	7.44990E-004	-3.27687E+002	7	...........
	210	211	3.40037E+000	8.71788E-007	0.00000E+000	2.96440E-006	0.00000E+000	7.44190E-004	-3.27687E+002	7	...........
	211	212	3.40035E+000	8.72518E-007	0.00000E+000	2.96687E-006	0.00000E+000	7.44507E-004	-3.27687E+002	7	...........
	212	213	3.40034E+000	8.71673E-007	0.00000E+000	2.96398E-006	0.00000E+000	7.45607E-004	-3.27687E+002	7	...........
	213	214	3.40031E+000	8.71960E-007	0.00000E+000	2.96494E-006	0.00000E+000	7.47174E-004	-3.27687E+002	7	...........
	214	215	3.40030E+000	8.72714E-007	0.00000E+000	2.96749E-006	0.00000E+000	7.47307E-004	-3.27687E+002	7	...........
	215	216	3.40028E+000	8.73197E-007	0.00000E+000	2.96912E-006	0.00000E+000	7.47840E-004	-3.27687E+002	7	...........
	216	217	3.40027E+000	8.72071E-007	0.00000E+000	2.96527E-006	0.00000E+000	7.46874E-004	-3.27687E+002	7	...........
	217	218	3.40025E+000	8.72458E-007	0.00000E+000	2.96657E-006	0.00000E+000	7.44757E-004	-3.27687E+002	7	...........
	218	219	3.40024E+000	8.72450E-007	0.00000E+000	2.96654E-006	0.00000E+000	7.45207E-004	-3.27687E+002	7	...........
	219	220	3.40022E+000	8.72582E-007	0.00000E+000	2.96697E-006	0.00000E+000	7.47607E-004	-3.27687E+002	7	...........
	220	221	3.40021E+000	8.72120E-007	0.00000E+000	2.96539E-006	0.00000E+000	7.45124E-004	-3.27687E+002	7	...........
	221	222	3.40020E+000	8.72325E-007	0.00000E+000	2.96608E-006	0.00000E+000	7.45124E-004	-3.27687E+002	7	...........
	222	223	3.40018E+000	8.72700E-007	0.00000E+000	2.96733E-006	0.00000E+000	7.47774E-004	-3.27687E+002	7	...........
	223	224	3.40017E+000	8.72317E-007	0.00000E+000	2.96603E-006	0.00000E+000	7.46024E-004	-3.27687E+002	7	...........
	224	225	3.40014E+000	8.72344E-007	0.00000E+000	2.96610E-006	0.00000E+000	7.47174E-004	-3.27687E+002	7	...........
	225	226	3.40013E+000	8.72744E-007	0.00000E+000	2.96744E-006	0.00000E+000	7.47590E-004	-3.27687E+002	7	...........
	226	227	3.40010E+000	8.73035E-007	0.00000E+000	2.96841E-006	0.00000E+000	7.45874E-004	-3.27687E+002	7	...........
	227	228	3.40009E+000	8.74108E-007	0.00000E+000	2.97205E-006	0.00000E+000	7.47107E-004	-3.27687E+002	7	...........
	228	229	3.40008E+000	8.73342E-007	0.00000E+000	2.96943E-006	0.00000E+000	7.46590E-004	-3.27687E+002	7	...........
	229	230	3.40006E+000	8.73210E-007	0.00000E+000	2.96897E-006	0.00000E+000	7.46157E-004	-3.27687E+002	7	...........
	230	231	3.40006E+000	8.74342E-007	0.00000E+000	2.97281E-006	0.00000E+000	7.46174E-004	-3.27687E+002	7	...........
	231	232	3.40004E+000	8.74149E-007	0.00000E+000	2.97214E-006	0.00000E+000	7.46507E-004	-3.27687E+002	7	...........
	232	233	3.40002E+000	8.74179E-007	0.00000E+000	2.97223E-006	0.00000E+000	7.46157E-004	-3.27687E+002	7	...........
	233	234	3.40000E+000	8.73270E-007	0.00000E+000	2.96912E-006	0.00000E+000	7.48124E-004	-3.27687E+002	7	...........
	234	235	3.40000E+000	8.73645E-007	0.00000E+000	2.97039E-006	0.00000E+000	7.47890E-004	-3.27687E+002	7	...........
	235	236	3.39998E+000	8.73488E-007	0.00000E+000	2.96984E-006	0.00000E+000	7.47890E-004	-3.27687E+002	7	...........
	236	237	3.39996E+000	8.72694E-007	0.00000E+000	2.96712E-006	0.00000E+000	7.48640E-004	-3.27687E+002	7	...........
	237	238	3.39995E+000	8.72810E-007	0.00000E+000	2.96751E-006	0.00000E+000	7.47357E-004	-3.27687E+002	7	...........
	238	239	3.39993E+000	8.72953E-007	0.00000E+000	2.96798E-006	0.00000E+000	7.48874E-004	-3.27687E+002	7	...........
	239	240	3.39992E+000	8.73035E-007	0.00000E+000	2.96825E-006	0.00000E+000	7.48324E-004	-3.27687E+002	7	...........
	240	241	3.39991E+000	8.72647E-007	0.00000E+000	2.96692E-006	0.00000E+000	7.47307E-004	-3.27687E+002	7	...........
	241	242	3.39989E+000	8.72339E-007	0.00000E+000	2.96586E-006	0.00000E+000	7.46557E-004	-3.27687E+002	7	...........
	242	243	3.39989E+000	8.72785E-007	0.00000E+000	2.96737E-006	0.00000E+000	7.49207E-004	-3.27687E+002	7	...........
	243	244	3.39988E+000	8.72619E-007	0.00000E+000	2.96680E-006	0.00000E+000	7.46657E-004	-3.27687E+002	7	...........
	244	245	3.39987E+000	8.73618E-007	0.00000E+000	2.97018E-006	0.00000E+000	7.46407E-004	-3.27687E+002	7	...........
	245	246	3.39985E+000	8.73192E-007	0.00000E+000	2.96872E-006	0.00000E+000	7.45774E-004	-3.27687E+002	7	...........
	246	247	3.39985E+000	8.72524E-007	0.00000E+000	2.96645E-006	0.00000E+000	7.44374E-004	-3.27687E+002	7	...........
	247	248	3.39983E+000	8.72424E-007	0.00000E+000	2.96609E-006	0.00000E+000	7.45940E-004	-3.27687E+002	7	...........
	248	249	3.39982E+000	8.71728E-007	0.00000E+000	2.96371E-006	0.00000E+000	7.44490E-004	-3.27687E+002	7	...........
	249	250	3.39981E+000	8.72222E-007	0.00000E+000	2.96538E-006	0.00000E+000	7.46807E-004	-3.27687E+002	7	...........
	250	251	3.39980E+000	8.72837E-007	0.00000E+000	2.96747E-006	0.00000E+000	7.46007E-004	-3.27687E+002	7	...........
	251	252	3.39978E+000	8.72849E-007	0.00000E+000	2.96750E-006	0.00000E+000	7.44824E-004	-3.27687E+002	7	...........
	252	253	3.39977E+000	8.72039E-007	0.00000E+000	2.96474E-006	0.00000E+000	7.47140E-004	-3.27687E+002	7	...........
	253	254	3.39976E+000	8.72547E-007	0.00000E+000	2.96645E-006	0.00000E+000	7.45857E-004	-3.27687E+002	7	...........
	254	255	3.39975E+000	8.72680E-007	0.00000E+000	2.96689E-006	0.00000E+000	7.46324E-004	-3.27687E+002	7	...........
	255	256	3.39974E+000	8.72549E-007	0.00000E+000	2.96644E-006	0.00000E+000	7.45557E-004	-3.27687E+002	7	...........
	256	257	3.39973E+000	8.72777E-007	0.00000E+000	2.96720E-006	0.00000E+000	7.45157E-004	-3.27687E+002	7	...........
	257	258	3.39972E+000	8.72156E-007	0.00000E+000	2.96509E-006	0.00000E+000	7.44540E-004	-3.27687E+002	7	...........
	258	259	3.39970E+000	8.72113E-007	0.00000E+000	2.96492E-006	0.00000E+000	7.43674E-004	-3.27687E+002	7	...........
	259	260	3.39970E+000	8.72448E-007	0.00000E+000	2.96606E-006	0.00000E+000	7.45407E-004	-3.27687E+002	7	...........
	260	261	3.39969E+000	8.72350E-007	0.00000E+000	2.96572E-006	0.00000E+000	7.42274E-004	-3.27687E+002	7	...........
	261	262	3.39968E+000	8.71592E-007	0.00000E+000	2.96314E-006	0.00000E+000	7.43540E-004	-3.27687E+002	7	...........
	262	263	3.39967E+000	8.72010E-007	0.00000E+000	2.96455E-006	0.00000E+000	7.45590E-004	-3.27687E+002	7	...........
	263	264	3.39966E+000	8.73139E-007	0.00000E+000	2.96838E-006	0.00000E+000	7.44640E-004	-3.27687E+002	7	...........
	264	265	3.39965E+000	8.72763E-007	0.00000E+000	2.96709E-006	0.00000E+000	7.46907E-004	-3.27687E+002	7	...........
	265	266	3.39964E+000	8.73179E-007	0.00000E+000	2.96849E-006	0.00000E+000	7.46140E-004	-3.27687E+002	7	...........
	266	267	3.39963E+000	8.73047E-007	0.00000E+000	2.96804E-006	0.00000E+000	7.42940E-004	-3.27687E+002	7	...........
	267	268	3.39961E+000	8.73258E-007	0.00000E+000	2.96874E-006	0.00000E+000	7.44540E-004	-3.27687E+002	7	...........
	268	269	3.39960E+000	8.72954E-007	0.00000E+000	2.96770E-006	0.00000E+000	7.43590E-004	-3.27687E+002	7	...........
	269	270	3.39960E+000	8.73837E-007	0.00000E+000	2.97069E-006	0.00000E+000	7.42107E-004	-3.27687E+002	7	...........
	270	271	3.39958E+000	8.72307E-007	0.00000E+000	2.96548E-006	0.00000E+000	7.45124E-004	-3.27687E+002	7	...........
	271	272	3.39957E+000	8.71585E-007	0.00000E+000	2.96302E-006	0.00000E+000	7.45040E-004	-3.27687E+002	7	...........
	272	273	3.39955E+000	8.71756E-007	0.00000E+000	2.96358E-006	0.00000E+000	7.42857E-004	-3.27687E+002	7	...........
	273	274	3.39955E+000	8.72177E-007	0.00000E+000	2.96501E-006	0.00000E+000	7.44024E-004	-3.27687E+002	7	...........
	274	275	3.39954E+000	8.72598E-007	0.00000E+000	2.96643E-006	0.00000E+000	7.45440E-004	-3.27687E+002	7	...........
	275	276	3.39953E+000	8.73367E-007	0.00000E+000	2.96903E-006	0.00000E+000	7.45274E-004	-3.27687E+002	7	...........
	276	277	3.39951E+000	8.72566E-007	0.00000E+000	2.96630E-006	0.00000E+000	7.43240E-004	-3.27687E+002	7	...........
	277	278	3.39950E+000	8.72166E-007	0.00000E+000	2.96493E-006	0.00000E+000	7.41557E-004	-3.27687E+002	7	...........
	278	279	3.39949E+000	8.72493E-007	0.00000E+000	2.96603E-006	0.00000E+000	7.40074E-004	-3.27687E+002	7	...........
	279	280	3.39948E+000	8.72358E-007	0.00000E+000	2.96556E-006	0.00000E+000	7.42757E-004	-3.27687E+002	7	...........
	280	281	3.39946E+000	8.72289E-007	0.00000E+000	2.96531E-006	0.00000E+000	7.43974E-004	-3.27687E+002	7	...........
	281	282	3.39945E+000	8.71985E-007	0.00000E+000	2.96427E-006	0.00000E+000	7.42190E-004	-3.27687E+002	7	...........
	282	283	3.39944E+000	8.71516E-007	0.00000E+000	2.96267E-006	0.00000E+000	7.41107E-004	-3.27687E+002	7	...........
	283	284	3.39943E+000	8.71765E-007	0.00000E+000	2.96350E-006	0.00000E+000	7.41424E-004	-3.27687E+002	7	...........
	284	285	3.39942E+000	8.71516E-007	0.00000E+000	2.96264E-006	0.00000E+000	7.42424E-004	-3.27687E+002	7	...........
	285	286	3.39941E+000	8.70603E-007	0.00000E+000	2.95954E-006	0.00000E+000	7.42074E-004	-3.27687E+002	7	...........
	286	287	3.39939E+000	8.70598E-007	0.00000E+000	2.95950E-006	0.00000E+000	7.41524E-004	-3.27687E+002	7	...........
	287	288	3.39939E+000	8.72073E-007	0.00000E+000	2.96451E-006	0.00000E+000	7.42274E-004	-3.27687E+002	7	...........
	288	289	3.39936E+000	8.71814E-007	0.00000E+000	2.96361E-006	0.00000E+000	7.44007E-004	-3.27687E+002	7	...........
	289	290	3.39935E+000	8.70051E-007	0.00000E+000	2.95761E-006	0.00000E+000	7.41440E-004	-3.27687E+002	7	...........
	290	291	3.39933E+000	8.70635E-007	0.00000E+000	2.95958E-006	0.00000E+000	7.41040E-004	-3.27687E+002	7	...........
	291	292	3.39932E+000	8.70291E-007	0.00000E+000	2.95840E-006	0.00000E+000	7.39907E-004	-3.27687E+002	7	...........
	292	293	3.39931E+000	8.70784E-007	0.00000E+000	2.96006E-006	0.00000E+000	7.41740E-004	-3.27687E+002	7	...........
	293	294	3.39930E+000	8.70063E-007	0.00000E+000	2.95760E-006	0.00000E+000	7.43024E-004	-3.27687E+002	7	...........
	294	295	3.39927E+000	8.70918E-007	0.00000E+000	2.96049E-006	0.00000E+000	7.41290E-004	-3.27687E+002	7	...........
	295	296	3.39928E+000	8.69757E-007	0.00000E+000	2.95655E-006	0.00000E+000	7.39357E-004	-3.27687E+002	7	...........
	296	297	3.39926E+000	8.69573E-007	0.00000E+000	2.95590E-006	0.00000E+000	7.43924E-004	-3.27687E+002	7	...........
	297	298	3.39925E+000	8.69393E-007	0.00000E+000	2.95529E-006	0.00000E+000	7.42074E-004	-3.27687E+002	7	...........
	298	299	3.39923E+000	8.70124E-007	0.00000E+000	2.95775E-006	0.00000E+000	7.43574E-004	-3.27687E+002	7	...........
	299	300	3.39921E+000	8.70832E-007	0.00000E+000	2.96014E-006	0.00000E+000	7.44257E-004	-3.27687E+002	7	...........
	300	301	3.39920E+000	8.70806E-007	0.00000E+000	2.96005E-006	0.00000E+000	7.43340E-004	-3.27687E+002	7	...........
	301	302	3.39919E+000	8.70017E-007	0.00000E+000	2.95736E-006	0.00000E+000	7.40790E-004	-3.27687E+002	7	...........
	302	303	3.39917E+000	8.69825E-007	0.00000E+000	2.95668E-006	0.00000E+000	7.42240E-004	-3.27687E+002	7	...........
	303	304	3.39917E+000	8.69440E-007	0.00000E+000	2.95537E-006	0.00000E+000	7.40624E-004	-3.27687E+002	7	...........
	304	305	3.39915E+000	8.69208E-007	0.00000E+000	2.95457E-006	0.00000E+000	7.41924E-004	-3.27687E+002	7	...........
	305	306	3.39913E+000	8.69272E-007	0.00000E+000	2.95477E-006	0.00000E+000	7.42540E-004	-3.27687E+002	7	...........
	306	307	3.39913E+000	8.69321E-007	0.00000E+000	2.95494E-006	0.00000E+000	7.41207E-004	-3.27687E+002	7	...........
	307	308	3.39911E+000	8.68588E-007	0.00000E+000	2.95243E-006	0.00000E+000	7.43574E-004	-3.27687E+002	7	...........
	308	309	3.39910E+000	8.69074E-007	0.00000E+000	2.95407E-006	0.00000E+000	7.44307E-004	-3.27687E+002	7	...........
	309	310	3.39908E+000	8.68987E-007	0.00000E+000	2.95376E-006	0.00000E+000	7.43507E-004	-3.27687E+002	7	...........
	310	311	3.39907E+000	8.69745E-007	0.00000E+000	2.95632E-006	0.00000E+000	7.42290E-004	-3.27687E+002	7	...........
	311	312	3.39905E+000	8.70113E-007	0.00000E+000	2.95756E-006	0.00000E+000	7.42024E-004	-3.27687E+002	7	...........
	312	313	3.39905E+000	8.70525E-007	0.00000E+000	2.95896E-006	0.00000E+000	7.43840E-004	-3.27687E+002	7	...........
	313	314	3.39904E+000	8.69386E-007	0.00000E+000	2.95507E-006	0.00000E+000	7.42124E-004	-3.27687E+002	7	...........
	314	315	3.39903E+000	8.69244E-007	0.00000E+000	2.95459E-006	0.00000E+000	7.38990E-004	-3.27687E+002	7	...........
	315	316	3.39902E+000	8.69299E-007	0.00000E+000	2.95477E-006	0.00000E+000	7.41357E-004	-3.27687E+002	7	...........
	316	317	3.39900E+000	8.69481E-007	0.00000E+000	2.95536E-006	0.00000E+000	7.42124E-004	-3.27687E+002	7	...........
	317	318	3.39899E+000	8.69483E-007	0.00000E+000	2.95537E-006	0.00000E+000	7.42840E-004	-3.27687E+002	7	...........
	318	319	3.39897E+000	8.69064E-007	0.00000E+000	2.95392E-006	0.00000E+000	7.41507E-004	-3.27687E+002	7	...........
	319	320	3.39897E+000	8.68965E-007	0.00000E+000	2.95359E-006	0.00000E+000	7.39574E-004	-3.27687E+002	7	...........
	320	321	3.39896E+000	8.69070E-007	0.00000E+000	2.95394E-006	0.00000E+000	7.41207E-004	-3.27687E+002	7	...........
	321	322	3.39895E+000	8.69032E-007	0.00000E+000	2.95380E-006	0.00000E+000	7.41824E-004	-3.27687E+002	7	...........
	322	323	3.39894E+000	8.68568E-007	0.00000E+000	2.95221E-006	0.00000E+000	7.42107E-004	-3.27687E+002	7	...........
	323	324	3.39892E+000	8.69787E-007	0.00000E+000	2.95633E-006	0.00000E+000	7.44774E-004	-3.27687E+002	7	...........
	324	325	3.39892E+000	8.70115E-007	0.00000E+000	2.95745E-006	0.00000E+000	7.42607E-004	-3.27687E+002	7	...........
	325	326	3.39890E+000	8.69517E-007	0.00000E+000	2.95540E-006	0.00000E+000	7.43390E-004	-3.27687E+002	7	...........
	326	327	3.39889E+000	8.69466E-007	0.00000E+000	2.95522E-006	0.00000E+000	7.42024E-004	-3.27687E+002	7	...........
	327	328	3.39888E+000	8.69795E-007	0.00000E+000	2.95633E-006	0.00000E+000	7.41707E-004	-3.27687E+002	7	...........
	328	329	3.39887E+000	8.69851E-007	0.00000E+000	2.95651E-006	0.00000E+000	7.41340E-004	-3.27687E+002	7	...........
	329	330	3.39886E+000	8.69531E-007	0.00000E+000	2.95542E-006	0.00000E+000	7.43157E-004	-3.27687E+002	7	...........
	330	331	3.39885E+000	8.69779E-007	0.00000E+000	2.95625E-006	0.00000E+000	7.42090E-004	-3.27687E+002	7	...........
	331	332	3.39883E+000	8.68565E-007	0.00000E+000	2.95210E-006	0.00000E+000	7.43257E-004	-3.27687E+002	7	...........
	332	333	3.39883E+000	8.69507E-007	0.00000E+000	2.95530E-006	0.00000E+000	7.44640E-004	-3.27687E+002	7	...........
	333	334	3.39880E+000	8.69540E-007	0.00000E+000	2.95539E-006	0.00000E+000	7.43690E-004	-3.27687E+002	7	...........
	334	335	3.39880E+000	8.69594E-007	0.00000E+000	2.95557E-006	0.00000E+000	7.46607E-004	-3.27687E+002	7	...........
	335	336	3.39878E+000	8.70704E-007	0.00000E+000	2.95933E-006	0.00000E+000	7.45124E-004	-3.27687E+002	7	...........
	336	337	3.39878E+000	8.70211E-007	0.00000E+000	2.95765E-006	0.00000E+000	7.46190E-004	-3.27687E+002	7	...........
	337	338	3.39876E+000	8.70145E-007	0.00000E+000	2.95742E-006	0.00000E+000	7.48290E-004	-3.27687E+002	7	...........
	338	339	3.39876E+000	8.70252E-007	0.00000E+000	2.95778E-006	0.00000E+000	7.45207E-004	-3.27687E+002	7	...........
	339	340	3.39875E+000	8.69946E-007	0.00000E+000	2.95673E-006	0.00000E+000	7.49207E-004	-3.27687E+002	7	...........
	340	341	3.39873E+000	8.70454E-007	0.00000E+000	2.95844E-006	0.00000E+000	7.45990E-004	-3.27687E+002	7	...........
	341	342	3.39872E+000	8.70670E-007	0.00000E+000	2.95917E-006	0.00000E+000	7.48074E-004	-3.27687E+002	7	...........
	342	343	3.39871E+000	8.70304E-007	0.00000E+000	2.95791E-006	0.00000E+000	7.46374E-004	-3.27687E+002	7	...........
	343	344	3.39869E+000	8.69882E-007	0.00000E+000	2.95646E-006	0.00000E+000	7.47524E-004	-3.27687E+002	7	...........
	344	345	3.39869E+000	8.68644E-007	0.00000E+000	2.95226E-006	0.00000E+000	7.45974E-004	-3.27687E+002	7	...........
	345	346	3.39867E+000	8.68818E-007	0.00000E+000	2.95283E-006	0.00000E+000	7.47140E-004	-3.27687E+002	7	...........
	346	347	3.39866E+000	8.68804E-007	0.00000E+000	2.95277E-006	0.00000E+000	7.46007E-004	-3.27687E+002	7	...........
	347	348	3.39865E+000	8.70333E-007	0.00000E+000	2.95796E-006	0.00000E+000	7.45440E-004	-3.27687E+002	7	...........
	348	349	3.39863E+000	8.70164E-007	0.00000E+000	2.95737E-006	0.00000E+000	7.51624E-004	-3.27687E+002	7	...........
	349	350	3.39863E+000	8.70204E-007	0.00000E+000	2.95750E-006	0.00000E+000	7.48040E-004	-3.27687E+002	7	...........
	350	351	3.39861E+000	8.69402E-007	0.00000E+000	2.95476E-006	0.00000E+000	7.50007E-004	-3.27687E+002	7	...........
	351	352	3.39859E+000	8.69383E-007	0.00000E+000	2.95467E-006	0.00000E+000	7.49474E-004	-3.27687E+002	7	...........
	352	353	3.39859E+000	8.69547E-007	0.00000E+000	2.95524E-006	0.00000E+000	7.49307E-004	-3.27687E+002	7	...........
	353	354	3.39857E+000	8.70490E-007	0.00000E+000	2.95842E-006	0.00000E+000	7.49474E-004	-3.27687E+002	7	...........
	354	355	3.39856E+000	8.69923E-007	0.00000E+000	2.95648E-006	0.00000E+000	7.48657E-004	-3.27687E+002	7	...........
	355	356	3.39855E+000	8.69895E-007	0.00000E+000	2.95638E-006	0.00000E+000	7.48340E-004	-3.27687E+002	7	...........
	356	357	3.39854E+000	8.68790E-007	0.00000E+000	2.95261E-006	0.00000E+000	7.49307E-004	-3.27687E+002	7	...........
	357	358	3.39852E+000	8.69300E-007	0.00000E+000	2.95433E-006	0.00000E+000	7.48524E-004	-3.27687E+002	7	...........
	358	359	3.39851E+000	8.69265E-007	0.00000E+000	2.95421E-006	0.00000E+000	7.47924E-004	-3.27687E+002	7	...........
	359	360	3.39851E+000	8.69255E-007	0.00000E+000	2.95417E-006	0.00000E+000	7.50790E-004	-3.27687E+002	7	...........
	360	361	3.39849E+000	8.69611E-007	0.00000E+000	2.95536E-006	0.00000E+000	7.51024E-004	-3.27687E+002	7	...........
	361	362	3.39848E+000	8.68435E-007	0.00000E+000	2.95136E-006	0.00000E+000	7.49690E-004	-3.27687E+002	7	...........
	362	363	3.39845E+000	8.68378E-007	0.00000E+000	2.95114E-006	0.00000E+000	7.49457E-004	-3.27687E+002	7	...........
	363	364	3.39844E+000	8.68810E-007	0.00000E+000	2.95260E-006	0.00000E+000	7.50557E-004	-3.27687E+002	7	...........
	364	365	3.39843E+000	8.69271E-007	0.00000E+000	2.95416E-006	0.00000E+000	7.52174E-004	-3.27687E+002	7	...........
	365	366	3.39843E+000	8.70589E-007	0.00000E+000	2.95863E-006	0.00000E+000	7.49240E-004	-3.27687E+002	7	...........
	366	367	3.39842E+000	8.69433E-007	0.00000E+000	2.95470E-006	0.00000E+000	7.50540E-004	-3.27687E+002	7	...........
	367	368	3.39841E+000	8.69186E-007	0.00000E+000	2.95385E-006	0.00000E+000	7.47674E-004	-3.27687E+002	7	...........
	368	369	3.39839E+000	8.69274E-007	0.00000E+000	2.95413E-006	0.00000E+000	7.50724E-004	-3.27687E+002	7	...........
	369	370	3.39839E+000	8.69258E-007	0.00000E+000	2.95407E-006	0.00000E+000	7.51007E-004	-3.27687E+002	7	...........
	370	371	3.39838E+000	8.69809E-007	0.00000E+000	2.95594E-006	0.00000E+000	7.48024E-004	-3.27687E+002	7	...........
	371	372	3.39836E+000	8.69626E-007	0.00000E+000	2.95530E-006	0.00000E+000	7.49540E-004	-3.27687E+002	7	...........
	372	373	3.39835E+000	8.69552E-007	0.00000E+000	2.95504E-006	0.00000E+000	7.50657E-004	-3.27687E+002	7	...........
	373	374	3.39835E+000	8.69870E-007	0.00000E+000	2.95612E-006	0.00000E+000	7.51040E-004	-3.27687E+002	7	...........
	374	375	3.39834E+000	8.70215E-007	0.00000E+000	2.95728E-006	0.00000E+000	7.50407E-004	-3.27687E+002	7	...........
	375	376	3.39833E+000	8.70080E-007	0.00000E+000	2.95682E-006	0.00000E+000	7.50257E-004	-3.27687E+002	7	...........
	376	377	3.39831E+000	8.70120E-007	0.00000E+000	2.95694E-006	0.00000E+000	7.50707E-004	-3.27687E+002	7	...........
	377	378	3.39830E+000	8.71085E-007	0.00000E+000	2.96021E-006	0.00000E+000	7.52474E-004	-3.27687E+002	7	...........
	378	379	3.39829E+000	8.70721E-007	0.00000E+000	2.95896E-006	0.00000E+000	7.49507E-004	-3.27687E+002	7	...........
	379	380	3.39828E+000	8.70594E-007	0.00000E+000	2.95852E-006	0.00000E+000	7.49257E-004	-3.27687E+002	7	...........
	380	381	3.39826E+000	8.70707E-007	0.00000E+000	2.95889E-006	0.00000E+000	7.52440E-004	-3.27687E+002	7	...........
	381	382	3.39825E+000	8.69883E-007	0.00000E+000	2.95608E-006	0.00000E+000	7.50390E-004	-3.27687E+002	7	...........
	382	383	3.39823E+000	8.70118E-007	0.00000E+000	2.95686E-006	0.00000E+000	7.51474E-004	-3.27687E+002	7	...........
	383	384	3.39821E+000	8.70388E-007	0.00000E+000	2.95776E-006	0.00000E+000	7.50107E-004	-3.27687E+002	7	...........
	384	385	3.39820E+000	8.70658E-007	0.00000E+000	2.95867E-006	0.00000E+000	7.51307E-004	-3.27687E+002	7	...........
	385	386	3.39820E+000	8.70526E-007	0.00000E+000	2.95823E-006	0.00000E+000	7.52357E-004	-3.27687E+002	7	...........
	386	387	3.39819E+000	8.69934E-007	0.00000E+000	2.95620E-006	0.00000E+000	7.50890E-004	-3.27687E+002	7	...........
	387	388	3.39818E+000	8.69767E-007	0.00000E+000	2.95563E-006	0.00000E+000	7.48957E-004	-3.27687E+002	7	...........
	388	389	3.39816E+000	8.69790E-007	0.00000E+000	2.95569E-006	0.00000E+000	7.50657E-004	-3.27687E+002	7	...........
	389	390	3.39816E+000	8.69483E-007	0.00000E+000	2.95464E-006	0.00000E+000	7.51690E-004	-3.27687E+002	7	...........
	390	391	3.39815E+000	8.69698E-007	0.00000E+000	2.95536E-006	0.00000E+000	7.49474E-004	-3.27687E+002	7	...........
	391	392	3.39813E+000	8.68726E-007	0.00000E+000	2.95205E-006	0.00000E+000	7.51024E-004	-3.27687E+002	7	...........
	392	393	3.39812E+000	8.68335E-007	0.00000E+000	2.95071E-006	0.00000E+000	7.52440E-004	-3.27687E+002	7	...........
	393	394	3.39811E+000	8.67216E-007	0.00000E+000	2.94690E-006	0.00000E+000	7.49590E-004	-3.27687E+002	7	...........
	394	395	3.39811E+000	8.66684E-007	0.00000E+000	2.94508E-006	0.00000E+000	7.49857E-004	-3.27687E+002	7	...........
	395	396	3.39809E+000	8.67559E-007	0.00000E+000	2.94805E-006	0.00000E+000	7.49157E-004	-3.27687E+002	7	...........
	396	397	3.39807E+000	8.68832E-007	0.00000E+000	2.95236E-006	0.00000E+000	7.49324E-004	-3.27687E+002	7	...........
	397	398	3.39806E+000	8.68961E-007	0.00000E+000	2.95278E-006	0.00000E+000	7.49057E-004	-3.27687E+002	7	...........
	398	399	3.39805E+000	8.68218E-007	0.00000E+000	2.95025E-006	0.00000E+000	7.49474E-004	-3.27687E+002	7	...........
	399	400	3.39803E+000	8.68217E-007	0.00000E+000	2.95023E-006	0.00000E+000	7.49574E-004	-3.27687E+002	7	...........
	400	401	3.39804E+000	8.68171E-007	0.00000E+000	2.95008E-006	0.00000E+000	7.49607E-004	-3.27687E+002	7	...........
	401	402	3.39803E+000	8.68466E-007	0.00000E+000	2.95107E-006	0.00000E+000	7.48640E-004	-3.27687E+002	7	...........
	402	403	3.39802E+000	8.68889E-007	0.00000E+000	2.95250E-006	0.00000E+000	7.48107E-004	-3.27687E+002	7	...........
	403	404	3.39800E+000	8.68413E-007	0.00000E+000	2.95087E-006	0.00000E+000	7.49457E-004	-3.27687E+002	7	...........
	404	405	3.39800E+000	8.67606E-007	0.00000E+000	2.94812E-006	0.00000E+000	7.52507E-004	-3.27687E+002	7	...........
	405	406	3.39799E+000	8.68364E-007	0.00000E+000	2.95069E-006	0.00000E+000	7.49290E-004	-3.27687E+002	7	...........
	406	407	3.39798E+000	8.68127E-007	0.00000E+000	2.94987E-006	0.00000E+000	7.48174E-004	-3.27687E+002	7	...........
	407	408	3.39797E+000	8.68208E-007	0.00000E+000	2.95015E-006	0.00000E+000	7.47890E-004	-3.27687E+002	7	...........
	408	409	3.39796E+000	8.68750E-007	0.00000E+000	2.95198E-006	0.00000E+000	7.47607E-004	-3.27687E+002	7	...........
	409	410	3.39795E+000	8.69835E-007	0.00000E+000	2.95565E-006	0.00000E+000	7.45574E-004	-3.27687E+002	7	...........
	410	411	3.39794E+000	8.68517E-007	0.00000E+000	2.95117E-006	0.00000E+000	7.48857E-004	-3.27687E+002	7	...........
	411	412	3.39793E+000	8.68810E-007	0.00000E+000	2.95216E-006	0.00000E+000	7.47224E-004	-3.27687E+002	7	...........
	412	413	3.39792E+000	8.69431E-007	0.00000E+000	2.95426E-006	0.00000E+000	7.47824E-004	-3.27687E+002	7	...........
	413	414	3.39791E+000	8.69324E-007	0.00000E+000	2.95389E-006	0.00000E+000	7.48024E-004	-3.27687E+002	7	...........
	414	415	3.39792E+000	8.69480E-007	0.00000E+000	2.95442E-006	0.00000E+000	7.48024E-004	-3.27687E+002	7	...........
	415	416	3.39789E+000	8.68973E-007	0.00000E+000	2.95267E-006	0.00000E+000	7.46324E-004	-3.27687E+002	7	...........
	416	417	3.39788E+000	8.68930E-007	0.00000E+000	2.95252E-006	0.00000E+000	7.46940E-004	-3.27687E+002	7	...........
	417	418	3.39787E+000	8.68268E-007	0.00000E+000	2.95026E-006	0.00000E+000	7.44774E-004	-3.27687E+002	7	...........
	418	419	3.39785E+000	8.67675E-007	0.00000E+000	2.94823E-006	0.00000E+000	7.48524E-004	-3.27687E+002	7	...........
	419	420	3.39785E+000	8.68589E-007	0.00000E+000	2.95134E-006	0.00000E+000	7.49007E-004	-3.27687E+002	7	...........
	420	421	3.39784E+000	8.68805E-007	0.00000E+000	2.95206E-006	0.00000E+000	7.48474E-004	-3.27687E+002	7	...........
	421	422	3.39784E+000	8.69059E-007	0.00000E+000	2.95293E-006	0.00000E+000	7.49174E-004	-3.27687E+002	7	...........
	422	423	3.39783E+000	8.67643E-007	0.00000E+000	2.94810E-006	0.00000E+000	7.47157E-004	-3.27687E+002	7	...........
	423	424	3.39782E+000	8.68122E-007	0.00000E+000	2.94972E-006	0.00000E+000	7.45657E-004	-3.27687E+002	7	...........
	424	425	3.39782E+000	8.68771E-007	0.00000E+000	2.95193E-006	0.00000E+000	7.46424E-004	-3.27687E+002	7	...........
	425	426	3.39781E+000	8.68129E-007	0.00000E+000	2.94974E-006	0.00000E+000	7.44974E-004	-3.27687E+002	7	...........
	426	427	3.39780E+000	8.69007E-007	0.00000E+000	2.95271E-006	0.00000E+000	7.44974E-004	-3.27687E+002	7	...........
	427	428	3.39780E+000	8.69256E-007	0.00000E+000	2.95355E-006	0.00000E+000	7.44624E-004	-3.27687E+002	7	...........
	428	429	3.39778E+000	8.68792E-007	0.00000E+000	2.95197E-006	0.00000E+000	7.45724E-004	-3.27687E+002	7	...........
	429	430	3.39777E+000	8.68073E-007	0.00000E+000	2.94951E-006	0.00000E+000	7.44307E-004	-3.27687E+002	7	...........
	430	431	3.39776E+000	8.67619E-007	0.00000E+000	2.94797E-006	0.00000E+000	7.45157E-004	-3.27687E+002	7	...........
	431	432	3.39776E+000	8.67131E-007	0.00000E+000	2.94631E-006	0.00000E+000	7.46174E-004	-3.27687E+002	7	...........
	432	433	3.39775E+000	8.67113E-007	0.00000E+000	2.94624E-006	0.00000E+000	7.46407E-004	-3.27687E+002	7	...........
	433	434	3.39774E+000	8.68095E-007	0.00000E+000	2.94956E-006	0.00000E+000	7.42674E-004	-3.27687E+002	7	...........
	434	435	3.39773E+000	8.67988E-007	0.00000E+000	2.94919E-006	0.00000E+000	7.43757E-004	-3.27687E+002	7	...........
	435	436	3.39773E+000	8.68024E-007	0.00000E+000	2.94931E-006	0.00000E+000	7.43857E-004	-3.27687E+002	7	...........
	436	437	3.39772E+000	8.68208E-007	0.00000E+000	2.94993E-006	0.00000E+000	7.45874E-004	-3.27687E+002	7	...........
	437	438	3.39772E+000	8.68906E-007	0.00000E+000	2.95230E-006	0.00000E+000	7.45974E-004	-3.27687E+002	7	...........
	438	439	3.39770E+000	8.69955E-007	0.00000E+000	2.95585E-006	0.00000E+000	7.45240E-004	-3.27687E+002	7	...........
	439	440	3.39770E+000	8.69109E-007	0.00000E+000	2.95297E-006	0.00000E+000	7.44990E-004	-3.27687E+002	7	...........
	440	441	3.39768E+000	8.68301E-007	0.00000E+000	2.95021E-006	0.00000E+000	7.44807E-004	-3.27687E+002	7	...........
	441	442	3.39768E+000	8.68231E-007	0.00000E+000	2.94997E-006	0.00000E+000	7.43690E-004	-3.27687E+002	7	...........
	442	443	3.39767E+000	8.68513E-007	0.00000E+000	2.95092E-006	0.00000E+000	7.41640E-004	-3.27687E+002	7	...........
	443	444	3.39766E+000	8.67993E-007	0.00000E+000	2.94915E-006	0.00000E+000	7.42640E-004	-3.27687E+002	7	...........
	444	445	3.39766E+000	8.67949E-007	0.00000E+000	2.94900E-006	0.00000E+000	7.42457E-004	-3.27687E+002	7	...........
	445	446	3.39765E+000	8.69282E-007	0.00000E+000	2.95352E-006	0.00000E+000	7.42940E-004	-3.27687E+002	7	...........
	446	447	3.39765E+000	8.68872E-007	0.00000E+000	2.95213E-006	0.00000E+000	7.44190E-004	-3.27687E+002	7	...........
	447	448	3.39765E+000	8.68036E-007	0.00000E+000	2.94928E-006	0.00000E+000	7.42107E-004	-3.27687E+002	7	...........
	448	449	3.39764E+000	8.67668E-007	0.00000E+000	2.94802E-006	0.00000E+000	7.42857E-004	-3.27687E+002	7	...........
	449	450	3.39763E+000	8.68296E-007	0.00000E+000	2.95015E-006	0.00000E+000	7.43607E-004	-3.27687E+002	7	...........
	450	451	3.39762E+000	8.68945E-007	0.00000E+000	2.95234E-006	0.00000E+000	7.43490E-004	-3.27687E+002	7	...........
	451	452	3.39762E+000	8.68720E-007	0.00000E+000	2.95158E-006	0.00000E+000	7.39757E-004	-3.27687E+002	7	...........
	452	453	3.39761E+000	8.68809E-007	0.00000E+000	2.95187E-006	0.00000E+000	7.41107E-004	-3.27687E+002	7	...........
	453	454	3.39760E+000	8.68372E-007	0.00000E+000	2.95038E-006	0.00000E+000	7.42707E-004	-3.27687E+002	7	...........
	454	455	3.39759E+000	8.68433E-007	0.00000E+000	2.95058E-006	0.00000E+000	7.43024E-004	-3.27687E+002	7	...........
	455	456	3.39759E+000	8.67787E-007	0.00000E+000	2.94838E-006	0.00000E+000	7.41374E-004	-3.27687E+002	7	...........
	456	457	3.39758E+000	8.68460E-007	0.00000E+000	2.95067E-006	0.00000E+000	7.43657E-004	-3.27687E+002	7	...........
	457	458	3.39758E+000	8.68834E-007	0.00000E+000	2.95193E-006	0.00000E+000	7.39090E-004	-3.27687E+002	7	...........
	458	459	3.39757E+000	8.69419E-007	0.00000E+000	2.95391E-006	0.00000E+000	7.42724E-004	-3.27687E+002	7	...........
	459	460	3.39757E+000	8.68399E-007	0.00000E+000	2.95045E-006	0.00000E+000	7.40824E-004	-3.27687E+002	7	...........
	460	461	3.39756E+000	8.68071E-007	0.00000E+000	2.94932E-006	0.00000E+000	7.42874E-004	-3.27687E+002	7	...........
	461	462	3.39756E+000	8.68125E-007	0.00000E+000	2.94950E-006	0.00000E+000	7.39440E-004	-3.27687E+002	7	...........
	462	463	3.39755E+000	8.69120E-007	0.00000E+000	2.95287E-006	0.00000E+000	7.41874E-004	-3.27687E+002	7	...........
	463	464	3.39754E+000	8.68555E-007	0.00000E+000	2.95095E-006	0.00000E+000	7.42524E-004	-3.27687E+002	7	...........
	464	465	3.39754E+000	8.68635E-007	0.00000E+000	2.95122E-006	0.00000E+000	7.39307E-004	-3.27687E+002	7	...........
	465	466	3.39753E+000	8.68287E-007	0.00000E+000	2.95004E-006	0.00000E+000	7.40590E-004	-3.27687E+002	7	...........
	466	467	3.39753E+000	8.68284E-007	0.00000E+000	2.95002E-006	0.00000E+000	7.38674E-004	-3.27687E+002	7	...........
	467	468	3.39752E+000	8.68703E-007	0.00000E+000	2.95144E-006	0.00000E+000	7.38924E-004	-3.27687E+002	7	...........
	468	469	3.39751E+000	8.68258E-007	0.00000E+000	2.94992E-006	0.00000E+000	7.38357E-004	-3.27687E+002	7	...........
	469	470	3.39750E+000	8.68483E-007	0.00000E+000	2.95067E-006	0.00000E+000	7.40224E-004	-3.27687E+002	7	...........
	470	471	3.39750E+000	8.68535E-007	0.00000E+000	2.95084E-006	0.00000E+000	7.38807E-004	-3.27687E+002	7	...........
	471	472	3.39749E+000	8.67611E-007	0.00000E+000	2.94770E-006	0.00000E+000	7.39974E-004	-3.27687E+002	7	...........
	472	473	3.39748E+000	8.67185E-007	0.00000E+000	2.94625E-006	0.00000E+000	7.40257E-004	-3.27687E+002	7	...........
	473	474	3.39748E+000	8.68017E-007	0.00000E+000	2.94907E-006	0.00000E+000	7.36890E-004	-3.27687E+002	7	...........
	474	475	3.39747E+000	8.68215E-007	0.00000E+000	2.94974E-006	0.00000E+000	7.38107E-004	-3.27687E+002	7	...........
	475	476	3.39747E+000	8.68471E-007	0.00000E+000	2.95060E-006	0.00000E+000	7.38690E-004	-3.27687E+002	7	...........
	476	477	3.39746E+000	8.68027E-007	0.00000E+000	2.94908E-006	0.00000E+000	7.38674E-004	-3.27687E+002	7	...........
	477	478	3.39745E+000	8.67890E-007	0.00000E+000	2.94861E-006	0.00000E+000	7.39507E-004	-3.27687E+002	7	...........
	478	479	3.39744E+000	8.66999E-007	0.00000E+000	2.94558E-006	0.00000E+000	7.39540E-004	-3.27687E+002	7	...........
	479	480	3.39744E+000	8.67269E-007	0.00000E+000	2.94649E-006	0.00000E+000	7.38640E-004	-3.27687E+002	7	...........
	480	481	3.39743E+000	8.66505E-007	0.00000E+000	2.94389E-006	0.00000E+000	7.36174E-004	-3.27687E+002	7	...........
	481	482	3.39743E+000	8.66808E-007	0.00000E+000	2.94492E-006	0.00000E+000	7.37374E-004	-3.27687E+002	7	...........
	482	483	3.39742E+000	8.67522E-007	0.00000E+000	2.94734E-006	0.00000E+000	7.42674E-004	-3.27687E+002	7	...........
	483	484	3.39742E+000	8.67032E-007	0.00000E+000	2.94567E-006	0.00000E+000	7.40307E-004	-3.27687E+002	7	...........
	484	485	3.39742E+000	8.66619E-007	0.00000E+000	2.94426E-006	0.00000E+000	7.37274E-004	-3.27687E+002	7	...........
	485	486	3.39741E+000	8.67205E-007	0.00000E+000	2.94625E-006	0.00000E+000	7.39690E-004	-3.27687E+002	7	...........
	486	487	3.39740E+000	8.67210E-007	0.00000E+000	2.94626E-006	0.00000E+000	7.38357E-004	-3.27687E+002	7	...........
	487	488	3.39740E+000	8.67124E-007	0.00000E+000	2.94597E-006	0.00000E+000	7.37957E-004	-3.27687E+002	7	...........
	488	489	3.39739E+000	8.66973E-007	0.00000E+000	2.94545E-006	0.00000E+000	7.37674E-004	-3.27687E+002	7	...........
	489	490	3.39738E+000	8.65885E-007	0.00000E+000	2.94174E-006	0.00000E+000	7.36890E-004	-3.27687E+002	7	...........
	490	491	3.39738E+000	8.66682E-007	0.00000E+000	2.94445E-006	0.00000E+000	7.37024E-004	-3.27687E+002	7	...........
	491	492	3.39737E+000	8.66427E-007	0.00000E+000	2.94357E-006	0.00000E+000	7.39257E-004	-3.27687E+002	7	...........
	492	493	3.39737E+000	8.67183E-007	0.00000E+000	2.94614E-006	0.00000E+000	7.38274E-004	-3.27687E+002	7	...........
	493	494	3.39736E+000	8.67455E-007	0.00000E+000	2.94706E-006	0.00000E+000	7.35974E-004	-3.27687E+002	7	...........
	494	495	3.39736E+000	8.68216E-007	0.00000E+000	2.94964E-006	0.00000E+000	7.36574E-004	-3.27687E+002	7	...........
	495	496	3.39736E+000	8.66634E-007	0.00000E+000	2.94427E-006	0.00000E+000	7.37457E-004	-3.27687E+002	7	...........
	496	497	3.39735E+000	8.67163E-007	0.00000E+000	2.94605E-006	0.00000E+000	7.34474E-004	-3.27687E+002	7	...........
	497	498	3.39734E+000	8.66686E-007	0.00000E+000	2.94443E-006	0.00000E+000	7.34390E-004	-3.27687E+002	7	...........
	498	499	3.39733E+000	8.66699E-007	0.00000E+000	2.94446E-006	0.00000E+000	7.35107E-004	-3.27687E+002	7	...........
	499	500	3.39733E+000	8.67447E-007	0.00000E+000	2.94700E-006	0.00000E+000	7.34557E-004	-3.27687E+002	7	...........
	500	501	3.39733E+000	8.66960E-007	0.00000E+000	2.94535E-006	0.00000E+000	7.36024E-004	-3.27687E+002	7	...........
	501	502	3.39733E+000	8.66530E-007	0.00000E+000	2.94388E-006	0.00000E+000	7.32257E-004	-3.27687E+002	7	...........
	502	503	3.39732E+000	8.66246E-007	0.00000E+000	2.94291E-006	0.00000E+000	7.35190E-004	-3.27687E+002	7	...........
	503	504	3.39731E+000	8.66225E-007	0.00000E+000	2.94284E-006	0.00000E+000	7.36507E-004	-3.27687E+002	7	...........
	504	505	3.39731E+000	8.66549E-007	0.00000E+000	2.94393E-006	0.00000E+000	7.35357E-004	-3.27687E+002	7	...........
	505	506	3.39730E+000	8.66600E-007	0.00000E+000	2.94410E-006	0.00000E+000	7.33124E-004	-3.27687E+002	7	...........
	506	507	3.39729E+000	8.66709E-007	0.00000E+000	2.94446E-006	0.00000E+000	7.39440E-004	-3.27687E+002	7	...........
	507	508	3.39729E+000	8.66782E-007	0.00000E+000	2.94471E-006	0.00000E+000	7.38507E-004	-3.27687E+002	7	...........
	508	509	3.39728E+000	8.66586E-007	0.00000E+000	2.94404E-006	0.00000E+000	7.34690E-004	-3.27687E+002	7	...........
	509	510	3.39728E+000	8.66303E-007	0.00000E+000	2.94307E-006	0.00000E+000	7.35524E-004	-3.27687E+002	7	...........
	510	511	3.39727E+000	8.66184E-007	0.00000E+000	2.94266E-006	0.00000E+000	7.37424E-004	-3.27687E+002	7	...........
	511	512	3.39727E+000	8.65848E-007	0.00000E+000	2.94152E-006	0.00000E+000	7.37640E-004	-3.27687E+002	7	...........
	512	513	3.39727E+000	8.65572E-007	0.00000E+000	2.94058E-006	0.00000E+000	7.35740E-004	-3.27687E+002	7	...........
	513	514	3.39726E+000	8.64998E-007	0.00000E+000	2.93863E-006	0.00000E+000	7.34424E-004	-3.27687E+002	7	...........
	514	515	3.39726E+000	8.65170E-007	0.00000E+000	2.93921E-006	0.00000E+000	7.34357E-004	-3.27687E+002	7	...........
	515	516	3.39725E+000	8.64393E-007	0.00000E+000	2.93656E-006	0.00000E+000	7.37540E-004	-3.27687E+002	7	...........
	516	517	3.39725E+000	8.65259E-007	0.00000E+000	2.93950E-006	0.00000E+000	7.36924E-004	-3.27687E+002	7	...........
	517	518	3.39724E+000	8.64799E-007	0.00000E+000	2.93793E-006	0.00000E+000	7.36490E-004	-3.27687E+002	7	...........
	518	519	3.39723E+000	8.66578E-007	0.00000E+000	2.94397E-006	0.00000E+000	7.37490E-004	-3.27687E+002	7	...........
	519	520	3.39723E+000	8.66024E-007	0.00000E+000	2.94208E-006	0.00000E+000	7.36807E-004	-3.27687E+002	7	...........
	520	521	3.39722E+000	8.66208E-007	0.00000E+000	2.94270E-006	0.00000E+000	7.35490E-004	-3.27687E+002	7	...........
	521	522	3.39720E+000	8.65753E-007	0.00000E+000	2.94114E-006	0.00000E+000	7.36457E-004	-3.27687E+002	7	...........
	522	523	3.39720E+000	8.65695E-007	0.00000E+000	2.94094E-006	0.00000E+000	7.36957E-004	-3.27687E+002	7	...........
	523	524	3.39720E+000	8.66289E-007	0.00000E+000	2.94296E-006	0.00000E+000	7.35490E-004	-3.27687E+002	7	...........
	524	525	3.39720E+000	8.65323E-007	0.00000E+000	2.93968E-006	0.00000E+000	7.38190E-004	-3.27687E+002	7	...........
	525	526	3.39719E+000	8.64924E-007	0.00000E+000	2.93831E-006	0.00000E+000	7.35690E-004	-3.27687E+002	7	...........
	526	527	3.39718E+000	8.65136E-007	0.00000E+000	2.93903E-006	0.00000E+000	7.37290E-004	-3.27687E+002	7	...........
	527	528	3.39718E+000	8.65360E-007	0.00000E+000	2.93978E-006	0.00000E+000	7.35807E-004	-3.27687E+002	7	...........
	528	529	3.39718E+000	8.65432E-007	0.00000E+000	2.94003E-006	0.00000E+000	7.35174E-004	-3.27687E+002	7	...........
	529	530	3.39717E+000	8.65771E-007	0.00000E+000	2.94117E-006	0.00000E+000	7.35574E-004	-3.27687E+002	7	...........
	530	531	3.39716E+000	8.66697E-007	0.00000E+000	2.94431E-006	0.00000E+000	7.38607E-004	-3.27687E+002	7	...........
	531	532	3.39715E+000	8.65140E-007	0.00000E+000	2.93901E-006	0.00000E+000	7.36724E-004	-3.27687E+002	7	...........
	532	533	3.39715E+000	8.65182E-007	0.00000E+000	2.93915E-006	0.00000E+000	7.35724E-004	-3.27687E+002	7	...........
	533	534	3.39714E+000	8.65255E-007	0.00000E+000	2.93940E-006	0.00000E+000	7.37240E-004	-3.27687E+002	7	...........
	534	535	3.39714E+000	8.65349E-007	0.00000E+000	2.93971E-006	0.00000E+000	7.38807E-004	-3.27687E+002	7	...........
	535	536	3.39713E+000	8.64155E-007	0.00000E+000	2.93565E-006	0.00000E+000	7.38090E-004	-3.27687E+002	7	...........
	536	537	3.39713E+000	8.64950E-007	0.00000E+000	2.93835E-006	0.00000E+000	7.38507E-004	-3.27687E+002	7	...........
	537	538	3.39712E+000	8.65058E-007	0.00000E+000	2.93871E-006	0.00000E+000	7.38307E-004	-3.27687E+002	7	...........
	538	539	3.39711E+000	8.63990E-007	0.00000E+000	2.93507E-006	0.00000E+000	7.37024E-004	-3.27687E+002	7	...........
	539	540	3.39711E+000	8.64948E-007	0.00000E+000	2.93833E-006	0.00000E+000	7.36274E-004	-3.27687E+002	7	...........
	540	541	3.39710E+000	8.64812E-007	0.00000E+000	2.93786E-006	0.00000E+000	7.38424E-004	-3.27687E+002	7	...........
	541	542	3.39710E+000	8.65385E-007	0.00000E+000	2.93980E-006	0.00000E+000	7.38890E-004	-3.27687E+002	7	...........
	542	543	3.39710E+000	8.65605E-007	0.00000E+000	2.94055E-006	0.00000E+000	7.37607E-004	-3.27687E+002	7	...........
	543	544	3.39709E+000	8.65037E-007	0.00000E+000	2.93861E-006	0.00000E+000	7.37457E-004	-3.27687E+002	7	...........
	544	545	3.39708E+000	8.65109E-007	0.00000E+000	2.93885E-006	0.00000E+000	7.37657E-004	-3.27687E+002	7	...........
	545	546	3.39708E+000	8.63690E-007	0.00000E+000	2.93402E-006	0.00000E+000	7.40174E-004	-3.27687E+002	7	...........
	546	547	3.39707E+000	8.64020E-007	0.00000E+000	2.93514E-006	0.00000E+000	7.37974E-004	-3.27687E+002	7	...........
	547	548	3.39706E+000	8.64668E-007	0.00000E+000	2.93733E-006	0.00000E+000	7.38424E-004	-3.27687E+002	7	...........
	548	549	3.39706E+000	8.64264E-007	0.00000E+000	2.93596E-006	0.00000E+000	7.37240E-004	-3.27687E+002	7	...........
	549	550	3.39706E+000	8.64182E-007	0.00000E+000	2.93568E-006	0.00000E+000	7.37724E-004	-3.27687E+002	7	...........
	550	551	3.39705E+000	8.63770E-007	0.00000E+000	2.93427E-006	0.00000E+000	7.38340E-004	-3.27687E+002	7	...........
	551	552	3.39704E+000	8.63064E-007	0.00000E+000	2.93186E-006	0.00000E+000	7.38407E-004	-3.27687E+002	7	...........
	552	553	3.39703E+000	8.64430E-007	0.00000E+000	2.93650E-006	0.00000E+000	7.38657E-004	-3.27687E+002	7	...........
	553	554	3.39703E+000	8.64819E-007	0.00000E+000	2.93782E-006	0.00000E+000	7.37324E-004	-3.27687E+002	7	...........
	554	555	3.39702E+000	8.65740E-007	0.00000E+000	2.94094E-006	0.00000E+000	7.38807E-004	-3.27687E+002	7	...........
	555	556	3.39701E+000	8.65604E-007	0.00000E+000	2.94047E-006	0.00000E+000	7.39374E-004	-3.27687E+002	7	...........
	556	557	3.39700E+000	8.65736E-007	0.00000E+000	2.94091E-006	0.00000E+000	7.38674E-004	-3.27687E+002	7	...........
	557	558	3.39699E+000	8.65481E-007	0.00000E+000	2.94003E-006	0.00000E+000	7.39474E-004	-3.27687E+002	7	...........
	558	559	3.39700E+000	8.65444E-007	0.00000E+000	2.93991E-006	0.00000E+000	7.37740E-004	-3.27687E+002	7	...........
	559	560	3.39698E+000	8.64616E-007	0.00000E+000	2.93709E-006	0.00000E+000	7.38924E-004	-3.27687E+002	7	...........
	560	561	3.39698E+000	8.65154E-007	0.00000E+000	2.93891E-006	0.00000E+000	7.40340E-004	-3.27687E+002	7	...........
	561	562	3.39698E+000	8.64087E-007	0.00000E+000	2.93529E-006	0.00000E+000	7.41324E-004	-3.27687E+002	7	...........
	562	563	3.39698E+000	8.64309E-007	0.00000E+000	2.93604E-006	0.00000E+000	7.38724E-004	-3.27687E+002	7	...........
	563	564	3.39696E+000	8.63402E-007	0.00000E+000	2.93294E-006	0.00000E+000	7.40357E-004	-3.27687E+002	7	...........
	564	565	3.39695E+000	8.64034E-007	0.00000E+000	2.93509E-006	0.00000E+000	7.38457E-004	-3.27687E+002	7	...........
	565	566	3.39695E+000	8.64304E-007	0.00000E+000	2.93600E-006	0.00000E+000	7.39340E-004	-3.27687E+002	7	...........
	566	567	3.39695E+000	8.65478E-007	0.00000E+000	2.93998E-006	0.00000E+000	7.37890E-004	-3.27687E+002	7	...........
	567	568	3.39694E+000	8.65530E-007	0.00000E+000	2.94015E-006	0.00000E+000	7.39657E-004	-3.27687E+002	7	...........
	568	569	3.39694E+000	8.64733E-007	0.00000E+000	2.93744E-006	0.00000E+000	7.41057E-004	-3.27687E+002	7	...........
	569	570	3.39693E+000	8.64232E-007	0.00000E+000	2.93573E-006	0.00000E+000	7.41874E-004	-3.27687E+002	7	...........
	570	571	3.39692E+000	8.63526E-007	0.00000E+000	2.93332E-006	0.00000E+000	7.40707E-004	-3.27687E+002	7	...........
	571	572	3.39692E+000	8.64265E-007	0.00000E+000	2.93584E-006	0.00000E+000	7.39657E-004	-3.27687E+002	7	...........
	572	573	3.39691E+000	8.64830E-007	0.00000E+000	2.93775E-006	0.00000E+000	7.39007E-004	-3.27687E+002	7	...........
	573	574	3.39690E+000	8.64786E-007	0.00000E+000	2.93759E-006	0.00000E+000	7.39457E-004	-3.27687E+002	7	...........
	574	575	3.39690E+000	8.64735E-007	0.00000E+000	2.93742E-006	0.00000E+000	7.38540E-004	-3.27687E+002	7	...........
	575	576	3.39690E+000	8.63777E-007	0.00000E+000	2.93416E-006	0.00000E+000	7.39707E-004	-3.27687E+002	7	...........
	576	577	3.39690E+000	8.63735E-007	0.00000E+000	2.93402E-006	0.00000E+000	7.38857E-004	-3.27687E+002	7	...........
	577	578	3.39689E+000	8.64041E-007	0.00000E+000	2.93505E-006	0.00000E+000	7.40624E-004	-3.27687E+002	7	...........
	578	579	3.39688E+000	8.64756E-007	0.00000E+000	2.93747E-006	0.00000E+000	7.38924E-004	-3.27687E+002	7	...........
	579	580	3.39688E+000	8.65158E-007	0.00000E+000	2.93883E-006	0.00000E+000	7.38090E-004	-3.27687E+002	7	...........
	580	581	3.39687E+000	8.64067E-007	0.00000E+000	2.93513E-006	0.00000E+000	7.39374E-004	-3.27687E+002	7	...........
	581	582	3.39686E+000	8.63809E-007	0.00000E+000	2.93424E-006	0.00000E+000	7.40290E-004	-3.27687E+002	7	...........
	582	583	3.39685E+000	8.64312E-007	0.00000E+000	2.93594E-006	0.00000E+000	7.41324E-004	-3.27687E+002	7	...........
	583	584	3.39684E+000	8.64435E-007	0.00000E+000	2.93635E-006	0.00000E+000	7.40340E-004	-3.27687E+002	7	...........
	584	585	3.39684E+000	8.64139E-007	0.00000E+000	2.93535E-006	0.00000E+000	7.40274E-004	-3.27687E+002	7	...........
	585	586	3.39684E+000	8.63120E-007	0.00000E+000	2.93188E-006	0.00000E+000	7.42774E-004	-3.27687E+002	7	...........
	586	587	3.39682E+000	8.62902E-007	0.00000E+000	2.93112E-006	0.00000E+000	7.43274E-004	-3.27687E+002	7	...........
	587	588	3.39682E+000	8.62383E-007	0.00000E+000	2.92936E-006	0.00000E+000	7.42274E-004	-3.27687E+002	7	...........
	588	589	3.39681E+000	8.62459E-007	0.00000E+000	2.92961E-006	0.00000E+000	7.42990E-004	-3.27687E+002	7	...........
	589	590	3.39681E+000	8.62667E-007	0.00000E+000	2.93031E-006	0.00000E+000	7.43824E-004	-3.27687E+002	7	...........
	590	591	3.39681E+000	8.63221E-007	0.00000E+000	2.93219E-006	0.00000E+000	7.42957E-004	-3.27687E+002	7	...........
	591	592	3.39680E+000	8.63687E-007	0.00000E+000	2.93377E-006	0.00000E+000	7.42590E-004	-3.27687E+002	7	...........
	592	593	3.39679E+000	8.62486E-007	0.00000E+000	2.92968E-006	0.00000E+000	7.42240E-004	-3.27687E+002	7	...........
	593	594	3.39679E+000	8.62678E-007	0.00000E+000	2.93033E-006	0.00000E+000	7.41790E-004	-3.27687E+002	7	...........
	594	595	3.39678E+000	8.63928E-007	0.00000E+000	2.93457E-006	0.00000E+000	7.40690E-004	-3.27687E+002	7	...........
	595	596	3.39677E+000	8.64753E-007	0.00000E+000	2.93736E-006	0.00000E+000	7.40940E-004	-3.27687E+002	7	...........
	596	597	3.39677E+000	8.65345E-007	0.00000E+000	2.93937E-006	0.00000E+000	7.41807E-004	-3.27687E+002	7	...........
	597	598	3.39676E+000	8.64426E-007	0.00000E+000	2.93625E-006	0.00000E+000	7.43040E-004	-3.27687E+002	7	...........
	598	599	3.39675E+000	8.63783E-007	0.00000E+000	2.93406E-006	0.00000E+000	7.43274E-004	-3.27687E+002	7	...........
	599	600	3.39675E+000	8.63499E-007	0.00000E+000	2.93309E-006	0.00000E+000	7.41490E-004	-3.27687E+002	7	...........
