EXPLAIN
TAG	PWR800_READVOLTAGE
TITLE	LABEL	PWR Read Voltage	Test Identifier
DATE	LABEL	24.5.2024	Date
TIME	LABEL	19:43:48	Time
NOTES	NOTES	1	Notes...
	
PSTAT	PSTAT	REF600-12055	Potentiostat
CAPACITY	QUANT	1.00000E+000	Capacity (A-hr)
CELLTYPE	SELECTOR	1	Cell Type
WORKINGCONNECTION	SELECTOR	0	Working Connection
MAXTIME	VARIABLEANDUNITS	6.00000E+002	s	6.00000E+002	second(s)	Max Time
SAMPLETIME	QUANT	1.00000E+000	Sample Period (s)
STOPAT1	MULTIPARAM	0	0.00000E+000	Stop At 1	None	N/A
STOPAT2	MULTIPARAM	0	0.00000E+000	Stop At 2	None	N/A
AESBHCSELECTOR	TOGGLE	F	Save Both Half Cells
EOC	QUANT	3.907463	Open Circuit (V)
SEQUENCER	TOGGLE	TRUE	Run as Sequence
PSTATMODEL	IQUANT	4	Pstat Model
PSTATSECTION	LABEL	REF600-12055	Pstat Section
PSTATSERIALNO	LABEL	12055	Pstat Serial Number
CTRLMODE	IQUANT	0	Control Mode
ELECTROMETER	IQUANT	0	RE=0 or CS=1
IESTAB	IQUANT	0	I/E Stability
CASPEED	IQUANT	4	Control Amp Speed
CONVENTION	IQUANT	1	Current Convention
ICHRANGE	IQUANT	2	Ich Range
ICHRANGEMODE	TOGGLE	T	Ich Auto Range
ICHOFFSETENABLE	TOGGLE	F	Ich Offset Enable
ICHOFFSET	QUANT	0	Ich Offset (V)
ICHFILTER	IQUANT	1	Ich Filter
VCHRANGE	IQUANT	3	Vch Range
VCHRANGEMODE	TOGGLE	T	Vch Auto Range
VCHOFFSETENABLE	TOGGLE	F	Vch Offset Enable
VCHOFFSET	QUANT	0	Vch Offset (V)
VCHFILTER	IQUANT	1	Vch Filter
ACHRANGE	IQUANT	2	Ach Range
ACHOFFSETENABLE	TOGGLE	F	Ach Offset Enable
ACHOFFSET	QUANT	0	Ach Offset (V)
ACHFILTER	IQUANT	1	Ach Filter
IERANGELOWERLIMIT	IQUANT	7	I/E Range Lower Limit
IERANGEMODE	TOGGLE	F	I/E AutoRange
IERANGE	IQUANT	11	I/E Range
POSFEEDENABLE	TOGGLE	F	Positive Feedback IR Comp
POSFEEDRESISTANCE	QUANT	0	Positive Feedback Resistance (ohm)
ACHSELECT	IQUANT	4	Ach Select
SENSECABLEID	IQUANT	14	Sense Cable ID
PWRCABLEID	IQUANT	14	Power Cable ID
DCCALDATE	LABEL	2/12/2024	DC Calibration Date
ACCALDATE	LABEL	2/12/2024	AC Calibration Date
THERMOSELECT	IQUANT	1	Thermo Select
FRAMEWORKVERSION	LABEL	7.10.3	Framework Version
INSTRUMENTVERSION	LABEL	4.91	Instrument Version
COMMVERSION	LABEL	2.24	Communications Version
CPUPLDVERSION	LABEL	0.00	CPU PLD Version
CTRLPLDVERSION	LABEL	0.00	CTRL PLD Version
PSTATPLDVERSION	LABEL	0.00	PSTAT PLD Version
CURVE	TABLE	600
	Pt	T	Vf	Im	Vu	Pwr	Sig	Ach	Temp	IERange	Over
	#	s	V	A	V	W	V	V	deg C	#	bits
	0	1	4.01463E+000	1.23478E-006	0.00000E+000	4.95719E-006	0.00000E+000	1.00384E-003	-3.27687E+002	7	...........
	1	2	4.01436E+000	1.23511E-006	0.00000E+000	4.95816E-006	0.00000E+000	1.00686E-003	-3.27687E+002	7	...........
	2	3	4.01420E+000	1.23601E-006	0.00000E+000	4.96157E-006	0.00000E+000	1.00496E-003	-3.27687E+002	7	...........
	3	4	4.01406E+000	1.23612E-006	0.00000E+000	4.96186E-006	0.00000E+000	1.00847E-003	-3.27687E+002	7	...........
	4	5	4.01393E+000	1.23678E-006	0.00000E+000	4.96434E-006	0.00000E+000	1.00137E-003	-3.27687E+002	7	...........
	5	6	4.01380E+000	1.23639E-006	0.00000E+000	4.96261E-006	0.00000E+000	1.00227E-003	-3.27687E+002	7	...........
	6	7	4.01368E+000	1.23610E-006	0.00000E+000	4.96132E-006	0.00000E+000	1.00084E-003	-3.27687E+002	7	...........
	7	8	4.01356E+000	1.23593E-006	0.00000E+000	4.96049E-006	0.00000E+000	1.00301E-003	-3.27687E+002	7	...........
	8	9	4.01345E+000	1.23678E-006	0.00000E+000	4.96375E-006	0.00000E+000	9.98624E-004	-3.27687E+002	7	...........
	9	10	4.01335E+000	1.23688E-006	0.00000E+000	4.96402E-006	0.00000E+000	1.00229E-003	-3.27687E+002	7	...........
	10	11	4.01325E+000	1.23602E-006	0.00000E+000	4.96046E-006	0.00000E+000	1.00282E-003	-3.27687E+002	7	...........
	11	12	4.01316E+000	1.23643E-006	0.00000E+000	4.96198E-006	0.00000E+000	1.00119E-003	-3.27687E+002	7	...........
	12	13	4.01307E+000	1.23602E-006	0.00000E+000	4.96022E-006	0.00000E+000	1.00359E-003	-3.27687E+002	7	...........
	13	14	4.01298E+000	1.23612E-006	0.00000E+000	4.96052E-006	0.00000E+000	1.00412E-003	-3.27687E+002	7	...........
	14	15	4.01288E+000	1.23627E-006	0.00000E+000	4.96101E-006	0.00000E+000	1.00721E-003	-3.27687E+002	7	...........
	15	16	4.01278E+000	1.23647E-006	0.00000E+000	4.96169E-006	0.00000E+000	1.00821E-003	-3.27687E+002	7	...........
	16	17	4.01269E+000	1.23701E-006	0.00000E+000	4.96374E-006	0.00000E+000	1.00724E-003	-3.27687E+002	7	...........
	17	18	4.01259E+000	1.23744E-006	0.00000E+000	4.96533E-006	0.00000E+000	1.00929E-003	-3.27687E+002	7	...........
	18	19	4.01250E+000	1.23681E-006	0.00000E+000	4.96271E-006	0.00000E+000	1.00782E-003	-3.27687E+002	7	...........
	19	20	4.01242E+000	1.23743E-006	0.00000E+000	4.96510E-006	0.00000E+000	1.00646E-003	-3.27687E+002	7	...........
	20	21	4.01235E+000	1.23679E-006	0.00000E+000	4.96245E-006	0.00000E+000	8.28024E-004	-3.27687E+002	7	...........
	21	22	4.01227E+000	1.23733E-006	0.00000E+000	4.96450E-006	0.00000E+000	7.44790E-004	-3.27687E+002	7	...........
	22	23	4.01221E+000	1.23725E-006	0.00000E+000	4.96411E-006	0.00000E+000	7.44674E-004	-3.27687E+002	7	...........
	23	24	4.01215E+000	1.23791E-006	0.00000E+000	4.96668E-006	0.00000E+000	7.42024E-004	-3.27687E+002	7	...........
	24	25	4.01210E+000	1.23818E-006	0.00000E+000	4.96771E-006	0.00000E+000	7.39507E-004	-3.27687E+002	7	...........
	25	26	4.01203E+000	1.23744E-006	0.00000E+000	4.96466E-006	0.00000E+000	7.39707E-004	-3.27687E+002	7	...........
	26	27	4.01199E+000	1.23747E-006	0.00000E+000	4.96470E-006	0.00000E+000	7.38907E-004	-3.27687E+002	7	...........
	27	28	4.01194E+000	1.23754E-006	0.00000E+000	4.96495E-006	0.00000E+000	7.35924E-004	-3.27687E+002	7	...........
	28	29	4.01189E+000	1.23745E-006	0.00000E+000	4.96452E-006	0.00000E+000	7.34557E-004	-3.27687E+002	7	...........
	29	30	4.01185E+000	1.23850E-006	0.00000E+000	4.96868E-006	0.00000E+000	7.33990E-004	-3.27687E+002	7	...........
	30	31	4.01181E+000	1.23880E-006	0.00000E+000	4.96982E-006	0.00000E+000	7.36874E-004	-3.27687E+002	7	...........
	31	32	4.01176E+000	1.23843E-006	0.00000E+000	4.96829E-006	0.00000E+000	7.33757E-004	-3.27687E+002	7	...........
	32	33	4.01172E+000	1.23815E-006	0.00000E+000	4.96711E-006	0.00000E+000	7.35590E-004	-3.27687E+002	7	...........
	33	34	4.01168E+000	1.23813E-006	0.00000E+000	4.96701E-006	0.00000E+000	7.38040E-004	-3.27687E+002	7	...........
	34	35	4.01163E+000	1.23799E-006	0.00000E+000	4.96635E-006	0.00000E+000	7.37340E-004	-3.27687E+002	7	...........
	35	36	4.01160E+000	1.23841E-006	0.00000E+000	4.96802E-006	0.00000E+000	7.37140E-004	-3.27687E+002	7	...........
	36	37	4.01156E+000	1.23787E-006	0.00000E+000	4.96580E-006	0.00000E+000	7.36807E-004	-3.27687E+002	7	...........
	37	38	4.01153E+000	1.23816E-006	0.00000E+000	4.96690E-006	0.00000E+000	7.37274E-004	-3.27687E+002	7	...........
	38	39	4.01147E+000	1.23770E-006	0.00000E+000	4.96500E-006	0.00000E+000	7.36974E-004	-3.27687E+002	7	...........
	39	40	4.01144E+000	1.23762E-006	0.00000E+000	4.96464E-006	0.00000E+000	7.40124E-004	-3.27687E+002	7	...........
	40	41	4.01140E+000	1.23772E-006	0.00000E+000	4.96499E-006	0.00000E+000	7.39090E-004	-3.27687E+002	7	...........
	41	42	4.01135E+000	1.23824E-006	0.00000E+000	4.96703E-006	0.00000E+000	7.43024E-004	-3.27687E+002	7	...........
	42	43	4.01131E+000	1.23868E-006	0.00000E+000	4.96872E-006	0.00000E+000	7.40657E-004	-3.27687E+002	7	...........
	43	44	4.01126E+000	1.23982E-006	0.00000E+000	4.97324E-006	0.00000E+000	7.44424E-004	-3.27687E+002	7	...........
	44	45	4.01122E+000	1.23862E-006	0.00000E+000	4.96835E-006	0.00000E+000	7.46690E-004	-3.27687E+002	7	...........
	45	46	4.01118E+000	1.23889E-006	0.00000E+000	4.96943E-006	0.00000E+000	7.44274E-004	-3.27687E+002	7	...........
	46	47	4.01114E+000	1.23874E-006	0.00000E+000	4.96874E-006	0.00000E+000	7.45507E-004	-3.27687E+002	7	...........
	47	48	4.01110E+000	1.23899E-006	0.00000E+000	4.96971E-006	0.00000E+000	7.45307E-004	-3.27687E+002	7	...........
	48	49	4.01107E+000	1.23921E-006	0.00000E+000	4.97055E-006	0.00000E+000	7.44407E-004	-3.27687E+002	7	...........
	49	50	4.01104E+000	1.23970E-006	0.00000E+000	4.97249E-006	0.00000E+000	7.43390E-004	-3.27687E+002	7	...........
	50	51	4.01100E+000	1.23914E-006	0.00000E+000	4.97019E-006	0.00000E+000	7.44324E-004	-3.27687E+002	7	...........
	51	52	4.01097E+000	1.23929E-006	0.00000E+000	4.97077E-006	0.00000E+000	7.40040E-004	-3.27687E+002	7	...........
	52	53	4.01094E+000	1.23918E-006	0.00000E+000	4.97027E-006	0.00000E+000	7.42790E-004	-3.27687E+002	7	...........
	53	54	4.01091E+000	1.23925E-006	0.00000E+000	4.97052E-006	0.00000E+000	7.43224E-004	-3.27687E+002	7	...........
	54	55	4.01087E+000	1.23917E-006	0.00000E+000	4.97015E-006	0.00000E+000	7.39857E-004	-3.27687E+002	7	...........
	55	56	4.01084E+000	1.23931E-006	0.00000E+000	4.97067E-006	0.00000E+000	7.38240E-004	-3.27687E+002	7	...........
	56	57	4.01081E+000	1.24035E-006	0.00000E+000	4.97479E-006	0.00000E+000	7.38057E-004	-3.27687E+002	7	...........
	57	58	4.01079E+000	1.24003E-006	0.00000E+000	4.97349E-006	0.00000E+000	7.37457E-004	-3.27687E+002	7	...........
	58	59	4.01075E+000	1.23934E-006	0.00000E+000	4.97068E-006	0.00000E+000	7.36557E-004	-3.27687E+002	7	...........
	59	60	4.01072E+000	1.23971E-006	0.00000E+000	4.97212E-006	0.00000E+000	7.34724E-004	-3.27687E+002	7	...........
	60	61	4.01068E+000	1.23981E-006	0.00000E+000	4.97250E-006	0.00000E+000	7.31307E-004	-3.27687E+002	7	...........
	61	62	4.01065E+000	1.23993E-006	0.00000E+000	4.97291E-006	0.00000E+000	7.28324E-004	-3.27687E+002	7	...........
	62	63	4.01062E+000	1.23997E-006	0.00000E+000	4.97306E-006	0.00000E+000	7.28540E-004	-3.27687E+002	7	...........
	63	64	4.01059E+000	1.24045E-006	0.00000E+000	4.97495E-006	0.00000E+000	7.29457E-004	-3.27687E+002	7	...........
	64	65	4.01056E+000	1.24039E-006	0.00000E+000	4.97465E-006	0.00000E+000	7.27024E-004	-3.27687E+002	7	...........
	65	66	4.01051E+000	1.23997E-006	0.00000E+000	4.97291E-006	0.00000E+000	7.25674E-004	-3.27687E+002	7	...........
	66	67	4.01049E+000	1.24005E-006	0.00000E+000	4.97319E-006	0.00000E+000	7.24040E-004	-3.27687E+002	7	...........
	67	68	4.01045E+000	1.24011E-006	0.00000E+000	4.97339E-006	0.00000E+000	7.21524E-004	-3.27687E+002	7	...........
	68	69	4.01042E+000	1.24010E-006	0.00000E+000	4.97331E-006	0.00000E+000	7.21190E-004	-3.27687E+002	7	...........
	69	70	4.01039E+000	1.24046E-006	0.00000E+000	4.97474E-006	0.00000E+000	7.20874E-004	-3.27687E+002	7	...........
	70	71	4.01035E+000	1.24017E-006	0.00000E+000	4.97350E-006	0.00000E+000	7.19607E-004	-3.27687E+002	7	...........
	71	72	4.01032E+000	1.23975E-006	0.00000E+000	4.97179E-006	0.00000E+000	7.19607E-004	-3.27687E+002	7	...........
	72	73	4.01028E+000	1.23976E-006	0.00000E+000	4.97179E-006	0.00000E+000	7.20324E-004	-3.27687E+002	7	...........
	73	74	4.01026E+000	1.24010E-006	0.00000E+000	4.97312E-006	0.00000E+000	7.14524E-004	-3.27687E+002	7	...........
	74	75	4.01023E+000	1.24057E-006	0.00000E+000	4.97496E-006	0.00000E+000	7.15557E-004	-3.27687E+002	7	...........
	75	76	4.01020E+000	1.24005E-006	0.00000E+000	4.97286E-006	0.00000E+000	7.16074E-004	-3.27687E+002	7	...........
	76	77	4.01017E+000	1.24020E-006	0.00000E+000	4.97340E-006	0.00000E+000	7.15840E-004	-3.27687E+002	7	...........
	77	78	4.01013E+000	1.24006E-006	0.00000E+000	4.97282E-006	0.00000E+000	7.16407E-004	-3.27687E+002	7	...........
	78	79	4.01011E+000	1.24046E-006	0.00000E+000	4.97439E-006	0.00000E+000	7.19224E-004	-3.27687E+002	7	...........
	79	80	4.01008E+000	1.24025E-006	0.00000E+000	4.97350E-006	0.00000E+000	7.18457E-004	-3.27687E+002	7	...........
	80	81	4.01005E+000	1.24041E-006	0.00000E+000	4.97412E-006	0.00000E+000	7.17940E-004	-3.27687E+002	7	...........
	81	82	4.01002E+000	1.24054E-006	0.00000E+000	4.97459E-006	0.00000E+000	7.24507E-004	-3.27687E+002	7	...........
	82	83	4.00999E+000	1.24187E-006	0.00000E+000	4.97987E-006	0.00000E+000	7.20007E-004	-3.27687E+002	7	...........
	83	84	4.00997E+000	1.24104E-006	0.00000E+000	4.97654E-006	0.00000E+000	7.21824E-004	-3.27687E+002	7	...........
	84	85	4.00994E+000	1.24082E-006	0.00000E+000	4.97562E-006	0.00000E+000	7.22924E-004	-3.27687E+002	7	...........
	85	86	4.00991E+000	1.24080E-006	0.00000E+000	4.97548E-006	0.00000E+000	7.23840E-004	-3.27687E+002	7	...........
	86	87	4.00989E+000	1.24094E-006	0.00000E+000	4.97602E-006	0.00000E+000	7.24624E-004	-3.27687E+002	7	...........
	87	88	4.00985E+000	1.24156E-006	0.00000E+000	4.97845E-006	0.00000E+000	7.29157E-004	-3.27687E+002	7	...........
	88	89	4.00983E+000	1.24144E-006	0.00000E+000	4.97795E-006	0.00000E+000	7.28357E-004	-3.27687E+002	7	...........
	89	90	4.00979E+000	1.24106E-006	0.00000E+000	4.97639E-006	0.00000E+000	7.30907E-004	-3.27687E+002	7	...........
	90	91	4.00977E+000	1.24107E-006	0.00000E+000	4.97641E-006	0.00000E+000	7.32890E-004	-3.27687E+002	7	...........
	91	92	4.00974E+000	1.24118E-006	0.00000E+000	4.97680E-006	0.00000E+000	7.34574E-004	-3.27687E+002	7	...........
	92	93	4.00972E+000	1.24123E-006	0.00000E+000	4.97697E-006	0.00000E+000	7.34474E-004	-3.27687E+002	7	...........
	93	94	4.00968E+000	1.24143E-006	0.00000E+000	4.97775E-006	0.00000E+000	7.38740E-004	-3.27687E+002	7	...........
	94	95	4.00965E+000	1.24160E-006	0.00000E+000	4.97837E-006	0.00000E+000	7.37624E-004	-3.27687E+002	7	...........
	95	96	4.00963E+000	1.24233E-006	0.00000E+000	4.98131E-006	0.00000E+000	7.39357E-004	-3.27687E+002	7	...........
	96	97	4.00960E+000	1.24182E-006	0.00000E+000	4.97923E-006	0.00000E+000	7.41924E-004	-3.27687E+002	7	...........
	97	98	4.00958E+000	1.24183E-006	0.00000E+000	4.97924E-006	0.00000E+000	7.39024E-004	-3.27687E+002	7	...........
	98	99	4.00955E+000	1.24155E-006	0.00000E+000	4.97804E-006	0.00000E+000	7.41524E-004	-3.27687E+002	7	...........
	99	100	4.00952E+000	1.24217E-006	0.00000E+000	4.98053E-006	0.00000E+000	7.43707E-004	-3.27687E+002	7	...........
	100	101	4.00951E+000	1.24235E-006	0.00000E+000	4.98123E-006	0.00000E+000	7.45107E-004	-3.27687E+002	7	...........
	101	102	4.00949E+000	1.24255E-006	0.00000E+000	4.98197E-006	0.00000E+000	7.43507E-004	-3.27687E+002	7	...........
	102	103	4.00946E+000	1.24265E-006	0.00000E+000	4.98237E-006	0.00000E+000	7.44257E-004	-3.27687E+002	7	...........
	103	104	4.00944E+000	1.24237E-006	0.00000E+000	4.98119E-006	0.00000E+000	7.44907E-004	-3.27687E+002	7	...........
	104	105	4.00941E+000	1.24206E-006	0.00000E+000	4.97995E-006	0.00000E+000	7.45857E-004	-3.27687E+002	7	...........
	105	106	4.00940E+000	1.24198E-006	0.00000E+000	4.97957E-006	0.00000E+000	7.43607E-004	-3.27687E+002	7	...........
	106	107	4.00938E+000	1.24224E-006	0.00000E+000	4.98062E-006	0.00000E+000	7.46574E-004	-3.27687E+002	7	...........
	107	108	4.00936E+000	1.24259E-006	0.00000E+000	4.98201E-006	0.00000E+000	7.47057E-004	-3.27687E+002	7	...........
	108	109	4.00934E+000	1.24366E-006	0.00000E+000	4.98627E-006	0.00000E+000	7.45590E-004	-3.27687E+002	7	...........
	109	110	4.00932E+000	1.24312E-006	0.00000E+000	4.98405E-006	0.00000E+000	7.45557E-004	-3.27687E+002	7	...........
	110	111	4.00930E+000	1.24300E-006	0.00000E+000	4.98358E-006	0.00000E+000	7.48974E-004	-3.27687E+002	7	...........
	111	112	4.00929E+000	1.24279E-006	0.00000E+000	4.98268E-006	0.00000E+000	7.46874E-004	-3.27687E+002	7	...........
	112	113	4.00926E+000	1.24306E-006	0.00000E+000	4.98377E-006	0.00000E+000	7.47940E-004	-3.27687E+002	7	...........
	113	114	4.00925E+000	1.24310E-006	0.00000E+000	4.98388E-006	0.00000E+000	7.48757E-004	-3.27687E+002	7	...........
	114	115	4.00923E+000	1.24328E-006	0.00000E+000	4.98458E-006	0.00000E+000	7.45724E-004	-3.27687E+002	7	...........
	115	116	4.00922E+000	1.24326E-006	0.00000E+000	4.98450E-006	0.00000E+000	7.46190E-004	-3.27687E+002	7	...........
	116	117	4.00920E+000	1.24286E-006	0.00000E+000	4.98286E-006	0.00000E+000	7.49124E-004	-3.27687E+002	7	...........
	117	118	4.00918E+000	1.24263E-006	0.00000E+000	4.98194E-006	0.00000E+000	7.47524E-004	-3.27687E+002	7	...........
	118	119	4.00916E+000	1.24253E-006	0.00000E+000	4.98150E-006	0.00000E+000	7.46474E-004	-3.27687E+002	7	...........
	119	120	4.00913E+000	1.24268E-006	0.00000E+000	4.98209E-006	0.00000E+000	7.48374E-004	-3.27687E+002	7	...........
	120	121	4.00911E+000	1.24338E-006	0.00000E+000	4.98485E-006	0.00000E+000	7.48107E-004	-3.27687E+002	7	...........
	121	122	4.00909E+000	1.24368E-006	0.00000E+000	4.98602E-006	0.00000E+000	7.43257E-004	-3.27687E+002	7	...........
	122	123	4.00908E+000	1.24297E-006	0.00000E+000	4.98318E-006	0.00000E+000	7.45474E-004	-3.27687E+002	7	...........
	123	124	4.00905E+000	1.24292E-006	0.00000E+000	4.98292E-006	0.00000E+000	7.46007E-004	-3.27687E+002	7	...........
	124	125	4.00903E+000	1.24291E-006	0.00000E+000	4.98286E-006	0.00000E+000	7.44457E-004	-3.27687E+002	7	...........
	125	126	4.00901E+000	1.24337E-006	0.00000E+000	4.98467E-006	0.00000E+000	7.44474E-004	-3.27687E+002	7	...........
	126	127	4.00898E+000	1.24376E-006	0.00000E+000	4.98620E-006	0.00000E+000	7.42974E-004	-3.27687E+002	7	...........
	127	128	4.00897E+000	1.24338E-006	0.00000E+000	4.98468E-006	0.00000E+000	7.44307E-004	-3.27687E+002	7	...........
	128	129	4.00895E+000	1.24367E-006	0.00000E+000	4.98580E-006	0.00000E+000	7.42990E-004	-3.27687E+002	7	...........
	129	130	4.00892E+000	1.24389E-006	0.00000E+000	4.98667E-006	0.00000E+000	7.41957E-004	-3.27687E+002	7	...........
	130	131	4.00891E+000	1.24346E-006	0.00000E+000	4.98490E-006	0.00000E+000	7.39740E-004	-3.27687E+002	7	...........
	131	132	4.00888E+000	1.24331E-006	0.00000E+000	4.98428E-006	0.00000E+000	7.39974E-004	-3.27687E+002	7	...........
	132	133	4.00886E+000	1.24384E-006	0.00000E+000	4.98639E-006	0.00000E+000	7.38624E-004	-3.27687E+002	7	...........
	133	134	4.00883E+000	1.24389E-006	0.00000E+000	4.98657E-006	0.00000E+000	7.38390E-004	-3.27687E+002	7	...........
	134	135	4.00882E+000	1.24456E-006	0.00000E+000	4.98920E-006	0.00000E+000	7.38040E-004	-3.27687E+002	7	...........
	135	136	4.00880E+000	1.24404E-006	0.00000E+000	4.98710E-006	0.00000E+000	7.38757E-004	-3.27687E+002	7	...........
	136	137	4.00879E+000	1.24383E-006	0.00000E+000	4.98624E-006	0.00000E+000	7.38124E-004	-3.27687E+002	7	...........
	137	138	4.00876E+000	1.24403E-006	0.00000E+000	4.98700E-006	0.00000E+000	7.38640E-004	-3.27687E+002	7	...........
	138	139	4.00873E+000	1.24373E-006	0.00000E+000	4.98579E-006	0.00000E+000	7.37990E-004	-3.27687E+002	7	...........
	139	140	4.00872E+000	1.24323E-006	0.00000E+000	4.98377E-006	0.00000E+000	7.38124E-004	-3.27687E+002	7	...........
	140	141	4.00870E+000	1.24350E-006	0.00000E+000	4.98482E-006	0.00000E+000	7.40090E-004	-3.27687E+002	7	...........
	141	142	4.00868E+000	1.24397E-006	0.00000E+000	4.98669E-006	0.00000E+000	7.36024E-004	-3.27687E+002	7	...........
	142	143	4.00867E+000	1.24398E-006	0.00000E+000	4.98671E-006	0.00000E+000	7.39307E-004	-3.27687E+002	7	...........
	143	144	4.00864E+000	1.24301E-006	0.00000E+000	4.98279E-006	0.00000E+000	7.37340E-004	-3.27687E+002	7	...........
	144	145	4.00864E+000	1.24322E-006	0.00000E+000	4.98362E-006	0.00000E+000	7.40224E-004	-3.27687E+002	7	...........
	145	146	4.00862E+000	1.24373E-006	0.00000E+000	4.98563E-006	0.00000E+000	7.36124E-004	-3.27687E+002	7	...........
	146	147	4.00861E+000	1.24439E-006	0.00000E+000	4.98829E-006	0.00000E+000	7.38307E-004	-3.27687E+002	7	...........
	147	148	4.00858E+000	1.24468E-006	0.00000E+000	4.98941E-006	0.00000E+000	7.37557E-004	-3.27687E+002	7	...........
	148	149	4.00856E+000	1.24454E-006	0.00000E+000	4.98883E-006	0.00000E+000	7.36974E-004	-3.27687E+002	7	...........
	149	150	4.00854E+000	1.24457E-006	0.00000E+000	4.98891E-006	0.00000E+000	7.35590E-004	-3.27687E+002	7	...........
	150	151	4.00853E+000	1.24441E-006	0.00000E+000	4.98824E-006	0.00000E+000	7.38640E-004	-3.27687E+002	7	...........
	151	152	4.00851E+000	1.24472E-006	0.00000E+000	4.98948E-006	0.00000E+000	7.38724E-004	-3.27687E+002	7	...........
	152	153	4.00850E+000	1.24425E-006	0.00000E+000	4.98759E-006	0.00000E+000	7.38107E-004	-3.27687E+002	7	...........
	153	154	4.00848E+000	1.24463E-006	0.00000E+000	4.98907E-006	0.00000E+000	7.37607E-004	-3.27687E+002	7	...........
	154	155	4.00848E+000	1.24428E-006	0.00000E+000	4.98768E-006	0.00000E+000	7.37140E-004	-3.27687E+002	7	...........
	155	156	4.00846E+000	1.24464E-006	0.00000E+000	4.98910E-006	0.00000E+000	7.38890E-004	-3.27687E+002	7	...........
	156	157	4.00845E+000	1.24378E-006	0.00000E+000	4.98564E-006	0.00000E+000	7.38857E-004	-3.27687E+002	7	...........
	157	158	4.00843E+000	1.24406E-006	0.00000E+000	4.98671E-006	0.00000E+000	7.40024E-004	-3.27687E+002	7	...........
	158	159	4.00842E+000	1.24446E-006	0.00000E+000	4.98832E-006	0.00000E+000	7.38174E-004	-3.27687E+002	7	...........
	159	160	4.00839E+000	1.24438E-006	0.00000E+000	4.98796E-006	0.00000E+000	7.37474E-004	-3.27687E+002	7	...........
	160	161	4.00838E+000	1.24575E-006	0.00000E+000	4.99346E-006	0.00000E+000	7.41640E-004	-3.27687E+002	7	...........
	161	162	4.00836E+000	1.24501E-006	0.00000E+000	4.99045E-006	0.00000E+000	7.39007E-004	-3.27687E+002	7	...........
	162	163	4.00834E+000	1.24483E-006	0.00000E+000	4.98971E-006	0.00000E+000	7.42890E-004	-3.27687E+002	7	...........
	163	164	4.00833E+000	1.24470E-006	0.00000E+000	4.98916E-006	0.00000E+000	7.42757E-004	-3.27687E+002	7	...........
	164	165	4.00832E+000	1.24540E-006	0.00000E+000	4.99196E-006	0.00000E+000	7.42857E-004	-3.27687E+002	7	...........
	165	166	4.00829E+000	1.24549E-006	0.00000E+000	4.99229E-006	0.00000E+000	7.45090E-004	-3.27687E+002	7	...........
	166	167	4.00828E+000	1.24598E-006	0.00000E+000	4.99425E-006	0.00000E+000	7.43007E-004	-3.27687E+002	7	...........
	167	168	4.00827E+000	1.24548E-006	0.00000E+000	4.99220E-006	0.00000E+000	7.41790E-004	-3.27687E+002	7	...........
	168	169	4.00825E+000	1.24544E-006	0.00000E+000	4.99204E-006	0.00000E+000	7.45907E-004	-3.27687E+002	7	...........
	169	170	4.00824E+000	1.24552E-006	0.00000E+000	4.99233E-006	0.00000E+000	7.43274E-004	-3.27687E+002	7	...........
	170	171	4.00823E+000	1.24574E-006	0.00000E+000	4.99323E-006	0.00000E+000	7.45257E-004	-3.27687E+002	7	...........
	171	172	4.00821E+000	1.24613E-006	0.00000E+000	4.99474E-006	0.00000E+000	7.44124E-004	-3.27687E+002	7	...........
	172	173	4.00820E+000	1.24666E-006	0.00000E+000	4.99687E-006	0.00000E+000	7.42607E-004	-3.27687E+002	7	...........
	173	174	4.00818E+000	1.24724E-006	0.00000E+000	4.99918E-006	0.00000E+000	7.46674E-004	-3.27687E+002	7	...........
	174	175	4.00817E+000	1.24696E-006	0.00000E+000	4.99802E-006	0.00000E+000	7.46207E-004	-3.27687E+002	7	...........
	175	176	4.00816E+000	1.24737E-006	0.00000E+000	4.99967E-006	0.00000E+000	7.47274E-004	-3.27687E+002	7	...........
	176	177	4.00815E+000	1.24654E-006	0.00000E+000	4.99633E-006	0.00000E+000	7.47890E-004	-3.27687E+002	7	...........
	177	178	4.00813E+000	1.24748E-006	0.00000E+000	5.00006E-006	0.00000E+000	7.45274E-004	-3.27687E+002	7	...........
	178	179	4.00811E+000	1.24781E-006	0.00000E+000	5.00136E-006	0.00000E+000	7.45857E-004	-3.27687E+002	7	...........
	179	180	4.00810E+000	1.24733E-006	0.00000E+000	4.99942E-006	0.00000E+000	7.46457E-004	-3.27687E+002	7	...........
	180	181	4.00808E+000	1.24742E-006	0.00000E+000	4.99978E-006	0.00000E+000	7.49890E-004	-3.27687E+002	7	...........
	181	182	4.00808E+000	1.24809E-006	0.00000E+000	5.00245E-006	0.00000E+000	7.48557E-004	-3.27687E+002	7	...........
	182	183	4.00806E+000	1.24741E-006	0.00000E+000	4.99971E-006	0.00000E+000	7.48840E-004	-3.27687E+002	7	...........
	183	184	4.00805E+000	1.24712E-006	0.00000E+000	4.99851E-006	0.00000E+000	7.46857E-004	-3.27687E+002	7	...........
	184	185	4.00804E+000	1.24749E-006	0.00000E+000	4.99999E-006	0.00000E+000	7.46774E-004	-3.27687E+002	7	...........
	185	186	4.00803E+000	1.24818E-006	0.00000E+000	5.00275E-006	0.00000E+000	7.49574E-004	-3.27687E+002	7	...........
	186	187	4.00802E+000	1.24907E-006	0.00000E+000	5.00630E-006	0.00000E+000	7.47957E-004	-3.27687E+002	7	...........
	187	188	4.00800E+000	1.24817E-006	0.00000E+000	5.00268E-006	0.00000E+000	7.47390E-004	-3.27687E+002	7	...........
	188	189	4.00799E+000	1.24787E-006	0.00000E+000	5.00145E-006	0.00000E+000	7.49724E-004	-3.27687E+002	7	...........
	189	190	4.00798E+000	1.24814E-006	0.00000E+000	5.00251E-006	0.00000E+000	7.51190E-004	-3.27687E+002	7	...........
	190	191	4.00797E+000	1.24833E-006	0.00000E+000	5.00325E-006	0.00000E+000	7.50340E-004	-3.27687E+002	7	...........
	191	192	4.00795E+000	1.24886E-006	0.00000E+000	5.00536E-006	0.00000E+000	7.48190E-004	-3.27687E+002	7	...........
	192	193	4.00794E+000	1.24825E-006	0.00000E+000	5.00293E-006	0.00000E+000	7.49040E-004	-3.27687E+002	7	...........
	193	194	4.00793E+000	1.24831E-006	0.00000E+000	5.00312E-006	0.00000E+000	7.50190E-004	-3.27687E+002	7	...........
	194	195	4.00793E+000	1.24831E-006	0.00000E+000	5.00313E-006	0.00000E+000	7.51440E-004	-3.27687E+002	7	...........
	195	196	4.00791E+000	1.24749E-006	0.00000E+000	4.99982E-006	0.00000E+000	7.50040E-004	-3.27687E+002	7	...........
	196	197	4.00789E+000	1.24749E-006	0.00000E+000	4.99979E-006	0.00000E+000	7.49257E-004	-3.27687E+002	7	...........
	197	198	4.00789E+000	1.24808E-006	0.00000E+000	5.00215E-006	0.00000E+000	7.50407E-004	-3.27687E+002	7	...........
	198	199	4.00788E+000	1.24847E-006	0.00000E+000	5.00373E-006	0.00000E+000	7.49740E-004	-3.27687E+002	7	...........
	199	200	4.00787E+000	1.24889E-006	0.00000E+000	5.00540E-006	0.00000E+000	7.50424E-004	-3.27687E+002	7	...........
	200	201	4.00785E+000	1.24839E-006	0.00000E+000	5.00335E-006	0.00000E+000	7.53074E-004	-3.27687E+002	7	...........
	201	202	4.00784E+000	1.24843E-006	0.00000E+000	5.00353E-006	0.00000E+000	7.50090E-004	-3.27687E+002	7	...........
	202	203	4.00783E+000	1.24843E-006	0.00000E+000	5.00351E-006	0.00000E+000	7.51324E-004	-3.27687E+002	7	...........
	203	204	4.00782E+000	1.24896E-006	0.00000E+000	5.00560E-006	0.00000E+000	7.49640E-004	-3.27687E+002	7	...........
	204	205	4.00782E+000	1.24863E-006	0.00000E+000	5.00428E-006	0.00000E+000	7.50424E-004	-3.27687E+002	7	...........
	205	206	4.00780E+000	1.24811E-006	0.00000E+000	5.00217E-006	0.00000E+000	7.49657E-004	-3.27687E+002	7	...........
	206	207	4.00779E+000	1.24829E-006	0.00000E+000	5.00289E-006	0.00000E+000	7.51657E-004	-3.27687E+002	7	...........
	207	208	4.00778E+000	1.24847E-006	0.00000E+000	5.00360E-006	0.00000E+000	7.48924E-004	-3.27687E+002	7	...........
	208	209	4.00778E+000	1.24843E-006	0.00000E+000	5.00342E-006	0.00000E+000	7.51407E-004	-3.27687E+002	7	...........
	209	210	4.00777E+000	1.24823E-006	0.00000E+000	5.00260E-006	0.00000E+000	7.50590E-004	-3.27687E+002	7	...........
	210	211	4.00776E+000	1.24844E-006	0.00000E+000	5.00342E-006	0.00000E+000	7.50190E-004	-3.27687E+002	7	...........
	211	212	4.00775E+000	1.24868E-006	0.00000E+000	5.00439E-006	0.00000E+000	7.52174E-004	-3.27687E+002	7	...........
	212	213	4.00774E+000	1.24887E-006	0.00000E+000	5.00517E-006	0.00000E+000	7.50724E-004	-3.27687E+002	7	...........
	213	214	4.00773E+000	1.24815E-006	0.00000E+000	5.00224E-006	0.00000E+000	7.50657E-004	-3.27687E+002	7	...........
	214	215	4.00772E+000	1.24824E-006	0.00000E+000	5.00259E-006	0.00000E+000	7.51640E-004	-3.27687E+002	7	...........
	215	216	4.00771E+000	1.24810E-006	0.00000E+000	5.00202E-006	0.00000E+000	7.49974E-004	-3.27687E+002	7	...........
	216	217	4.00771E+000	1.24853E-006	0.00000E+000	5.00374E-006	0.00000E+000	7.46074E-004	-3.27687E+002	7	...........
	217	218	4.00769E+000	1.24869E-006	0.00000E+000	5.00436E-006	0.00000E+000	7.50574E-004	-3.27687E+002	7	...........
	218	219	4.00768E+000	1.24848E-006	0.00000E+000	5.00349E-006	0.00000E+000	7.48774E-004	-3.27687E+002	7	...........
	219	220	4.00768E+000	1.24856E-006	0.00000E+000	5.00382E-006	0.00000E+000	7.49490E-004	-3.27687E+002	7	...........
	220	221	4.00767E+000	1.24800E-006	0.00000E+000	5.00156E-006	0.00000E+000	7.46324E-004	-3.27687E+002	7	...........
	221	222	4.00766E+000	1.24834E-006	0.00000E+000	5.00294E-006	0.00000E+000	7.48057E-004	-3.27687E+002	7	...........
	222	223	4.00765E+000	1.24800E-006	0.00000E+000	5.00154E-006	0.00000E+000	7.49174E-004	-3.27687E+002	7	...........
	223	224	4.00764E+000	1.24839E-006	0.00000E+000	5.00311E-006	0.00000E+000	7.49124E-004	-3.27687E+002	7	...........
	224	225	4.00763E+000	1.24893E-006	0.00000E+000	5.00524E-006	0.00000E+000	7.50757E-004	-3.27687E+002	7	...........
	225	226	4.00761E+000	1.24951E-006	0.00000E+000	5.00756E-006	0.00000E+000	7.47974E-004	-3.27687E+002	7	...........
	226	227	4.00761E+000	1.24905E-006	0.00000E+000	5.00572E-006	0.00000E+000	7.50457E-004	-3.27687E+002	7	...........
	227	228	4.00760E+000	1.24965E-006	0.00000E+000	5.00810E-006	0.00000E+000	7.48240E-004	-3.27687E+002	7	...........
	228	229	4.00759E+000	1.24920E-006	0.00000E+000	5.00630E-006	0.00000E+000	7.50674E-004	-3.27687E+002	7	...........
	229	230	4.00759E+000	1.24987E-006	0.00000E+000	5.00898E-006	0.00000E+000	7.47790E-004	-3.27687E+002	7	...........
	230	231	4.00758E+000	1.24996E-006	0.00000E+000	5.00930E-006	0.00000E+000	7.49540E-004	-3.27687E+002	7	...........
	231	232	4.00757E+000	1.25031E-006	0.00000E+000	5.01071E-006	0.00000E+000	7.47657E-004	-3.27687E+002	7	...........
	232	233	4.00755E+000	1.25048E-006	0.00000E+000	5.01136E-006	0.00000E+000	7.44590E-004	-3.27687E+002	7	...........
	233	234	4.00754E+000	1.25028E-006	0.00000E+000	5.01056E-006	0.00000E+000	7.46857E-004	-3.27687E+002	7	...........
	234	235	4.00753E+000	1.25003E-006	0.00000E+000	5.00955E-006	0.00000E+000	7.44490E-004	-3.27687E+002	7	...........
	235	236	4.00753E+000	1.24972E-006	0.00000E+000	5.00830E-006	0.00000E+000	7.45390E-004	-3.27687E+002	7	...........
	236	237	4.00752E+000	1.24969E-006	0.00000E+000	5.00815E-006	0.00000E+000	7.47107E-004	-3.27687E+002	7	...........
	237	238	4.00750E+000	1.25022E-006	0.00000E+000	5.01025E-006	0.00000E+000	7.47140E-004	-3.27687E+002	7	...........
	238	239	4.00750E+000	1.25087E-006	0.00000E+000	5.01286E-006	0.00000E+000	7.45157E-004	-3.27687E+002	7	...........
	239	240	4.00748E+000	1.25054E-006	0.00000E+000	5.01151E-006	0.00000E+000	7.45324E-004	-3.27687E+002	7	...........
	240	241	4.00748E+000	1.25022E-006	0.00000E+000	5.01025E-006	0.00000E+000	7.44657E-004	-3.27687E+002	7	...........
	241	242	4.00747E+000	1.25024E-006	0.00000E+000	5.01030E-006	0.00000E+000	7.44974E-004	-3.27687E+002	7	...........
	242	243	4.00745E+000	1.25040E-006	0.00000E+000	5.01091E-006	0.00000E+000	7.43774E-004	-3.27687E+002	7	...........
	243	244	4.00744E+000	1.25052E-006	0.00000E+000	5.01138E-006	0.00000E+000	7.45757E-004	-3.27687E+002	7	...........
	244	245	4.00743E+000	1.25043E-006	0.00000E+000	5.01100E-006	0.00000E+000	7.45924E-004	-3.27687E+002	7	...........
	245	246	4.00742E+000	1.25056E-006	0.00000E+000	5.01154E-006	0.00000E+000	7.44024E-004	-3.27687E+002	7	...........
	246	247	4.00741E+000	1.25081E-006	0.00000E+000	5.01252E-006	0.00000E+000	7.42374E-004	-3.27687E+002	7	...........
	247	248	4.00740E+000	1.25052E-006	0.00000E+000	5.01132E-006	0.00000E+000	7.40974E-004	-3.27687E+002	7	...........
	248	249	4.00739E+000	1.25062E-006	0.00000E+000	5.01170E-006	0.00000E+000	7.45690E-004	-3.27687E+002	7	...........
	249	250	4.00739E+000	1.25108E-006	0.00000E+000	5.01356E-006	0.00000E+000	7.43640E-004	-3.27687E+002	7	...........
	250	251	4.00737E+000	1.25142E-006	0.00000E+000	5.01491E-006	0.00000E+000	7.44957E-004	-3.27687E+002	7	...........
	251	252	4.00736E+000	1.25166E-006	0.00000E+000	5.01583E-006	0.00000E+000	7.43374E-004	-3.27687E+002	7	...........
	252	253	4.00734E+000	1.25118E-006	0.00000E+000	5.01389E-006	0.00000E+000	7.42440E-004	-3.27687E+002	7	...........
	253	254	4.00734E+000	1.25134E-006	0.00000E+000	5.01454E-006	0.00000E+000	7.42257E-004	-3.27687E+002	7	...........
	254	255	4.00732E+000	1.25168E-006	0.00000E+000	5.01587E-006	0.00000E+000	7.41457E-004	-3.27687E+002	7	...........
	255	256	4.00731E+000	1.25211E-006	0.00000E+000	5.01759E-006	0.00000E+000	7.43757E-004	-3.27687E+002	7	...........
	256	257	4.00730E+000	1.25207E-006	0.00000E+000	5.01742E-006	0.00000E+000	7.41574E-004	-3.27687E+002	7	...........
	257	258	4.00729E+000	1.25220E-006	0.00000E+000	5.01795E-006	0.00000E+000	7.40740E-004	-3.27687E+002	7	...........
	258	259	4.00728E+000	1.25204E-006	0.00000E+000	5.01728E-006	0.00000E+000	7.44724E-004	-3.27687E+002	7	...........
	259	260	4.00727E+000	1.25147E-006	0.00000E+000	5.01499E-006	0.00000E+000	7.39907E-004	-3.27687E+002	7	...........
	260	261	4.00727E+000	1.25165E-006	0.00000E+000	5.01569E-006	0.00000E+000	7.42890E-004	-3.27687E+002	7	...........
	261	262	4.00725E+000	1.25170E-006	0.00000E+000	5.01588E-006	0.00000E+000	7.44257E-004	-3.27687E+002	7	...........
	262	263	4.00724E+000	1.25217E-006	0.00000E+000	5.01774E-006	0.00000E+000	7.44074E-004	-3.27687E+002	7	...........
	263	264	4.00722E+000	1.25260E-006	0.00000E+000	5.01944E-006	0.00000E+000	7.42290E-004	-3.27687E+002	7	...........
	264	265	4.00722E+000	1.25354E-006	0.00000E+000	5.02323E-006	0.00000E+000	7.39040E-004	-3.27687E+002	7	...........
	265	266	4.00722E+000	1.25313E-006	0.00000E+000	5.02155E-006	0.00000E+000	7.40240E-004	-3.27687E+002	7	...........
	266	267	4.00719E+000	1.25280E-006	0.00000E+000	5.02020E-006	0.00000E+000	7.40507E-004	-3.27687E+002	7	...........
	267	268	4.00719E+000	1.25321E-006	0.00000E+000	5.02186E-006	0.00000E+000	7.40924E-004	-3.27687E+002	7	...........
	268	269	4.00718E+000	1.25327E-006	0.00000E+000	5.02209E-006	0.00000E+000	7.41024E-004	-3.27687E+002	7	...........
	269	270	4.00717E+000	1.25323E-006	0.00000E+000	5.02191E-006	0.00000E+000	7.43107E-004	-3.27687E+002	7	...........
	270	271	4.00717E+000	1.25313E-006	0.00000E+000	5.02149E-006	0.00000E+000	7.42757E-004	-3.27687E+002	7	...........
	271	272	4.00716E+000	1.25311E-006	0.00000E+000	5.02142E-006	0.00000E+000	7.39607E-004	-3.27687E+002	7	...........
	272	273	4.00714E+000	1.25321E-006	0.00000E+000	5.02181E-006	0.00000E+000	7.41607E-004	-3.27687E+002	7	...........
	273	274	4.00713E+000	1.25309E-006	0.00000E+000	5.02128E-006	0.00000E+000	7.40007E-004	-3.27687E+002	7	...........
	274	275	4.00713E+000	1.25275E-006	0.00000E+000	5.01995E-006	0.00000E+000	7.42140E-004	-3.27687E+002	7	...........
	275	276	4.00713E+000	1.25315E-006	0.00000E+000	5.02152E-006	0.00000E+000	7.40440E-004	-3.27687E+002	7	...........
	276	277	4.00712E+000	1.25324E-006	0.00000E+000	5.02186E-006	0.00000E+000	7.39707E-004	-3.27687E+002	7	...........
	277	278	4.00710E+000	1.25429E-006	0.00000E+000	5.02608E-006	0.00000E+000	7.40207E-004	-3.27687E+002	7	...........
	278	279	4.00710E+000	1.25377E-006	0.00000E+000	5.02399E-006	0.00000E+000	7.43390E-004	-3.27687E+002	7	...........
	279	280	4.00708E+000	1.25375E-006	0.00000E+000	5.02389E-006	0.00000E+000	7.40690E-004	-3.27687E+002	7	...........
	280	281	4.00707E+000	1.25313E-006	0.00000E+000	5.02140E-006	0.00000E+000	7.38857E-004	-3.27687E+002	7	...........
	281	282	4.00706E+000	1.25357E-006	0.00000E+000	5.02312E-006	0.00000E+000	7.42290E-004	-3.27687E+002	7	...........
	282	283	4.00705E+000	1.25339E-006	0.00000E+000	5.02240E-006	0.00000E+000	7.40640E-004	-3.27687E+002	7	...........
	283	284	4.00705E+000	1.25343E-006	0.00000E+000	5.02256E-006	0.00000E+000	7.38157E-004	-3.27687E+002	7	...........
	284	285	4.00704E+000	1.25378E-006	0.00000E+000	5.02393E-006	0.00000E+000	7.43107E-004	-3.27687E+002	7	...........
	285	286	4.00703E+000	1.25336E-006	0.00000E+000	5.02225E-006	0.00000E+000	7.39190E-004	-3.27687E+002	7	...........
	286	287	4.00702E+000	1.25360E-006	0.00000E+000	5.02321E-006	0.00000E+000	7.40707E-004	-3.27687E+002	7	...........
	287	288	4.00701E+000	1.25327E-006	0.00000E+000	5.02189E-006	0.00000E+000	7.40090E-004	-3.27687E+002	7	...........
	288	289	4.00701E+000	1.25385E-006	0.00000E+000	5.02420E-006	0.00000E+000	7.41307E-004	-3.27687E+002	7	...........
	289	290	4.00700E+000	1.25423E-006	0.00000E+000	5.02569E-006	0.00000E+000	7.39657E-004	-3.27687E+002	7	...........
	290	291	4.00699E+000	1.25450E-006	0.00000E+000	5.02676E-006	0.00000E+000	7.40740E-004	-3.27687E+002	7	...........
	291	292	4.00698E+000	1.25408E-006	0.00000E+000	5.02509E-006	0.00000E+000	7.39707E-004	-3.27687E+002	7	...........
	292	293	4.00697E+000	1.25443E-006	0.00000E+000	5.02647E-006	0.00000E+000	7.40990E-004	-3.27687E+002	7	...........
	293	294	4.00696E+000	1.25441E-006	0.00000E+000	5.02635E-006	0.00000E+000	7.38357E-004	-3.27687E+002	7	...........
	294	295	4.00695E+000	1.25452E-006	0.00000E+000	5.02682E-006	0.00000E+000	7.38574E-004	-3.27687E+002	7	...........
	295	296	4.00694E+000	1.25498E-006	0.00000E+000	5.02863E-006	0.00000E+000	7.38224E-004	-3.27687E+002	7	...........
	296	297	4.00693E+000	1.25487E-006	0.00000E+000	5.02820E-006	0.00000E+000	7.38507E-004	-3.27687E+002	7	...........
	297	298	4.00692E+000	1.25450E-006	0.00000E+000	5.02666E-006	0.00000E+000	7.42074E-004	-3.27687E+002	7	...........
	298	299	4.00693E+000	1.25444E-006	0.00000E+000	5.02646E-006	0.00000E+000	7.41957E-004	-3.27687E+002	7	...........
	299	300	4.00691E+000	1.25388E-006	0.00000E+000	5.02418E-006	0.00000E+000	7.39707E-004	-3.27687E+002	7	...........
	300	301	4.00691E+000	1.25447E-006	0.00000E+000	5.02654E-006	0.00000E+000	7.40907E-004	-3.27687E+002	7	...........
	301	302	4.00690E+000	1.25395E-006	0.00000E+000	5.02447E-006	0.00000E+000	7.41624E-004	-3.27687E+002	7	...........
	302	303	4.00689E+000	1.25410E-006	0.00000E+000	5.02505E-006	0.00000E+000	7.41057E-004	-3.27687E+002	7	...........
	303	304	4.00688E+000	1.25476E-006	0.00000E+000	5.02766E-006	0.00000E+000	7.40224E-004	-3.27687E+002	7	...........
	304	305	4.00687E+000	1.25539E-006	0.00000E+000	5.03018E-006	0.00000E+000	7.38990E-004	-3.27687E+002	7	...........
	305	306	4.00687E+000	1.25433E-006	0.00000E+000	5.02592E-006	0.00000E+000	7.40890E-004	-3.27687E+002	7	...........
	306	307	4.00685E+000	1.25482E-006	0.00000E+000	5.02789E-006	0.00000E+000	7.41890E-004	-3.27687E+002	7	...........
	307	308	4.00685E+000	1.25410E-006	0.00000E+000	5.02499E-006	0.00000E+000	7.42240E-004	-3.27687E+002	7	...........
	308	309	4.00684E+000	1.25436E-006	0.00000E+000	5.02602E-006	0.00000E+000	7.42590E-004	-3.27687E+002	7	...........
	309	310	4.00682E+000	1.25389E-006	0.00000E+000	5.02414E-006	0.00000E+000	7.42790E-004	-3.27687E+002	7	...........
	310	311	4.00682E+000	1.25442E-006	0.00000E+000	5.02622E-006	0.00000E+000	7.40874E-004	-3.27687E+002	7	...........
	311	312	4.00682E+000	1.25478E-006	0.00000E+000	5.02767E-006	0.00000E+000	7.42024E-004	-3.27687E+002	7	...........
	312	313	4.00681E+000	1.25428E-006	0.00000E+000	5.02565E-006	0.00000E+000	7.42307E-004	-3.27687E+002	7	...........
	313	314	4.00681E+000	1.25484E-006	0.00000E+000	5.02791E-006	0.00000E+000	7.41057E-004	-3.27687E+002	7	...........
	314	315	4.00679E+000	1.25425E-006	0.00000E+000	5.02552E-006	0.00000E+000	7.41907E-004	-3.27687E+002	7	...........
	315	316	4.00679E+000	1.25447E-006	0.00000E+000	5.02637E-006	0.00000E+000	7.39657E-004	-3.27687E+002	7	...........
	316	317	4.00678E+000	1.25419E-006	0.00000E+000	5.02527E-006	0.00000E+000	7.40340E-004	-3.27687E+002	7	...........
	317	318	4.00677E+000	1.25446E-006	0.00000E+000	5.02634E-006	0.00000E+000	7.43174E-004	-3.27687E+002	7	...........
	318	319	4.00676E+000	1.25437E-006	0.00000E+000	5.02598E-006	0.00000E+000	7.42357E-004	-3.27687E+002	7	...........
	319	320	4.00676E+000	1.25407E-006	0.00000E+000	5.02477E-006	0.00000E+000	7.42240E-004	-3.27687E+002	7	...........
	320	321	4.00674E+000	1.25387E-006	0.00000E+000	5.02393E-006	0.00000E+000	7.42090E-004	-3.27687E+002	7	...........
	321	322	4.00674E+000	1.25396E-006	0.00000E+000	5.02429E-006	0.00000E+000	7.44474E-004	-3.27687E+002	7	...........
	322	323	4.00673E+000	1.25424E-006	0.00000E+000	5.02542E-006	0.00000E+000	7.43290E-004	-3.27687E+002	7	...........
	323	324	4.00672E+000	1.25435E-006	0.00000E+000	5.02583E-006	0.00000E+000	7.41507E-004	-3.27687E+002	7	...........
	324	325	4.00671E+000	1.25385E-006	0.00000E+000	5.02382E-006	0.00000E+000	7.43540E-004	-3.27687E+002	7	...........
	325	326	4.00670E+000	1.25374E-006	0.00000E+000	5.02337E-006	0.00000E+000	7.41890E-004	-3.27687E+002	7	...........
	326	327	4.00670E+000	1.25295E-006	0.00000E+000	5.02018E-006	0.00000E+000	7.42140E-004	-3.27687E+002	7	...........
	327	328	4.00669E+000	1.25355E-006	0.00000E+000	5.02259E-006	0.00000E+000	7.40990E-004	-3.27687E+002	7	...........
	328	329	4.00667E+000	1.25313E-006	0.00000E+000	5.02089E-006	0.00000E+000	7.39807E-004	-3.27687E+002	7	...........
	329	330	4.00666E+000	1.25364E-006	0.00000E+000	5.02290E-006	0.00000E+000	7.42340E-004	-3.27687E+002	7	...........
	330	331	4.00666E+000	1.25393E-006	0.00000E+000	5.02406E-006	0.00000E+000	7.42240E-004	-3.27687E+002	7	...........
	331	332	4.00665E+000	1.25320E-006	0.00000E+000	5.02115E-006	0.00000E+000	7.41774E-004	-3.27687E+002	7	...........
	332	333	4.00664E+000	1.25300E-006	0.00000E+000	5.02031E-006	0.00000E+000	7.45174E-004	-3.27687E+002	7	...........
	333	334	4.00664E+000	1.25304E-006	0.00000E+000	5.02046E-006	0.00000E+000	7.44174E-004	-3.27687E+002	7	...........
	334	335	4.00662E+000	1.25355E-006	0.00000E+000	5.02251E-006	0.00000E+000	7.42807E-004	-3.27687E+002	7	...........
	335	336	4.00662E+000	1.25361E-006	0.00000E+000	5.02274E-006	0.00000E+000	7.42390E-004	-3.27687E+002	7	...........
	336	337	4.00662E+000	1.25319E-006	0.00000E+000	5.02103E-006	0.00000E+000	7.41307E-004	-3.27687E+002	7	...........
	337	338	4.00661E+000	1.25365E-006	0.00000E+000	5.02288E-006	0.00000E+000	7.43407E-004	-3.27687E+002	7	...........
	338	339	4.00661E+000	1.25342E-006	0.00000E+000	5.02195E-006	0.00000E+000	7.44540E-004	-3.27687E+002	7	...........
	339	340	4.00659E+000	1.25332E-006	0.00000E+000	5.02154E-006	0.00000E+000	7.43740E-004	-3.27687E+002	7	...........
	340	341	4.00658E+000	1.25255E-006	0.00000E+000	5.01844E-006	0.00000E+000	7.46340E-004	-3.27687E+002	7	...........
	341	342	4.00658E+000	1.25342E-006	0.00000E+000	5.02194E-006	0.00000E+000	7.45440E-004	-3.27687E+002	7	...........
	342	343	4.00657E+000	1.25341E-006	0.00000E+000	5.02186E-006	0.00000E+000	7.44557E-004	-3.27687E+002	7	...........
	343	344	4.00656E+000	1.25430E-006	0.00000E+000	5.02544E-006	0.00000E+000	7.44390E-004	-3.27687E+002	7	...........
	344	345	4.00655E+000	1.25331E-006	0.00000E+000	5.02144E-006	0.00000E+000	7.46240E-004	-3.27687E+002	7	...........
	345	346	4.00654E+000	1.25325E-006	0.00000E+000	5.02119E-006	0.00000E+000	7.45324E-004	-3.27687E+002	7	...........
	346	347	4.00653E+000	1.25348E-006	0.00000E+000	5.02212E-006	0.00000E+000	7.45257E-004	-3.27687E+002	7	...........
	347	348	4.00651E+000	1.25371E-006	0.00000E+000	5.02301E-006	0.00000E+000	7.46340E-004	-3.27687E+002	7	...........
	348	349	4.00650E+000	1.25355E-006	0.00000E+000	5.02235E-006	0.00000E+000	7.49607E-004	-3.27687E+002	7	...........
	349	350	4.00649E+000	1.25335E-006	0.00000E+000	5.02152E-006	0.00000E+000	7.46524E-004	-3.27687E+002	7	...........
	350	351	4.00648E+000	1.25361E-006	0.00000E+000	5.02259E-006	0.00000E+000	7.49107E-004	-3.27687E+002	7	...........
	351	352	4.00648E+000	1.25380E-006	0.00000E+000	5.02332E-006	0.00000E+000	7.48340E-004	-3.27687E+002	7	...........
	352	353	4.00648E+000	1.25318E-006	0.00000E+000	5.02084E-006	0.00000E+000	7.47424E-004	-3.27687E+002	7	...........
	353	354	4.00646E+000	1.25236E-006	0.00000E+000	5.01751E-006	0.00000E+000	7.48357E-004	-3.27687E+002	7	...........
	354	355	4.00646E+000	1.25287E-006	0.00000E+000	5.01957E-006	0.00000E+000	7.48990E-004	-3.27687E+002	7	...........
	355	356	4.00645E+000	1.25293E-006	0.00000E+000	5.01980E-006	0.00000E+000	7.46307E-004	-3.27687E+002	7	...........
	356	357	4.00644E+000	1.25385E-006	0.00000E+000	5.02349E-006	0.00000E+000	7.49290E-004	-3.27687E+002	7	...........
	357	358	4.00644E+000	1.25310E-006	0.00000E+000	5.02049E-006	0.00000E+000	7.48074E-004	-3.27687E+002	7	...........
	358	359	4.00644E+000	1.25265E-006	0.00000E+000	5.01867E-006	0.00000E+000	7.48407E-004	-3.27687E+002	7	...........
	359	360	4.00642E+000	1.25316E-006	0.00000E+000	5.02068E-006	0.00000E+000	7.45424E-004	-3.27687E+002	7	...........
	360	361	4.00641E+000	1.25344E-006	0.00000E+000	5.02181E-006	0.00000E+000	7.46474E-004	-3.27687E+002	7	...........
	361	362	4.00640E+000	1.25379E-006	0.00000E+000	5.02317E-006	0.00000E+000	7.46857E-004	-3.27687E+002	7	...........
	362	363	4.00639E+000	1.25405E-006	0.00000E+000	5.02423E-006	0.00000E+000	7.49640E-004	-3.27687E+002	7	...........
	363	364	4.00639E+000	1.25349E-006	0.00000E+000	5.02195E-006	0.00000E+000	7.49440E-004	-3.27687E+002	7	...........
	364	365	4.00639E+000	1.25359E-006	0.00000E+000	5.02238E-006	0.00000E+000	7.47174E-004	-3.27687E+002	7	...........
	365	366	4.00636E+000	1.25336E-006	0.00000E+000	5.02142E-006	0.00000E+000	7.48024E-004	-3.27687E+002	7	...........
	366	367	4.00636E+000	1.25325E-006	0.00000E+000	5.02097E-006	0.00000E+000	7.48157E-004	-3.27687E+002	7	...........
	367	368	4.00635E+000	1.25336E-006	0.00000E+000	5.02138E-006	0.00000E+000	7.47940E-004	-3.27687E+002	7	...........
	368	369	4.00633E+000	1.25342E-006	0.00000E+000	5.02161E-006	0.00000E+000	7.48124E-004	-3.27687E+002	7	...........
	369	370	4.00633E+000	1.25347E-006	0.00000E+000	5.02182E-006	0.00000E+000	7.47457E-004	-3.27687E+002	7	...........
	370	371	4.00633E+000	1.25361E-006	0.00000E+000	5.02237E-006	0.00000E+000	7.47840E-004	-3.27687E+002	7	...........
	371	372	4.00631E+000	1.25353E-006	0.00000E+000	5.02203E-006	0.00000E+000	7.45874E-004	-3.27687E+002	7	...........
	372	373	4.00631E+000	1.25360E-006	0.00000E+000	5.02230E-006	0.00000E+000	7.46090E-004	-3.27687E+002	7	...........
	373	374	4.00630E+000	1.25353E-006	0.00000E+000	5.02202E-006	0.00000E+000	7.49290E-004	-3.27687E+002	7	...........
	374	375	4.00628E+000	1.25422E-006	0.00000E+000	5.02476E-006	0.00000E+000	7.48474E-004	-3.27687E+002	7	...........
	375	376	4.00627E+000	1.25434E-006	0.00000E+000	5.02524E-006	0.00000E+000	7.46240E-004	-3.27687E+002	7	...........
	376	377	4.00625E+000	1.25426E-006	0.00000E+000	5.02487E-006	0.00000E+000	7.47140E-004	-3.27687E+002	7	...........
	377	378	4.00625E+000	1.25438E-006	0.00000E+000	5.02536E-006	0.00000E+000	7.47424E-004	-3.27687E+002	7	...........
	378	379	4.00624E+000	1.25384E-006	0.00000E+000	5.02320E-006	0.00000E+000	7.47124E-004	-3.27687E+002	7	...........
	379	380	4.00624E+000	1.25394E-006	0.00000E+000	5.02359E-006	0.00000E+000	7.47240E-004	-3.27687E+002	7	...........
	380	381	4.00622E+000	1.25382E-006	0.00000E+000	5.02309E-006	0.00000E+000	7.47374E-004	-3.27687E+002	7	...........
	381	382	4.00622E+000	1.25377E-006	0.00000E+000	5.02288E-006	0.00000E+000	7.46440E-004	-3.27687E+002	7	...........
	382	383	4.00622E+000	1.25392E-006	0.00000E+000	5.02347E-006	0.00000E+000	7.50490E-004	-3.27687E+002	7	...........
	383	384	4.00622E+000	1.25436E-006	0.00000E+000	5.02523E-006	0.00000E+000	7.48590E-004	-3.27687E+002	7	...........
	384	385	4.00620E+000	1.25371E-006	0.00000E+000	5.02260E-006	0.00000E+000	7.48657E-004	-3.27687E+002	7	...........
	385	386	4.00619E+000	1.25409E-006	0.00000E+000	5.02414E-006	0.00000E+000	7.48274E-004	-3.27687E+002	7	...........
	386	387	4.00619E+000	1.25396E-006	0.00000E+000	5.02359E-006	0.00000E+000	7.47457E-004	-3.27687E+002	7	...........
	387	388	4.00617E+000	1.25405E-006	0.00000E+000	5.02395E-006	0.00000E+000	7.47490E-004	-3.27687E+002	7	...........
	388	389	4.00617E+000	1.25409E-006	0.00000E+000	5.02409E-006	0.00000E+000	7.47190E-004	-3.27687E+002	7	...........
	389	390	4.00617E+000	1.25383E-006	0.00000E+000	5.02305E-006	0.00000E+000	7.48757E-004	-3.27687E+002	7	...........
	390	391	4.00614E+000	1.25374E-006	0.00000E+000	5.02268E-006	0.00000E+000	7.49207E-004	-3.27687E+002	7	...........
	391	392	4.00614E+000	1.25339E-006	0.00000E+000	5.02128E-006	0.00000E+000	7.49740E-004	-3.27687E+002	7	...........
	392	393	4.00614E+000	1.25280E-006	0.00000E+000	5.01889E-006	0.00000E+000	7.47290E-004	-3.27687E+002	7	...........
	393	394	4.00613E+000	1.25263E-006	0.00000E+000	5.01818E-006	0.00000E+000	7.47907E-004	-3.27687E+002	7	...........
	394	395	4.00614E+000	1.25318E-006	0.00000E+000	5.02042E-006	0.00000E+000	7.50040E-004	-3.27687E+002	7	...........
	395	396	4.00612E+000	1.25347E-006	0.00000E+000	5.02156E-006	0.00000E+000	7.47740E-004	-3.27687E+002	7	...........
	396	397	4.00611E+000	1.25372E-006	0.00000E+000	5.02256E-006	0.00000E+000	7.48540E-004	-3.27687E+002	7	...........
	397	398	4.00610E+000	1.25309E-006	0.00000E+000	5.02001E-006	0.00000E+000	7.48357E-004	-3.27687E+002	7	...........
	398	399	4.00610E+000	1.25353E-006	0.00000E+000	5.02177E-006	0.00000E+000	7.47840E-004	-3.27687E+002	7	...........
	399	400	4.00608E+000	1.25338E-006	0.00000E+000	5.02114E-006	0.00000E+000	7.47540E-004	-3.27687E+002	7	...........
	400	401	4.00608E+000	1.25383E-006	0.00000E+000	5.02296E-006	0.00000E+000	7.48840E-004	-3.27687E+002	7	...........
	401	402	4.00606E+000	1.25369E-006	0.00000E+000	5.02235E-006	0.00000E+000	7.48674E-004	-3.27687E+002	7	...........
	402	403	4.00606E+000	1.25380E-006	0.00000E+000	5.02280E-006	0.00000E+000	7.49690E-004	-3.27687E+002	7	...........
	403	404	4.00606E+000	1.25423E-006	0.00000E+000	5.02450E-006	0.00000E+000	7.48607E-004	-3.27687E+002	7	...........
	404	405	4.00604E+000	1.25389E-006	0.00000E+000	5.02315E-006	0.00000E+000	7.50290E-004	-3.27687E+002	7	...........
	405	406	4.00603E+000	1.25346E-006	0.00000E+000	5.02139E-006	0.00000E+000	7.53240E-004	-3.27687E+002	7	...........
	406	407	4.00603E+000	1.25335E-006	0.00000E+000	5.02094E-006	0.00000E+000	7.49857E-004	-3.27687E+002	7	...........
	407	408	4.00602E+000	1.25330E-006	0.00000E+000	5.02073E-006	0.00000E+000	7.50007E-004	-3.27687E+002	7	...........
	408	409	4.00602E+000	1.25348E-006	0.00000E+000	5.02145E-006	0.00000E+000	7.48474E-004	-3.27687E+002	7	...........
	409	410	4.00602E+000	1.25390E-006	0.00000E+000	5.02316E-006	0.00000E+000	7.50207E-004	-3.27687E+002	7	...........
	410	411	4.00601E+000	1.25399E-006	0.00000E+000	5.02350E-006	0.00000E+000	7.49557E-004	-3.27687E+002	7	...........
	411	412	4.00600E+000	1.25320E-006	0.00000E+000	5.02034E-006	0.00000E+000	7.49657E-004	-3.27687E+002	7	...........
	412	413	4.00599E+000	1.25327E-006	0.00000E+000	5.02058E-006	0.00000E+000	7.47490E-004	-3.27687E+002	7	...........
	413	414	4.00598E+000	1.25336E-006	0.00000E+000	5.02095E-006	0.00000E+000	7.46274E-004	-3.27687E+002	7	...........
	414	415	4.00597E+000	1.25354E-006	0.00000E+000	5.02164E-006	0.00000E+000	7.49474E-004	-3.27687E+002	7	...........
	415	416	4.00597E+000	1.25368E-006	0.00000E+000	5.02219E-006	0.00000E+000	7.47890E-004	-3.27687E+002	7	...........
	416	417	4.00597E+000	1.25360E-006	0.00000E+000	5.02190E-006	0.00000E+000	7.47274E-004	-3.27687E+002	7	...........
	417	418	4.00595E+000	1.25382E-006	0.00000E+000	5.02275E-006	0.00000E+000	7.48690E-004	-3.27687E+002	7	...........
	418	419	4.00593E+000	1.25363E-006	0.00000E+000	5.02196E-006	0.00000E+000	7.46290E-004	-3.27687E+002	7	...........
	419	420	4.00594E+000	1.25326E-006	0.00000E+000	5.02050E-006	0.00000E+000	7.47107E-004	-3.27687E+002	7	...........
	420	421	4.00594E+000	1.25376E-006	0.00000E+000	5.02249E-006	0.00000E+000	7.47907E-004	-3.27687E+002	7	...........
	421	422	4.00593E+000	1.25397E-006	0.00000E+000	5.02330E-006	0.00000E+000	7.47940E-004	-3.27687E+002	7	...........
	422	423	4.00592E+000	1.25443E-006	0.00000E+000	5.02514E-006	0.00000E+000	7.47390E-004	-3.27687E+002	7	...........
	423	424	4.00592E+000	1.25467E-006	0.00000E+000	5.02609E-006	0.00000E+000	7.48757E-004	-3.27687E+002	7	...........
	424	425	4.00591E+000	1.25409E-006	0.00000E+000	5.02377E-006	0.00000E+000	7.47874E-004	-3.27687E+002	7	...........
	425	426	4.00590E+000	1.25451E-006	0.00000E+000	5.02543E-006	0.00000E+000	7.45524E-004	-3.27687E+002	7	...........
	426	427	4.00591E+000	1.25482E-006	0.00000E+000	5.02668E-006	0.00000E+000	7.45574E-004	-3.27687E+002	7	...........
	427	428	4.00589E+000	1.25429E-006	0.00000E+000	5.02457E-006	0.00000E+000	7.44574E-004	-3.27687E+002	7	...........
	428	429	4.00589E+000	1.25465E-006	0.00000E+000	5.02597E-006	0.00000E+000	7.47574E-004	-3.27687E+002	7	...........
	429	430	4.00587E+000	1.25473E-006	0.00000E+000	5.02631E-006	0.00000E+000	7.46557E-004	-3.27687E+002	7	...........
	430	431	4.00588E+000	1.25542E-006	0.00000E+000	5.02905E-006	0.00000E+000	7.48790E-004	-3.27687E+002	7	...........
	431	432	4.00588E+000	1.25466E-006	0.00000E+000	5.02602E-006	0.00000E+000	7.46457E-004	-3.27687E+002	7	...........
	432	433	4.00587E+000	1.25464E-006	0.00000E+000	5.02594E-006	0.00000E+000	7.46157E-004	-3.27687E+002	7	...........
	433	434	4.00585E+000	1.25485E-006	0.00000E+000	5.02675E-006	0.00000E+000	7.46774E-004	-3.27687E+002	7	...........
	434	435	4.00585E+000	1.25515E-006	0.00000E+000	5.02796E-006	0.00000E+000	7.46374E-004	-3.27687E+002	7	...........
	435	436	4.00583E+000	1.25545E-006	0.00000E+000	5.02914E-006	0.00000E+000	7.45957E-004	-3.27687E+002	7	...........
	436	437	4.00584E+000	1.25646E-006	0.00000E+000	5.03319E-006	0.00000E+000	7.45657E-004	-3.27687E+002	7	...........
	437	438	4.00583E+000	1.25584E-006	0.00000E+000	5.03066E-006	0.00000E+000	7.47574E-004	-3.27687E+002	7	...........
	438	439	4.00582E+000	1.25563E-006	0.00000E+000	5.02983E-006	0.00000E+000	7.48290E-004	-3.27687E+002	7	...........
	439	440	4.00581E+000	1.25603E-006	0.00000E+000	5.03144E-006	0.00000E+000	7.47940E-004	-3.27687E+002	7	...........
	440	441	4.00581E+000	1.25664E-006	0.00000E+000	5.03387E-006	0.00000E+000	7.48690E-004	-3.27687E+002	7	...........
	441	442	4.00581E+000	1.25605E-006	0.00000E+000	5.03151E-006	0.00000E+000	7.45024E-004	-3.27687E+002	7	...........
	442	443	4.00580E+000	1.25621E-006	0.00000E+000	5.03214E-006	0.00000E+000	7.45724E-004	-3.27687E+002	7	...........
	443	444	4.00580E+000	1.25594E-006	0.00000E+000	5.03103E-006	0.00000E+000	7.47057E-004	-3.27687E+002	7	...........
	444	445	4.00579E+000	1.25584E-006	0.00000E+000	5.03062E-006	0.00000E+000	7.45774E-004	-3.27687E+002	7	...........
	445	446	4.00579E+000	1.25590E-006	0.00000E+000	5.03087E-006	0.00000E+000	7.43057E-004	-3.27687E+002	7	...........
	446	447	4.00578E+000	1.25561E-006	0.00000E+000	5.02969E-006	0.00000E+000	7.46724E-004	-3.27687E+002	7	...........
	447	448	4.00578E+000	1.25634E-006	0.00000E+000	5.03264E-006	0.00000E+000	7.45374E-004	-3.27687E+002	7	...........
	448	449	4.00578E+000	1.25618E-006	0.00000E+000	5.03198E-006	0.00000E+000	7.43374E-004	-3.27687E+002	7	...........
	449	450	4.00577E+000	1.25686E-006	0.00000E+000	5.03467E-006	0.00000E+000	7.44140E-004	-3.27687E+002	7	...........
	450	451	4.00576E+000	1.25591E-006	0.00000E+000	5.03087E-006	0.00000E+000	7.43107E-004	-3.27687E+002	7	...........
	451	452	4.00576E+000	1.25597E-006	0.00000E+000	5.03109E-006	0.00000E+000	7.44507E-004	-3.27687E+002	7	...........
	452	453	4.00574E+000	1.25620E-006	0.00000E+000	5.03203E-006	0.00000E+000	7.42840E-004	-3.27687E+002	7	...........
	453	454	4.00574E+000	1.25655E-006	0.00000E+000	5.03341E-006	0.00000E+000	7.44874E-004	-3.27687E+002	7	...........
	454	455	4.00574E+000	1.25662E-006	0.00000E+000	5.03368E-006	0.00000E+000	7.44390E-004	-3.27687E+002	7	...........
	455	456	4.00572E+000	1.25650E-006	0.00000E+000	5.03318E-006	0.00000E+000	7.43024E-004	-3.27687E+002	7	...........
	456	457	4.00573E+000	1.25602E-006	0.00000E+000	5.03127E-006	0.00000E+000	7.44607E-004	-3.27687E+002	7	...........
	457	458	4.00572E+000	1.25651E-006	0.00000E+000	5.03322E-006	0.00000E+000	7.44124E-004	-3.27687E+002	7	...........
	458	459	4.00571E+000	1.25668E-006	0.00000E+000	5.03389E-006	0.00000E+000	7.41190E-004	-3.27687E+002	7	...........
	459	460	4.00571E+000	1.25667E-006	0.00000E+000	5.03386E-006	0.00000E+000	7.44040E-004	-3.27687E+002	7	...........
	460	461	4.00570E+000	1.25658E-006	0.00000E+000	5.03347E-006	0.00000E+000	7.44474E-004	-3.27687E+002	7	...........
	461	462	4.00570E+000	1.25638E-006	0.00000E+000	5.03267E-006	0.00000E+000	7.41407E-004	-3.27687E+002	7	...........
	462	463	4.00569E+000	1.25701E-006	0.00000E+000	5.03522E-006	0.00000E+000	7.43257E-004	-3.27687E+002	7	...........
	463	464	4.00569E+000	1.25672E-006	0.00000E+000	5.03402E-006	0.00000E+000	7.41874E-004	-3.27687E+002	7	...........
	464	465	4.00569E+000	1.25662E-006	0.00000E+000	5.03361E-006	0.00000E+000	7.44307E-004	-3.27687E+002	7	...........
	465	466	4.00568E+000	1.25634E-006	0.00000E+000	5.03251E-006	0.00000E+000	7.42740E-004	-3.27687E+002	7	...........
	466	467	4.00567E+000	1.25653E-006	0.00000E+000	5.03326E-006	0.00000E+000	7.43107E-004	-3.27687E+002	7	...........
	467	468	4.00566E+000	1.25644E-006	0.00000E+000	5.03289E-006	0.00000E+000	7.45607E-004	-3.27687E+002	7	...........
	468	469	4.00566E+000	1.25606E-006	0.00000E+000	5.03136E-006	0.00000E+000	7.45174E-004	-3.27687E+002	7	...........
	469	470	4.00566E+000	1.25657E-006	0.00000E+000	5.03339E-006	0.00000E+000	7.43107E-004	-3.27687E+002	7	...........
	470	471	4.00566E+000	1.25625E-006	0.00000E+000	5.03211E-006	0.00000E+000	7.42757E-004	-3.27687E+002	7	...........
	471	472	4.00565E+000	1.25622E-006	0.00000E+000	5.03199E-006	0.00000E+000	7.43790E-004	-3.27687E+002	7	...........
	472	473	4.00565E+000	1.25597E-006	0.00000E+000	5.03095E-006	0.00000E+000	7.41724E-004	-3.27687E+002	7	...........
	473	474	4.00564E+000	1.25628E-006	0.00000E+000	5.03223E-006	0.00000E+000	7.42307E-004	-3.27687E+002	7	...........
	474	475	4.00563E+000	1.25631E-006	0.00000E+000	5.03230E-006	0.00000E+000	7.43990E-004	-3.27687E+002	7	...........
	475	476	4.00563E+000	1.25700E-006	0.00000E+000	5.03505E-006	0.00000E+000	7.42724E-004	-3.27687E+002	7	...........
	476	477	4.00563E+000	1.25702E-006	0.00000E+000	5.03516E-006	0.00000E+000	7.42440E-004	-3.27687E+002	7	...........
	477	478	4.00562E+000	1.25653E-006	0.00000E+000	5.03319E-006	0.00000E+000	7.42190E-004	-3.27687E+002	7	...........
	478	479	4.00562E+000	1.25622E-006	0.00000E+000	5.03195E-006	0.00000E+000	7.43407E-004	-3.27687E+002	7	...........
	479	480	4.00562E+000	1.25714E-006	0.00000E+000	5.03560E-006	0.00000E+000	7.44457E-004	-3.27687E+002	7	...........
	480	481	4.00561E+000	1.25722E-006	0.00000E+000	5.03595E-006	0.00000E+000	7.44924E-004	-3.27687E+002	7	...........
	481	482	4.00562E+000	1.25706E-006	0.00000E+000	5.03531E-006	0.00000E+000	7.42607E-004	-3.27687E+002	7	...........
	482	483	4.00561E+000	1.25675E-006	0.00000E+000	5.03403E-006	0.00000E+000	7.42990E-004	-3.27687E+002	7	...........
	483	484	4.00561E+000	1.25685E-006	0.00000E+000	5.03443E-006	0.00000E+000	7.42174E-004	-3.27687E+002	7	...........
	484	485	4.00560E+000	1.25634E-006	0.00000E+000	5.03239E-006	0.00000E+000	7.43424E-004	-3.27687E+002	7	...........
	485	486	4.00559E+000	1.25642E-006	0.00000E+000	5.03270E-006	0.00000E+000	7.43474E-004	-3.27687E+002	7	...........
	486	487	4.00558E+000	1.25619E-006	0.00000E+000	5.03177E-006	0.00000E+000	7.45074E-004	-3.27687E+002	7	...........
	487	488	4.00558E+000	1.25640E-006	0.00000E+000	5.03260E-006	0.00000E+000	7.43107E-004	-3.27687E+002	7	...........
	488	489	4.00558E+000	1.25671E-006	0.00000E+000	5.03384E-006	0.00000E+000	7.43307E-004	-3.27687E+002	7	...........
	489	490	4.00558E+000	1.25710E-006	0.00000E+000	5.03539E-006	0.00000E+000	7.41274E-004	-3.27687E+002	7	...........
	490	491	4.00557E+000	1.25628E-006	0.00000E+000	5.03211E-006	0.00000E+000	7.41074E-004	-3.27687E+002	7	...........
	491	492	4.00557E+000	1.25640E-006	0.00000E+000	5.03260E-006	0.00000E+000	7.42390E-004	-3.27687E+002	7	...........
	492	493	4.00556E+000	1.25657E-006	0.00000E+000	5.03326E-006	0.00000E+000	7.43540E-004	-3.27687E+002	7	...........
	493	494	4.00556E+000	1.25669E-006	0.00000E+000	5.03376E-006	0.00000E+000	7.42457E-004	-3.27687E+002	7	...........
	494	495	4.00556E+000	1.25737E-006	0.00000E+000	5.03648E-006	0.00000E+000	7.41074E-004	-3.27687E+002	7	...........
	495	496	4.00555E+000	1.25717E-006	0.00000E+000	5.03567E-006	0.00000E+000	7.42624E-004	-3.27687E+002	7	...........
	496	497	4.00555E+000	1.25708E-006	0.00000E+000	5.03531E-006	0.00000E+000	7.43107E-004	-3.27687E+002	7	...........
	497	498	4.00555E+000	1.25704E-006	0.00000E+000	5.03514E-006	0.00000E+000	7.39907E-004	-3.27687E+002	7	...........
	498	499	4.00554E+000	1.25682E-006	0.00000E+000	5.03426E-006	0.00000E+000	7.41540E-004	-3.27687E+002	7	...........
	499	500	4.00554E+000	1.25641E-006	0.00000E+000	5.03261E-006	0.00000E+000	7.40390E-004	-3.27687E+002	7	...........
	500	501	4.00552E+000	1.25607E-006	0.00000E+000	5.03123E-006	0.00000E+000	7.41707E-004	-3.27687E+002	7	...........
	501	502	4.00552E+000	1.25629E-006	0.00000E+000	5.03207E-006	0.00000E+000	7.40640E-004	-3.27687E+002	7	...........
	502	503	4.00551E+000	1.25663E-006	0.00000E+000	5.03346E-006	0.00000E+000	7.40990E-004	-3.27687E+002	7	...........
	503	504	4.00551E+000	1.25620E-006	0.00000E+000	5.03173E-006	0.00000E+000	7.43424E-004	-3.27687E+002	7	...........
	504	505	4.00551E+000	1.25668E-006	0.00000E+000	5.03364E-006	0.00000E+000	7.41374E-004	-3.27687E+002	7	...........
	505	506	4.00551E+000	1.25644E-006	0.00000E+000	5.03269E-006	0.00000E+000	7.40624E-004	-3.27687E+002	7	...........
	506	507	4.00550E+000	1.25676E-006	0.00000E+000	5.03395E-006	0.00000E+000	7.41757E-004	-3.27687E+002	7	...........
	507	508	4.00550E+000	1.25663E-006	0.00000E+000	5.03344E-006	0.00000E+000	7.42324E-004	-3.27687E+002	7	...........
	508	509	4.00549E+000	1.25605E-006	0.00000E+000	5.03109E-006	0.00000E+000	7.39740E-004	-3.27687E+002	7	...........
	509	510	4.00549E+000	1.25650E-006	0.00000E+000	5.03291E-006	0.00000E+000	7.41657E-004	-3.27687E+002	7	...........
	510	511	4.00549E+000	1.25635E-006	0.00000E+000	5.03229E-006	0.00000E+000	7.39140E-004	-3.27687E+002	7	...........
	511	512	4.00549E+000	1.25623E-006	0.00000E+000	5.03181E-006	0.00000E+000	7.41457E-004	-3.27687E+002	7	...........
	512	513	4.00549E+000	1.25576E-006	0.00000E+000	5.02994E-006	0.00000E+000	7.41824E-004	-3.27687E+002	7	...........
	513	514	4.00548E+000	1.25592E-006	0.00000E+000	5.03055E-006	0.00000E+000	7.40490E-004	-3.27687E+002	7	...........
	514	515	4.00548E+000	1.25656E-006	0.00000E+000	5.03312E-006	0.00000E+000	7.41690E-004	-3.27687E+002	7	...........
	515	516	4.00547E+000	1.25739E-006	0.00000E+000	5.03646E-006	0.00000E+000	7.42090E-004	-3.27687E+002	7	...........
	516	517	4.00547E+000	1.25682E-006	0.00000E+000	5.03417E-006	0.00000E+000	7.41407E-004	-3.27687E+002	7	...........
	517	518	4.00546E+000	1.25657E-006	0.00000E+000	5.03314E-006	0.00000E+000	7.41074E-004	-3.27687E+002	7	...........
	518	519	4.00547E+000	1.25690E-006	0.00000E+000	5.03445E-006	0.00000E+000	7.42207E-004	-3.27687E+002	7	...........
	519	520	4.00546E+000	1.25744E-006	0.00000E+000	5.03664E-006	0.00000E+000	7.41557E-004	-3.27687E+002	7	...........
	520	521	4.00546E+000	1.25752E-006	0.00000E+000	5.03693E-006	0.00000E+000	7.41657E-004	-3.27687E+002	7	...........
	521	522	4.00546E+000	1.25737E-006	0.00000E+000	5.03634E-006	0.00000E+000	7.43607E-004	-3.27687E+002	7	...........
	522	523	4.00545E+000	1.25711E-006	0.00000E+000	5.03529E-006	0.00000E+000	7.42540E-004	-3.27687E+002	7	...........
	523	524	4.00545E+000	1.25707E-006	0.00000E+000	5.03511E-006	0.00000E+000	7.41340E-004	-3.27687E+002	7	...........
	524	525	4.00545E+000	1.25695E-006	0.00000E+000	5.03464E-006	0.00000E+000	7.41124E-004	-3.27687E+002	7	...........
	525	526	4.00544E+000	1.25695E-006	0.00000E+000	5.03465E-006	0.00000E+000	7.39524E-004	-3.27687E+002	7	...........
	526	527	4.00545E+000	1.25711E-006	0.00000E+000	5.03529E-006	0.00000E+000	7.41490E-004	-3.27687E+002	7	...........
	527	528	4.00543E+000	1.25709E-006	0.00000E+000	5.03520E-006	0.00000E+000	7.39674E-004	-3.27687E+002	7	...........
	528	529	4.00544E+000	1.25765E-006	0.00000E+000	5.03743E-006	0.00000E+000	7.39507E-004	-3.27687E+002	7	...........
	529	530	4.00543E+000	1.25759E-006	0.00000E+000	5.03720E-006	0.00000E+000	7.43740E-004	-3.27687E+002	7	...........
	530	531	4.00542E+000	1.25776E-006	0.00000E+000	5.03784E-006	0.00000E+000	7.39957E-004	-3.27687E+002	7	...........
	531	532	4.00541E+000	1.25778E-006	0.00000E+000	5.03794E-006	0.00000E+000	7.39840E-004	-3.27687E+002	7	...........
	532	533	4.00541E+000	1.25750E-006	0.00000E+000	5.03680E-006	0.00000E+000	7.39307E-004	-3.27687E+002	7	...........
	533	534	4.00541E+000	1.25751E-006	0.00000E+000	5.03685E-006	0.00000E+000	7.41740E-004	-3.27687E+002	7	...........
	534	535	4.00541E+000	1.25724E-006	0.00000E+000	5.03577E-006	0.00000E+000	7.41840E-004	-3.27687E+002	7	...........
	535	536	4.00540E+000	1.25727E-006	0.00000E+000	5.03588E-006	0.00000E+000	7.39840E-004	-3.27687E+002	7	...........
	536	537	4.00540E+000	1.25707E-006	0.00000E+000	5.03506E-006	0.00000E+000	7.40507E-004	-3.27687E+002	7	...........
	537	538	4.00541E+000	1.25647E-006	0.00000E+000	5.03267E-006	0.00000E+000	7.40590E-004	-3.27687E+002	7	...........
	538	539	4.00541E+000	1.25682E-006	0.00000E+000	5.03406E-006	0.00000E+000	7.39057E-004	-3.27687E+002	7	...........
	539	540	4.00540E+000	1.25659E-006	0.00000E+000	5.03313E-006	0.00000E+000	7.41040E-004	-3.27687E+002	7	...........
	540	541	4.00539E+000	1.25686E-006	0.00000E+000	5.03421E-006	0.00000E+000	7.39157E-004	-3.27687E+002	7	...........
	541	542	4.00539E+000	1.25752E-006	0.00000E+000	5.03686E-006	0.00000E+000	7.37924E-004	-3.27687E+002	7	...........
	542	543	4.00538E+000	1.25762E-006	0.00000E+000	5.03726E-006	0.00000E+000	7.38874E-004	-3.27687E+002	7	...........
	543	544	4.00538E+000	1.25654E-006	0.00000E+000	5.03292E-006	0.00000E+000	7.40940E-004	-3.27687E+002	7	...........
	544	545	4.00538E+000	1.25715E-006	0.00000E+000	5.03537E-006	0.00000E+000	7.39774E-004	-3.27687E+002	7	...........
	545	546	4.00537E+000	1.25684E-006	0.00000E+000	5.03409E-006	0.00000E+000	7.41474E-004	-3.27687E+002	7	...........
	546	547	4.00537E+000	1.25696E-006	0.00000E+000	5.03460E-006	0.00000E+000	7.37257E-004	-3.27687E+002	7	...........
	547	548	4.00537E+000	1.25701E-006	0.00000E+000	5.03478E-006	0.00000E+000	7.38540E-004	-3.27687E+002	7	...........
	548	549	4.00536E+000	1.25742E-006	0.00000E+000	5.03641E-006	0.00000E+000	7.39090E-004	-3.27687E+002	7	...........
	549	550	4.00536E+000	1.25737E-006	0.00000E+000	5.03624E-006	0.00000E+000	7.40224E-004	-3.27687E+002	7	...........
	550	551	4.00536E+000	1.25680E-006	0.00000E+000	5.03395E-006	0.00000E+000	7.39524E-004	-3.27687E+002	7	...........
	551	552	4.00535E+000	1.25642E-006	0.00000E+000	5.03238E-006	0.00000E+000	7.40974E-004	-3.27687E+002	7	...........
	552	553	4.00535E+000	1.25642E-006	0.00000E+000	5.03242E-006	0.00000E+000	7.39074E-004	-3.27687E+002	7	...........
	553	554	4.00534E+000	1.25641E-006	0.00000E+000	5.03234E-006	0.00000E+000	7.38874E-004	-3.27687E+002	7	...........
	554	555	4.00534E+000	1.25673E-006	0.00000E+000	5.03363E-006	0.00000E+000	7.39674E-004	-3.27687E+002	7	...........
	555	556	4.00534E+000	1.25717E-006	0.00000E+000	5.03538E-006	0.00000E+000	7.39924E-004	-3.27687E+002	7	...........
	556	557	4.00534E+000	1.25694E-006	0.00000E+000	5.03449E-006	0.00000E+000	7.37424E-004	-3.27687E+002	7	...........
	557	558	4.00533E+000	1.25682E-006	0.00000E+000	5.03399E-006	0.00000E+000	7.36790E-004	-3.27687E+002	7	...........
	558	559	4.00533E+000	1.25693E-006	0.00000E+000	5.03443E-006	0.00000E+000	7.36257E-004	-3.27687E+002	7	...........
	559	560	4.00533E+000	1.25775E-006	0.00000E+000	5.03769E-006	0.00000E+000	7.38607E-004	-3.27687E+002	7	...........
	560	561	4.00533E+000	1.25750E-006	0.00000E+000	5.03670E-006	0.00000E+000	7.39190E-004	-3.27687E+002	7	...........
	561	562	4.00532E+000	1.25728E-006	0.00000E+000	5.03583E-006	0.00000E+000	7.37840E-004	-3.27687E+002	7	...........
	562	563	4.00532E+000	1.25758E-006	0.00000E+000	5.03700E-006	0.00000E+000	7.38474E-004	-3.27687E+002	7	...........
	563	564	4.00532E+000	1.25752E-006	0.00000E+000	5.03675E-006	0.00000E+000	7.36474E-004	-3.27687E+002	7	...........
	564	565	4.00531E+000	1.25754E-006	0.00000E+000	5.03684E-006	0.00000E+000	7.39640E-004	-3.27687E+002	7	...........
	565	566	4.00531E+000	1.25684E-006	0.00000E+000	5.03403E-006	0.00000E+000	7.36940E-004	-3.27687E+002	7	...........
	566	567	4.00531E+000	1.25748E-006	0.00000E+000	5.03659E-006	0.00000E+000	7.38407E-004	-3.27687E+002	7	...........
	567	568	4.00530E+000	1.25744E-006	0.00000E+000	5.03642E-006	0.00000E+000	7.38057E-004	-3.27687E+002	7	...........
	568	569	4.00531E+000	1.25752E-006	0.00000E+000	5.03674E-006	0.00000E+000	7.38857E-004	-3.27687E+002	7	...........
	569	570	4.00530E+000	1.25754E-006	0.00000E+000	5.03684E-006	0.00000E+000	7.39457E-004	-3.27687E+002	7	...........
	570	571	4.00529E+000	1.25682E-006	0.00000E+000	5.03393E-006	0.00000E+000	7.37857E-004	-3.27687E+002	7	...........
	571	572	4.00529E+000	1.25703E-006	0.00000E+000	5.03477E-006	0.00000E+000	7.37290E-004	-3.27687E+002	7	...........
	572	573	4.00529E+000	1.25712E-006	0.00000E+000	5.03512E-006	0.00000E+000	7.37957E-004	-3.27687E+002	7	...........
	573	574	4.00528E+000	1.25757E-006	0.00000E+000	5.03693E-006	0.00000E+000	7.36090E-004	-3.27687E+002	7	...........
	574	575	4.00528E+000	1.25712E-006	0.00000E+000	5.03512E-006	0.00000E+000	7.38324E-004	-3.27687E+002	7	...........
	575	576	4.00527E+000	1.25659E-006	0.00000E+000	5.03300E-006	0.00000E+000	7.38890E-004	-3.27687E+002	7	...........
	576	577	4.00527E+000	1.25703E-006	0.00000E+000	5.03474E-006	0.00000E+000	7.36940E-004	-3.27687E+002	7	...........
	577	578	4.00527E+000	1.25688E-006	0.00000E+000	5.03415E-006	0.00000E+000	7.40240E-004	-3.27687E+002	7	...........
	578	579	4.00527E+000	1.25704E-006	0.00000E+000	5.03479E-006	0.00000E+000	7.36407E-004	-3.27687E+002	7	...........
	579	580	4.00526E+000	1.25661E-006	0.00000E+000	5.03304E-006	0.00000E+000	7.38757E-004	-3.27687E+002	7	...........
	580	581	4.00526E+000	1.25704E-006	0.00000E+000	5.03478E-006	0.00000E+000	7.34974E-004	-3.27687E+002	7	...........
	581	582	4.00526E+000	1.25773E-006	0.00000E+000	5.03754E-006	0.00000E+000	7.36840E-004	-3.27687E+002	7	...........
	582	583	4.00525E+000	1.25785E-006	0.00000E+000	5.03799E-006	0.00000E+000	7.40607E-004	-3.27687E+002	7	...........
	583	584	4.00525E+000	1.25748E-006	0.00000E+000	5.03652E-006	0.00000E+000	7.38957E-004	-3.27687E+002	7	...........
	584	585	4.00525E+000	1.25747E-006	0.00000E+000	5.03650E-006	0.00000E+000	7.37874E-004	-3.27687E+002	7	...........
	585	586	4.00525E+000	1.25672E-006	0.00000E+000	5.03346E-006	0.00000E+000	7.38040E-004	-3.27687E+002	7	...........
	586	587	4.00525E+000	1.25736E-006	0.00000E+000	5.03604E-006	0.00000E+000	7.39157E-004	-3.27687E+002	7	...........
	587	588	4.00524E+000	1.25716E-006	0.00000E+000	5.03522E-006	0.00000E+000	7.39440E-004	-3.27687E+002	7	...........
	588	589	4.00524E+000	1.25687E-006	0.00000E+000	5.03406E-006	0.00000E+000	7.38840E-004	-3.27687E+002	7	...........
	589	590	4.00523E+000	1.25734E-006	0.00000E+000	5.03594E-006	0.00000E+000	7.38257E-004	-3.27687E+002	7	...........
	590	591	4.00523E+000	1.25685E-006	0.00000E+000	5.03399E-006	0.00000E+000	7.40190E-004	-3.27687E+002	7	...........
	591	592	4.00523E+000	1.25647E-006	0.00000E+000	5.03243E-006	0.00000E+000	7.40540E-004	-3.27687E+002	7	...........
	592	593	4.00522E+000	1.25620E-006	0.00000E+000	5.03137E-006	0.00000E+000	7.39057E-004	-3.27687E+002	7	...........
	593	594	4.00522E+000	1.25689E-006	0.00000E+000	5.03414E-006	0.00000E+000	7.40274E-004	-3.27687E+002	7	...........
	594	595	4.00522E+000	1.25763E-006	0.00000E+000	5.03708E-006	0.00000E+000	7.39607E-004	-3.27687E+002	7	...........
	595	596	4.00521E+000	1.25784E-006	0.00000E+000	5.03793E-006	0.00000E+000	7.39074E-004	-3.27687E+002	7	...........
	596	597	4.00521E+000	1.25668E-006	0.00000E+000	5.03328E-006	0.00000E+000	7.42074E-004	-3.27687E+002	7	...........
	597	598	4.00521E+000	1.25731E-006	0.00000E+000	5.03579E-006	0.00000E+000	7.39374E-004	-3.27687E+002	7	...........
	598	599	4.00521E+000	1.25749E-006	0.00000E+000	5.03650E-006	0.00000E+000	7.40740E-004	-3.27687E+002	7	...........
	599	600	4.00521E+000	1.25754E-006	0.00000E+000	5.03670E-006	0.00000E+000	7.41807E-004	-3.27687E+002	7	...........
