EXPLAIN
TAG	PWR800_READVOLTAGE
TITLE	LABEL	PWR Read Voltage	Test Identifier
DATE	LABEL	24.5.2024	Date
TIME	LABEL	20:51:57	Time
NOTES	NOTES	1	Notes...
	
PSTAT	PSTAT	REF600-12055	Potentiostat
CAPACITY	QUANT	1.00000E+000	Capacity (A-hr)
CELLTYPE	SELECTOR	1	Cell Type
WORKINGCONNECTION	SELECTOR	0	Working Connection
MAXTIME	VARIABLEANDUNITS	6.00000E+002	s	6.00000E+002	second(s)	Max Time
SAMPLETIME	QUANT	1.00000E+000	Sample Period (s)
STOPAT1	MULTIPARAM	0	0.00000E+000	Stop At 1	None	N/A
STOPAT2	MULTIPARAM	0	0.00000E+000	Stop At 2	None	N/A
AESBHCSELECTOR	TOGGLE	F	Save Both Half Cells
EOC	QUANT	4.005208	Open Circuit (V)
SEQUENCER	TOGGLE	TRUE	Run as Sequence
PSTATMODEL	IQUANT	4	Pstat Model
PSTATSECTION	LABEL	REF600-12055	Pstat Section
PSTATSERIALNO	LABEL	12055	Pstat Serial Number
CTRLMODE	IQUANT	0	Control Mode
ELECTROMETER	IQUANT	0	RE=0 or CS=1
IESTAB	IQUANT	0	I/E Stability
CASPEED	IQUANT	4	Control Amp Speed
CONVENTION	IQUANT	1	Current Convention
ICHRANGE	IQUANT	2	Ich Range
ICHRANGEMODE	TOGGLE	T	Ich Auto Range
ICHOFFSETENABLE	TOGGLE	F	Ich Offset Enable
ICHOFFSET	QUANT	0	Ich Offset (V)
ICHFILTER	IQUANT	1	Ich Filter
VCHRANGE	IQUANT	3	Vch Range
VCHRANGEMODE	TOGGLE	T	Vch Auto Range
VCHOFFSETENABLE	TOGGLE	F	Vch Offset Enable
VCHOFFSET	QUANT	0	Vch Offset (V)
VCHFILTER	IQUANT	1	Vch Filter
ACHRANGE	IQUANT	2	Ach Range
ACHOFFSETENABLE	TOGGLE	F	Ach Offset Enable
ACHOFFSET	QUANT	0	Ach Offset (V)
ACHFILTER	IQUANT	1	Ach Filter
IERANGELOWERLIMIT	IQUANT	7	I/E Range Lower Limit
IERANGEMODE	TOGGLE	F	I/E AutoRange
IERANGE	IQUANT	11	I/E Range
POSFEEDENABLE	TOGGLE	F	Positive Feedback IR Comp
POSFEEDRESISTANCE	QUANT	0	Positive Feedback Resistance (ohm)
ACHSELECT	IQUANT	4	Ach Select
SENSECABLEID	IQUANT	14	Sense Cable ID
PWRCABLEID	IQUANT	14	Power Cable ID
DCCALDATE	LABEL	2/12/2024	DC Calibration Date
ACCALDATE	LABEL	2/12/2024	AC Calibration Date
THERMOSELECT	IQUANT	1	Thermo Select
FRAMEWORKVERSION	LABEL	7.10.3	Framework Version
INSTRUMENTVERSION	LABEL	4.91	Instrument Version
COMMVERSION	LABEL	2.24	Communications Version
CPUPLDVERSION	LABEL	0.00	CPU PLD Version
CTRLPLDVERSION	LABEL	0.00	CTRL PLD Version
PSTATPLDVERSION	LABEL	0.00	PSTAT PLD Version
CURVE	TABLE	600
	Pt	T	Vf	Im	Vu	Pwr	Sig	Ach	Temp	IERange	Over
	#	s	V	A	V	W	V	V	deg C	#	bits
	0	1	4.07018E+000	-1.40492E-006	0.00000E+000	-5.71827E-006	0.00000E+000	9.86640E-004	-3.27687E+002	7	...........
	1	2	4.06984E+000	-1.40356E-006	0.00000E+000	-5.71226E-006	0.00000E+000	9.88507E-004	-3.27687E+002	7	...........
	2	3	4.06967E+000	-1.40242E-006	0.00000E+000	-5.70739E-006	0.00000E+000	9.82990E-004	-3.27687E+002	7	...........
	3	4	4.06955E+000	-1.40120E-006	0.00000E+000	-5.70224E-006	0.00000E+000	9.77524E-004	-3.27687E+002	7	...........
	4	5	4.06946E+000	-1.40093E-006	0.00000E+000	-5.70102E-006	0.00000E+000	9.76090E-004	-3.27687E+002	7	...........
	5	6	4.06939E+000	-1.40021E-006	0.00000E+000	-5.69800E-006	0.00000E+000	9.73407E-004	-3.27687E+002	7	...........
	6	7	4.06932E+000	-1.39982E-006	0.00000E+000	-5.69631E-006	0.00000E+000	9.73940E-004	-3.27687E+002	7	...........
	7	8	4.06924E+000	-1.40029E-006	0.00000E+000	-5.69810E-006	0.00000E+000	9.75724E-004	-3.27687E+002	7	...........
	8	9	4.06917E+000	-1.39916E-006	0.00000E+000	-5.69342E-006	0.00000E+000	9.72957E-004	-3.27687E+002	7	...........
	9	10	4.06908E+000	-1.40000E-006	0.00000E+000	-5.69672E-006	0.00000E+000	9.73924E-004	-3.27687E+002	7	...........
	10	11	4.06900E+000	-1.39968E-006	0.00000E+000	-5.69532E-006	0.00000E+000	9.74490E-004	-3.27687E+002	7	...........
	11	12	4.06890E+000	-1.39853E-006	0.00000E+000	-5.69049E-006	0.00000E+000	9.78307E-004	-3.27687E+002	7	...........
	12	13	4.06881E+000	-1.39838E-006	0.00000E+000	-5.68973E-006	0.00000E+000	9.79340E-004	-3.27687E+002	7	...........
	13	14	4.06873E+000	-1.39931E-006	0.00000E+000	-5.69341E-006	0.00000E+000	9.77240E-004	-3.27687E+002	7	...........
	14	15	4.06865E+000	-1.39995E-006	0.00000E+000	-5.69590E-006	0.00000E+000	9.80690E-004	-3.27687E+002	7	...........
	15	16	4.06858E+000	-1.39967E-006	0.00000E+000	-5.69465E-006	0.00000E+000	9.77090E-004	-3.27687E+002	7	...........
	16	17	4.06850E+000	-1.39935E-006	0.00000E+000	-5.69327E-006	0.00000E+000	9.77124E-004	-3.27687E+002	7	...........
	17	18	4.06844E+000	-1.39861E-006	0.00000E+000	-5.69014E-006	0.00000E+000	9.75507E-004	-3.27687E+002	7	...........
	18	19	4.06837E+000	-1.39925E-006	0.00000E+000	-5.69267E-006	0.00000E+000	9.74424E-004	-3.27687E+002	7	...........
	19	20	4.06831E+000	-1.39924E-006	0.00000E+000	-5.69254E-006	0.00000E+000	9.74740E-004	-3.27687E+002	7	...........
	20	21	4.06824E+000	-1.39918E-006	0.00000E+000	-5.69219E-006	0.00000E+000	7.90874E-004	-3.27687E+002	7	...........
	21	22	4.06818E+000	-1.39932E-006	0.00000E+000	-5.69267E-006	0.00000E+000	7.05524E-004	-3.27687E+002	7	...........
	22	23	4.06811E+000	-1.39975E-006	0.00000E+000	-5.69435E-006	0.00000E+000	7.01757E-004	-3.27687E+002	7	...........
	23	24	4.06803E+000	-1.39967E-006	0.00000E+000	-5.69390E-006	0.00000E+000	7.00957E-004	-3.27687E+002	7	...........
	24	25	4.06797E+000	-1.39912E-006	0.00000E+000	-5.69158E-006	0.00000E+000	6.98874E-004	-3.27687E+002	7	...........
	25	26	4.06790E+000	-1.39794E-006	0.00000E+000	-5.68668E-006	0.00000E+000	6.97874E-004	-3.27687E+002	7	...........
	26	27	4.06784E+000	-1.39867E-006	0.00000E+000	-5.68957E-006	0.00000E+000	6.97957E-004	-3.27687E+002	7	...........
	27	28	4.06776E+000	-1.39836E-006	0.00000E+000	-5.68819E-006	0.00000E+000	6.95574E-004	-3.27687E+002	7	...........
	28	29	4.06769E+000	-1.39859E-006	0.00000E+000	-5.68903E-006	0.00000E+000	6.97807E-004	-3.27687E+002	7	...........
	29	30	4.06762E+000	-1.39843E-006	0.00000E+000	-5.68828E-006	0.00000E+000	7.00690E-004	-3.27687E+002	7	...........
	30	31	4.06755E+000	-1.39870E-006	0.00000E+000	-5.68930E-006	0.00000E+000	7.01640E-004	-3.27687E+002	7	...........
	31	32	4.06748E+000	-1.39888E-006	0.00000E+000	-5.68993E-006	0.00000E+000	7.00624E-004	-3.27687E+002	7	...........
	32	33	4.06743E+000	-1.39899E-006	0.00000E+000	-5.69029E-006	0.00000E+000	7.04457E-004	-3.27687E+002	7	...........
	33	34	4.06736E+000	-1.39864E-006	0.00000E+000	-5.68879E-006	0.00000E+000	7.07124E-004	-3.27687E+002	7	...........
	34	35	4.06729E+000	-1.39861E-006	0.00000E+000	-5.68857E-006	0.00000E+000	7.06607E-004	-3.27687E+002	7	...........
	35	36	4.06724E+000	-1.39822E-006	0.00000E+000	-5.68688E-006	0.00000E+000	7.09524E-004	-3.27687E+002	7	...........
	36	37	4.06720E+000	-1.39782E-006	0.00000E+000	-5.68522E-006	0.00000E+000	7.08524E-004	-3.27687E+002	7	...........
	37	38	4.06713E+000	-1.39748E-006	0.00000E+000	-5.68372E-006	0.00000E+000	7.11440E-004	-3.27687E+002	7	...........
	38	39	4.06707E+000	-1.39573E-006	0.00000E+000	-5.67654E-006	0.00000E+000	7.13774E-004	-3.27687E+002	7	...........
	39	40	4.06703E+000	-1.39624E-006	0.00000E+000	-5.67853E-006	0.00000E+000	7.12657E-004	-3.27687E+002	7	...........
	40	41	4.06697E+000	-1.39663E-006	0.00000E+000	-5.68006E-006	0.00000E+000	7.15274E-004	-3.27687E+002	7	...........
	41	42	4.06693E+000	-1.39652E-006	0.00000E+000	-5.67955E-006	0.00000E+000	7.14674E-004	-3.27687E+002	7	...........
	42	43	4.06688E+000	-1.39621E-006	0.00000E+000	-5.67821E-006	0.00000E+000	7.14957E-004	-3.27687E+002	7	...........
	43	44	4.06684E+000	-1.39590E-006	0.00000E+000	-5.67691E-006	0.00000E+000	7.16407E-004	-3.27687E+002	7	...........
	44	45	4.06679E+000	-1.39564E-006	0.00000E+000	-5.67580E-006	0.00000E+000	7.16374E-004	-3.27687E+002	7	...........
	45	46	4.06676E+000	-1.39667E-006	0.00000E+000	-5.67994E-006	0.00000E+000	7.17057E-004	-3.27687E+002	7	...........
	46	47	4.06672E+000	-1.39701E-006	0.00000E+000	-5.68124E-006	0.00000E+000	7.17457E-004	-3.27687E+002	7	...........
	47	48	4.06669E+000	-1.39614E-006	0.00000E+000	-5.67767E-006	0.00000E+000	7.15224E-004	-3.27687E+002	7	...........
	48	49	4.06665E+000	-1.39724E-006	0.00000E+000	-5.68208E-006	0.00000E+000	7.18690E-004	-3.27687E+002	7	...........
	49	50	4.06662E+000	-1.39706E-006	0.00000E+000	-5.68132E-006	0.00000E+000	7.16257E-004	-3.27687E+002	7	...........
	50	51	4.06659E+000	-1.39697E-006	0.00000E+000	-5.68091E-006	0.00000E+000	7.17424E-004	-3.27687E+002	7	...........
	51	52	4.06656E+000	-1.39573E-006	0.00000E+000	-5.67583E-006	0.00000E+000	7.16824E-004	-3.27687E+002	7	...........
	52	53	4.06652E+000	-1.39478E-006	0.00000E+000	-5.67192E-006	0.00000E+000	7.13740E-004	-3.27687E+002	7	...........
	53	54	4.06648E+000	-1.39562E-006	0.00000E+000	-5.67528E-006	0.00000E+000	7.14824E-004	-3.27687E+002	7	...........
	54	55	4.06645E+000	-1.39572E-006	0.00000E+000	-5.67561E-006	0.00000E+000	7.13890E-004	-3.27687E+002	7	...........
	55	56	4.06641E+000	-1.39624E-006	0.00000E+000	-5.67768E-006	0.00000E+000	7.16807E-004	-3.27687E+002	7	...........
	56	57	4.06638E+000	-1.39536E-006	0.00000E+000	-5.67405E-006	0.00000E+000	7.13624E-004	-3.27687E+002	7	...........
	57	58	4.06634E+000	-1.39524E-006	0.00000E+000	-5.67352E-006	0.00000E+000	7.14040E-004	-3.27687E+002	7	...........
	58	59	4.06630E+000	-1.39585E-006	0.00000E+000	-5.67595E-006	0.00000E+000	7.10340E-004	-3.27687E+002	7	...........
	59	60	4.06627E+000	-1.39606E-006	0.00000E+000	-5.67674E-006	0.00000E+000	7.11857E-004	-3.27687E+002	7	...........
	60	61	4.06624E+000	-1.39568E-006	0.00000E+000	-5.67516E-006	0.00000E+000	7.13090E-004	-3.27687E+002	7	...........
	61	62	4.06620E+000	-1.39579E-006	0.00000E+000	-5.67557E-006	0.00000E+000	7.10407E-004	-3.27687E+002	7	...........
	62	63	4.06617E+000	-1.39563E-006	0.00000E+000	-5.67487E-006	0.00000E+000	7.11207E-004	-3.27687E+002	7	...........
	63	64	4.06612E+000	-1.39531E-006	0.00000E+000	-5.67350E-006	0.00000E+000	7.10807E-004	-3.27687E+002	7	...........
	64	65	4.06609E+000	-1.39569E-006	0.00000E+000	-5.67501E-006	0.00000E+000	7.11107E-004	-3.27687E+002	7	...........
	65	66	4.06606E+000	-1.39536E-006	0.00000E+000	-5.67360E-006	0.00000E+000	7.12124E-004	-3.27687E+002	7	...........
	66	67	4.06602E+000	-1.39628E-006	0.00000E+000	-5.67729E-006	0.00000E+000	7.11424E-004	-3.27687E+002	7	...........
	67	68	4.06600E+000	-1.39476E-006	0.00000E+000	-5.67108E-006	0.00000E+000	7.10590E-004	-3.27687E+002	7	...........
	68	69	4.06596E+000	-1.39550E-006	0.00000E+000	-5.67403E-006	0.00000E+000	7.12857E-004	-3.27687E+002	7	...........
	69	70	4.06593E+000	-1.39468E-006	0.00000E+000	-5.67065E-006	0.00000E+000	7.10924E-004	-3.27687E+002	7	...........
	70	71	4.06590E+000	-1.39438E-006	0.00000E+000	-5.66939E-006	0.00000E+000	7.13540E-004	-3.27687E+002	7	...........
	71	72	4.06585E+000	-1.39462E-006	0.00000E+000	-5.67030E-006	0.00000E+000	7.13390E-004	-3.27687E+002	7	...........
	72	73	4.06582E+000	-1.39451E-006	0.00000E+000	-5.66985E-006	0.00000E+000	7.12457E-004	-3.27687E+002	7	...........
	73	74	4.06579E+000	-1.39521E-006	0.00000E+000	-5.67262E-006	0.00000E+000	7.15040E-004	-3.27687E+002	7	...........
	74	75	4.06575E+000	-1.39496E-006	0.00000E+000	-5.67155E-006	0.00000E+000	7.16357E-004	-3.27687E+002	7	...........
	75	76	4.06572E+000	-1.39480E-006	0.00000E+000	-5.67085E-006	0.00000E+000	7.18340E-004	-3.27687E+002	7	...........
	76	77	4.06570E+000	-1.39479E-006	0.00000E+000	-5.67077E-006	0.00000E+000	7.18857E-004	-3.27687E+002	7	...........
	77	78	4.06566E+000	-1.39442E-006	0.00000E+000	-5.66923E-006	0.00000E+000	7.16374E-004	-3.27687E+002	7	...........
	78	79	4.06562E+000	-1.39350E-006	0.00000E+000	-5.66544E-006	0.00000E+000	7.18074E-004	-3.27687E+002	7	...........
	79	80	4.06559E+000	-1.39431E-006	0.00000E+000	-5.66870E-006	0.00000E+000	7.18290E-004	-3.27687E+002	7	...........
	80	81	4.06556E+000	-1.39426E-006	0.00000E+000	-5.66845E-006	0.00000E+000	7.17290E-004	-3.27687E+002	7	...........
	81	82	4.06553E+000	-1.39378E-006	0.00000E+000	-5.66644E-006	0.00000E+000	7.17957E-004	-3.27687E+002	7	...........
	82	83	4.06550E+000	-1.39290E-006	0.00000E+000	-5.66284E-006	0.00000E+000	7.20557E-004	-3.27687E+002	7	...........
	83	84	4.06548E+000	-1.39295E-006	0.00000E+000	-5.66299E-006	0.00000E+000	7.21057E-004	-3.27687E+002	7	...........
	84	85	4.06546E+000	-1.39350E-006	0.00000E+000	-5.66520E-006	0.00000E+000	7.18907E-004	-3.27687E+002	7	...........
	85	86	4.06543E+000	-1.39275E-006	0.00000E+000	-5.66212E-006	0.00000E+000	7.20290E-004	-3.27687E+002	7	...........
	86	87	4.06540E+000	-1.39165E-006	0.00000E+000	-5.65762E-006	0.00000E+000	7.21007E-004	-3.27687E+002	7	...........
	87	88	4.06537E+000	-1.39202E-006	0.00000E+000	-5.65909E-006	0.00000E+000	7.20190E-004	-3.27687E+002	7	...........
	88	89	4.06536E+000	-1.39231E-006	0.00000E+000	-5.66023E-006	0.00000E+000	7.16907E-004	-3.27687E+002	7	...........
	89	90	4.06534E+000	-1.39234E-006	0.00000E+000	-5.66033E-006	0.00000E+000	7.19607E-004	-3.27687E+002	7	...........
	90	91	4.06530E+000	-1.39267E-006	0.00000E+000	-5.66164E-006	0.00000E+000	7.18457E-004	-3.27687E+002	7	...........
	91	92	4.06528E+000	-1.39253E-006	0.00000E+000	-5.66104E-006	0.00000E+000	7.16940E-004	-3.27687E+002	7	...........
	92	93	4.06527E+000	-1.39323E-006	0.00000E+000	-5.66388E-006	0.00000E+000	7.19324E-004	-3.27687E+002	7	...........
	93	94	4.06525E+000	-1.39381E-006	0.00000E+000	-5.66619E-006	0.00000E+000	7.16374E-004	-3.27687E+002	7	...........
	94	95	4.06522E+000	-1.39308E-006	0.00000E+000	-5.66316E-006	0.00000E+000	7.14790E-004	-3.27687E+002	7	...........
	95	96	4.06520E+000	-1.39325E-006	0.00000E+000	-5.66383E-006	0.00000E+000	7.15090E-004	-3.27687E+002	7	...........
	96	97	4.06518E+000	-1.39225E-006	0.00000E+000	-5.65975E-006	0.00000E+000	7.14074E-004	-3.27687E+002	7	...........
	97	98	4.06516E+000	-1.39269E-006	0.00000E+000	-5.66150E-006	0.00000E+000	7.14124E-004	-3.27687E+002	7	...........
	98	99	4.06514E+000	-1.39313E-006	0.00000E+000	-5.66327E-006	0.00000E+000	7.16040E-004	-3.27687E+002	7	...........
	99	100	4.06512E+000	-1.39250E-006	0.00000E+000	-5.66069E-006	0.00000E+000	7.16207E-004	-3.27687E+002	7	...........
	100	101	4.06510E+000	-1.39250E-006	0.00000E+000	-5.66066E-006	0.00000E+000	7.12857E-004	-3.27687E+002	7	...........
	101	102	4.06508E+000	-1.39269E-006	0.00000E+000	-5.66140E-006	0.00000E+000	7.14024E-004	-3.27687E+002	7	...........
	102	103	4.06506E+000	-1.39264E-006	0.00000E+000	-5.66118E-006	0.00000E+000	7.14424E-004	-3.27687E+002	7	...........
	103	104	4.06503E+000	-1.39220E-006	0.00000E+000	-5.65935E-006	0.00000E+000	7.13090E-004	-3.27687E+002	7	...........
	104	105	4.06500E+000	-1.39098E-006	0.00000E+000	-5.65435E-006	0.00000E+000	7.10640E-004	-3.27687E+002	7	...........
	105	106	4.06499E+000	-1.39129E-006	0.00000E+000	-5.65559E-006	0.00000E+000	7.11657E-004	-3.27687E+002	7	...........
	106	107	4.06496E+000	-1.39158E-006	0.00000E+000	-5.65670E-006	0.00000E+000	7.10874E-004	-3.27687E+002	7	...........
	107	108	4.06494E+000	-1.39196E-006	0.00000E+000	-5.65825E-006	0.00000E+000	7.11140E-004	-3.27687E+002	7	...........
	108	109	4.06491E+000	-1.39169E-006	0.00000E+000	-5.65709E-006	0.00000E+000	7.09024E-004	-3.27687E+002	7	...........
	109	110	4.06488E+000	-1.39184E-006	0.00000E+000	-5.65768E-006	0.00000E+000	7.08707E-004	-3.27687E+002	7	...........
	110	111	4.06486E+000	-1.39139E-006	0.00000E+000	-5.65581E-006	0.00000E+000	7.08257E-004	-3.27687E+002	7	...........
	111	112	4.06484E+000	-1.39183E-006	0.00000E+000	-5.65756E-006	0.00000E+000	7.10557E-004	-3.27687E+002	7	...........
	112	113	4.06481E+000	-1.39201E-006	0.00000E+000	-5.65824E-006	0.00000E+000	7.06807E-004	-3.27687E+002	7	...........
	113	114	4.06479E+000	-1.39156E-006	0.00000E+000	-5.65638E-006	0.00000E+000	7.08024E-004	-3.27687E+002	7	...........
	114	115	4.06476E+000	-1.39255E-006	0.00000E+000	-5.66037E-006	0.00000E+000	7.07207E-004	-3.27687E+002	7	...........
	115	116	4.06473E+000	-1.39222E-006	0.00000E+000	-5.65899E-006	0.00000E+000	7.10040E-004	-3.27687E+002	7	...........
	116	117	4.06471E+000	-1.39135E-006	0.00000E+000	-5.65545E-006	0.00000E+000	7.08007E-004	-3.27687E+002	7	...........
	117	118	4.06468E+000	-1.39082E-006	0.00000E+000	-5.65323E-006	0.00000E+000	7.08924E-004	-3.27687E+002	7	...........
	118	119	4.06465E+000	-1.39015E-006	0.00000E+000	-5.65047E-006	0.00000E+000	7.06724E-004	-3.27687E+002	7	...........
	119	120	4.06463E+000	-1.39158E-006	0.00000E+000	-5.65624E-006	0.00000E+000	7.06640E-004	-3.27687E+002	7	...........
	120	121	4.06460E+000	-1.39092E-006	0.00000E+000	-5.65355E-006	0.00000E+000	7.07557E-004	-3.27687E+002	7	...........
	121	122	4.06457E+000	-1.38980E-006	0.00000E+000	-5.64895E-006	0.00000E+000	7.03790E-004	-3.27687E+002	7	...........
	122	123	4.06454E+000	-1.39004E-006	0.00000E+000	-5.64988E-006	0.00000E+000	7.06307E-004	-3.27687E+002	7	...........
	123	124	4.06451E+000	-1.39018E-006	0.00000E+000	-5.65041E-006	0.00000E+000	7.05690E-004	-3.27687E+002	7	...........
	124	125	4.06449E+000	-1.39067E-006	0.00000E+000	-5.65234E-006	0.00000E+000	7.08024E-004	-3.27687E+002	7	...........
	125	126	4.06446E+000	-1.39034E-006	0.00000E+000	-5.65099E-006	0.00000E+000	7.06190E-004	-3.27687E+002	7	...........
	126	127	4.06443E+000	-1.39020E-006	0.00000E+000	-5.65039E-006	0.00000E+000	7.06307E-004	-3.27687E+002	7	...........
	127	128	4.06440E+000	-1.39041E-006	0.00000E+000	-5.65118E-006	0.00000E+000	7.08740E-004	-3.27687E+002	7	...........
	128	129	4.06436E+000	-1.38948E-006	0.00000E+000	-5.64736E-006	0.00000E+000	7.09907E-004	-3.27687E+002	7	...........
	129	130	4.06435E+000	-1.39054E-006	0.00000E+000	-5.65162E-006	0.00000E+000	7.07207E-004	-3.27687E+002	7	...........
	130	131	4.06430E+000	-1.38944E-006	0.00000E+000	-5.64711E-006	0.00000E+000	7.10924E-004	-3.27687E+002	7	...........
	131	132	4.06427E+000	-1.38858E-006	0.00000E+000	-5.64358E-006	0.00000E+000	7.10740E-004	-3.27687E+002	7	...........
	132	133	4.06424E+000	-1.38960E-006	0.00000E+000	-5.64767E-006	0.00000E+000	7.11657E-004	-3.27687E+002	7	...........
	133	134	4.06421E+000	-1.38960E-006	0.00000E+000	-5.64764E-006	0.00000E+000	7.11174E-004	-3.27687E+002	7	...........
	134	135	4.06419E+000	-1.39021E-006	0.00000E+000	-5.65006E-006	0.00000E+000	7.10740E-004	-3.27687E+002	7	...........
	135	136	4.06415E+000	-1.39009E-006	0.00000E+000	-5.64956E-006	0.00000E+000	7.12124E-004	-3.27687E+002	7	...........
	136	137	4.06410E+000	-1.38991E-006	0.00000E+000	-5.64875E-006	0.00000E+000	7.13690E-004	-3.27687E+002	7	...........
	137	138	4.06409E+000	-1.38995E-006	0.00000E+000	-5.64889E-006	0.00000E+000	7.13824E-004	-3.27687E+002	7	...........
	138	139	4.06405E+000	-1.38923E-006	0.00000E+000	-5.64592E-006	0.00000E+000	7.13957E-004	-3.27687E+002	7	...........
	139	140	4.06403E+000	-1.38995E-006	0.00000E+000	-5.64882E-006	0.00000E+000	7.14157E-004	-3.27687E+002	7	...........
	140	141	4.06400E+000	-1.39019E-006	0.00000E+000	-5.64972E-006	0.00000E+000	7.14524E-004	-3.27687E+002	7	...........
	141	142	4.06396E+000	-1.39102E-006	0.00000E+000	-5.65305E-006	0.00000E+000	7.15140E-004	-3.27687E+002	7	...........
	142	143	4.06395E+000	-1.39182E-006	0.00000E+000	-5.65627E-006	0.00000E+000	7.13074E-004	-3.27687E+002	7	...........
	143	144	4.06390E+000	-1.39065E-006	0.00000E+000	-5.65147E-006	0.00000E+000	7.14324E-004	-3.27687E+002	7	...........
	144	145	4.06388E+000	-1.38940E-006	0.00000E+000	-5.64636E-006	0.00000E+000	7.14257E-004	-3.27687E+002	7	...........
	145	146	4.06387E+000	-1.38976E-006	0.00000E+000	-5.64779E-006	0.00000E+000	7.14757E-004	-3.27687E+002	7	...........
	146	147	4.06382E+000	-1.39080E-006	0.00000E+000	-5.65197E-006	0.00000E+000	7.17440E-004	-3.27687E+002	7	...........
	147	148	4.06381E+000	-1.39033E-006	0.00000E+000	-5.65002E-006	0.00000E+000	7.16357E-004	-3.27687E+002	7	...........
	148	149	4.06378E+000	-1.38916E-006	0.00000E+000	-5.64526E-006	0.00000E+000	7.15424E-004	-3.27687E+002	7	...........
	149	150	4.06375E+000	-1.38990E-006	0.00000E+000	-5.64821E-006	0.00000E+000	7.17807E-004	-3.27687E+002	7	...........
	150	151	4.06373E+000	-1.38983E-006	0.00000E+000	-5.64790E-006	0.00000E+000	7.19074E-004	-3.27687E+002	7	...........
	151	152	4.06371E+000	-1.38994E-006	0.00000E+000	-5.64830E-006	0.00000E+000	7.17907E-004	-3.27687E+002	7	...........
	152	153	4.06369E+000	-1.39060E-006	0.00000E+000	-5.65097E-006	0.00000E+000	7.17140E-004	-3.27687E+002	7	...........
	153	154	4.06366E+000	-1.39094E-006	0.00000E+000	-5.65229E-006	0.00000E+000	7.16507E-004	-3.27687E+002	7	...........
	154	155	4.06364E+000	-1.39090E-006	0.00000E+000	-5.65210E-006	0.00000E+000	7.16707E-004	-3.27687E+002	7	...........
	155	156	4.06363E+000	-1.39001E-006	0.00000E+000	-5.64849E-006	0.00000E+000	7.19490E-004	-3.27687E+002	7	...........
	156	157	4.06360E+000	-1.38992E-006	0.00000E+000	-5.64809E-006	0.00000E+000	7.16674E-004	-3.27687E+002	7	...........
	157	158	4.06358E+000	-1.38944E-006	0.00000E+000	-5.64610E-006	0.00000E+000	7.17707E-004	-3.27687E+002	7	...........
	158	159	4.06355E+000	-1.38971E-006	0.00000E+000	-5.64716E-006	0.00000E+000	7.17807E-004	-3.27687E+002	7	...........
	159	160	4.06354E+000	-1.39011E-006	0.00000E+000	-5.64876E-006	0.00000E+000	7.17724E-004	-3.27687E+002	7	...........
	160	161	4.06353E+000	-1.38921E-006	0.00000E+000	-5.64507E-006	0.00000E+000	7.17540E-004	-3.27687E+002	7	...........
	161	162	4.06351E+000	-1.38916E-006	0.00000E+000	-5.64488E-006	0.00000E+000	7.16340E-004	-3.27687E+002	7	...........
	162	163	4.06349E+000	-1.38906E-006	0.00000E+000	-5.64443E-006	0.00000E+000	7.17607E-004	-3.27687E+002	7	...........
	163	164	4.06346E+000	-1.38845E-006	0.00000E+000	-5.64192E-006	0.00000E+000	7.19090E-004	-3.27687E+002	7	...........
	164	165	4.06345E+000	-1.38940E-006	0.00000E+000	-5.64575E-006	0.00000E+000	7.19907E-004	-3.27687E+002	7	...........
	165	166	4.06343E+000	-1.38912E-006	0.00000E+000	-5.64459E-006	0.00000E+000	7.21107E-004	-3.27687E+002	7	...........
	166	167	4.06342E+000	-1.38932E-006	0.00000E+000	-5.64537E-006	0.00000E+000	7.18824E-004	-3.27687E+002	7	...........
	167	168	4.06340E+000	-1.38983E-006	0.00000E+000	-5.64742E-006	0.00000E+000	7.18440E-004	-3.27687E+002	7	...........
	168	169	4.06337E+000	-1.38985E-006	0.00000E+000	-5.64749E-006	0.00000E+000	7.19357E-004	-3.27687E+002	7	...........
	169	170	4.06337E+000	-1.39041E-006	0.00000E+000	-5.64974E-006	0.00000E+000	7.18824E-004	-3.27687E+002	7	...........
	170	171	4.06336E+000	-1.38924E-006	0.00000E+000	-5.64500E-006	0.00000E+000	7.17757E-004	-3.27687E+002	7	...........
	171	172	4.06335E+000	-1.38857E-006	0.00000E+000	-5.64225E-006	0.00000E+000	7.17340E-004	-3.27687E+002	7	...........
	172	173	4.06334E+000	-1.38926E-006	0.00000E+000	-5.64503E-006	0.00000E+000	7.18557E-004	-3.27687E+002	7	...........
	173	174	4.06332E+000	-1.38872E-006	0.00000E+000	-5.64282E-006	0.00000E+000	7.16957E-004	-3.27687E+002	7	...........
	174	175	4.06331E+000	-1.38935E-006	0.00000E+000	-5.64536E-006	0.00000E+000	7.16190E-004	-3.27687E+002	7	...........
	175	176	4.06330E+000	-1.38878E-006	0.00000E+000	-5.64303E-006	0.00000E+000	7.18324E-004	-3.27687E+002	7	...........
	176	177	4.06328E+000	-1.38867E-006	0.00000E+000	-5.64254E-006	0.00000E+000	7.17907E-004	-3.27687E+002	7	...........
	177	178	4.06327E+000	-1.38874E-006	0.00000E+000	-5.64283E-006	0.00000E+000	7.18407E-004	-3.27687E+002	7	...........
	178	179	4.06327E+000	-1.38824E-006	0.00000E+000	-5.64080E-006	0.00000E+000	7.17607E-004	-3.27687E+002	7	...........
	179	180	4.06325E+000	-1.38811E-006	0.00000E+000	-5.64025E-006	0.00000E+000	7.16857E-004	-3.27687E+002	7	...........
	180	181	4.06324E+000	-1.38968E-006	0.00000E+000	-5.64661E-006	0.00000E+000	7.16574E-004	-3.27687E+002	7	...........
	181	182	4.06323E+000	-1.38907E-006	0.00000E+000	-5.64412E-006	0.00000E+000	7.15907E-004	-3.27687E+002	7	...........
	182	183	4.06322E+000	-1.38919E-006	0.00000E+000	-5.64457E-006	0.00000E+000	7.15190E-004	-3.27687E+002	7	...........
	183	184	4.06321E+000	-1.38850E-006	0.00000E+000	-5.64177E-006	0.00000E+000	7.14857E-004	-3.27687E+002	7	...........
	184	185	4.06321E+000	-1.38816E-006	0.00000E+000	-5.64040E-006	0.00000E+000	7.13074E-004	-3.27687E+002	7	...........
	185	186	4.06319E+000	-1.38802E-006	0.00000E+000	-5.63978E-006	0.00000E+000	7.15590E-004	-3.27687E+002	7	...........
	186	187	4.06319E+000	-1.38847E-006	0.00000E+000	-5.64163E-006	0.00000E+000	7.14357E-004	-3.27687E+002	7	...........
	187	188	4.06318E+000	-1.38911E-006	0.00000E+000	-5.64421E-006	0.00000E+000	7.13740E-004	-3.27687E+002	7	...........
	188	189	4.06317E+000	-1.38882E-006	0.00000E+000	-5.64302E-006	0.00000E+000	7.14457E-004	-3.27687E+002	7	...........
	189	190	4.06316E+000	-1.38780E-006	0.00000E+000	-5.63886E-006	0.00000E+000	7.13907E-004	-3.27687E+002	7	...........
	190	191	4.06315E+000	-1.38753E-006	0.00000E+000	-5.63773E-006	0.00000E+000	7.12324E-004	-3.27687E+002	7	...........
	191	192	4.06314E+000	-1.38773E-006	0.00000E+000	-5.63854E-006	0.00000E+000	7.15890E-004	-3.27687E+002	7	...........
	192	193	4.06314E+000	-1.38702E-006	0.00000E+000	-5.63565E-006	0.00000E+000	7.15690E-004	-3.27687E+002	7	...........
	193	194	4.06312E+000	-1.38660E-006	0.00000E+000	-5.63392E-006	0.00000E+000	7.13324E-004	-3.27687E+002	7	...........
	194	195	4.06312E+000	-1.38714E-006	0.00000E+000	-5.63612E-006	0.00000E+000	7.12007E-004	-3.27687E+002	7	...........
	195	196	4.06310E+000	-1.38749E-006	0.00000E+000	-5.63750E-006	0.00000E+000	7.12040E-004	-3.27687E+002	7	...........
	196	197	4.06309E+000	-1.38693E-006	0.00000E+000	-5.63522E-006	0.00000E+000	7.11074E-004	-3.27687E+002	7	...........
	197	198	4.06310E+000	-1.38695E-006	0.00000E+000	-5.63531E-006	0.00000E+000	7.12940E-004	-3.27687E+002	7	...........
	198	199	4.06308E+000	-1.38730E-006	0.00000E+000	-5.63670E-006	0.00000E+000	7.10807E-004	-3.27687E+002	7	...........
	199	200	4.06308E+000	-1.38754E-006	0.00000E+000	-5.63769E-006	0.00000E+000	7.12257E-004	-3.27687E+002	7	...........
	200	201	4.06308E+000	-1.38674E-006	0.00000E+000	-5.63442E-006	0.00000E+000	7.11790E-004	-3.27687E+002	7	...........
	201	202	4.06307E+000	-1.38631E-006	0.00000E+000	-5.63267E-006	0.00000E+000	7.12740E-004	-3.27687E+002	7	...........
	202	203	4.06305E+000	-1.38576E-006	0.00000E+000	-5.63040E-006	0.00000E+000	7.10824E-004	-3.27687E+002	7	...........
	203	204	4.06305E+000	-1.38608E-006	0.00000E+000	-5.63170E-006	0.00000E+000	7.11424E-004	-3.27687E+002	7	...........
	204	205	4.06304E+000	-1.38687E-006	0.00000E+000	-5.63491E-006	0.00000E+000	7.10040E-004	-3.27687E+002	7	...........
	205	206	4.06304E+000	-1.38669E-006	0.00000E+000	-5.63416E-006	0.00000E+000	7.09274E-004	-3.27687E+002	7	...........
	206	207	4.06302E+000	-1.38644E-006	0.00000E+000	-5.63312E-006	0.00000E+000	7.10174E-004	-3.27687E+002	7	...........
	207	208	4.06302E+000	-1.38638E-006	0.00000E+000	-5.63290E-006	0.00000E+000	7.10174E-004	-3.27687E+002	7	...........
	208	209	4.06301E+000	-1.38592E-006	0.00000E+000	-5.63099E-006	0.00000E+000	7.10874E-004	-3.27687E+002	7	...........
	209	210	4.06301E+000	-1.38605E-006	0.00000E+000	-5.63153E-006	0.00000E+000	7.08340E-004	-3.27687E+002	7	...........
	210	211	4.06300E+000	-1.38495E-006	0.00000E+000	-5.62703E-006	0.00000E+000	7.08224E-004	-3.27687E+002	7	...........
	211	212	4.06299E+000	-1.38529E-006	0.00000E+000	-5.62843E-006	0.00000E+000	7.10457E-004	-3.27687E+002	7	...........
	212	213	4.06299E+000	-1.38535E-006	0.00000E+000	-5.62868E-006	0.00000E+000	7.08007E-004	-3.27687E+002	7	...........
	213	214	4.06298E+000	-1.38532E-006	0.00000E+000	-5.62852E-006	0.00000E+000	7.09724E-004	-3.27687E+002	7	...........
	214	215	4.06297E+000	-1.38522E-006	0.00000E+000	-5.62808E-006	0.00000E+000	7.07040E-004	-3.27687E+002	7	...........
	215	216	4.06296E+000	-1.38474E-006	0.00000E+000	-5.62614E-006	0.00000E+000	7.09890E-004	-3.27687E+002	7	...........
	216	217	4.06295E+000	-1.38490E-006	0.00000E+000	-5.62680E-006	0.00000E+000	7.09707E-004	-3.27687E+002	7	...........
	217	218	4.06294E+000	-1.38483E-006	0.00000E+000	-5.62648E-006	0.00000E+000	7.09607E-004	-3.27687E+002	7	...........
	218	219	4.06294E+000	-1.38545E-006	0.00000E+000	-5.62899E-006	0.00000E+000	7.09174E-004	-3.27687E+002	7	...........
	219	220	4.06293E+000	-1.38466E-006	0.00000E+000	-5.62578E-006	0.00000E+000	7.11490E-004	-3.27687E+002	7	...........
	220	221	4.06292E+000	-1.38483E-006	0.00000E+000	-5.62643E-006	0.00000E+000	7.07490E-004	-3.27687E+002	7	...........
	221	222	4.06290E+000	-1.38461E-006	0.00000E+000	-5.62554E-006	0.00000E+000	7.07207E-004	-3.27687E+002	7	...........
	222	223	4.06290E+000	-1.38480E-006	0.00000E+000	-5.62633E-006	0.00000E+000	7.08190E-004	-3.27687E+002	7	...........
	223	224	4.06289E+000	-1.38349E-006	0.00000E+000	-5.62098E-006	0.00000E+000	7.09007E-004	-3.27687E+002	7	...........
	224	225	4.06288E+000	-1.38375E-006	0.00000E+000	-5.62201E-006	0.00000E+000	7.06790E-004	-3.27687E+002	7	...........
	225	226	4.06287E+000	-1.38444E-006	0.00000E+000	-5.62481E-006	0.00000E+000	7.08990E-004	-3.27687E+002	7	...........
	226	227	4.06287E+000	-1.38380E-006	0.00000E+000	-5.62219E-006	0.00000E+000	7.08324E-004	-3.27687E+002	7	...........
	227	228	4.06286E+000	-1.38366E-006	0.00000E+000	-5.62159E-006	0.00000E+000	7.10507E-004	-3.27687E+002	7	...........
	228	229	4.06284E+000	-1.38330E-006	0.00000E+000	-5.62014E-006	0.00000E+000	7.09224E-004	-3.27687E+002	7	...........
	229	230	4.06284E+000	-1.38346E-006	0.00000E+000	-5.62077E-006	0.00000E+000	7.09774E-004	-3.27687E+002	7	...........
	230	231	4.06283E+000	-1.38377E-006	0.00000E+000	-5.62203E-006	0.00000E+000	7.09040E-004	-3.27687E+002	7	...........
	231	232	4.06282E+000	-1.38385E-006	0.00000E+000	-5.62233E-006	0.00000E+000	7.08624E-004	-3.27687E+002	7	...........
	232	233	4.06281E+000	-1.38451E-006	0.00000E+000	-5.62501E-006	0.00000E+000	7.09324E-004	-3.27687E+002	7	...........
	233	234	4.06281E+000	-1.38412E-006	0.00000E+000	-5.62343E-006	0.00000E+000	7.08324E-004	-3.27687E+002	7	...........
	234	235	4.06280E+000	-1.38433E-006	0.00000E+000	-5.62424E-006	0.00000E+000	7.07640E-004	-3.27687E+002	7	...........
	235	236	4.06279E+000	-1.38467E-006	0.00000E+000	-5.62560E-006	0.00000E+000	7.11207E-004	-3.27687E+002	7	...........
	236	237	4.06278E+000	-1.38360E-006	0.00000E+000	-5.62126E-006	0.00000E+000	7.08490E-004	-3.27687E+002	7	...........
	237	238	4.06277E+000	-1.38203E-006	0.00000E+000	-5.61484E-006	0.00000E+000	7.09807E-004	-3.27687E+002	7	...........
	238	239	4.06275E+000	-1.38278E-006	0.00000E+000	-5.61788E-006	0.00000E+000	7.07324E-004	-3.27687E+002	7	...........
	239	240	4.06275E+000	-1.38303E-006	0.00000E+000	-5.61890E-006	0.00000E+000	7.10474E-004	-3.27687E+002	7	...........
	240	241	4.06275E+000	-1.38239E-006	0.00000E+000	-5.61632E-006	0.00000E+000	7.09090E-004	-3.27687E+002	7	...........
	241	242	4.06274E+000	-1.38198E-006	0.00000E+000	-5.61460E-006	0.00000E+000	7.06707E-004	-3.27687E+002	7	...........
	242	243	4.06273E+000	-1.38186E-006	0.00000E+000	-5.61412E-006	0.00000E+000	7.06390E-004	-3.27687E+002	7	...........
	243	244	4.06272E+000	-1.38190E-006	0.00000E+000	-5.61426E-006	0.00000E+000	7.08090E-004	-3.27687E+002	7	...........
	244	245	4.06271E+000	-1.38127E-006	0.00000E+000	-5.61169E-006	0.00000E+000	7.07390E-004	-3.27687E+002	7	...........
	245	246	4.06270E+000	-1.38097E-006	0.00000E+000	-5.61045E-006	0.00000E+000	7.07574E-004	-3.27687E+002	7	...........
	246	247	4.06269E+000	-1.38133E-006	0.00000E+000	-5.61192E-006	0.00000E+000	7.07374E-004	-3.27687E+002	7	...........
	247	248	4.06268E+000	-1.38182E-006	0.00000E+000	-5.61390E-006	0.00000E+000	7.10357E-004	-3.27687E+002	7	...........
	248	249	4.06267E+000	-1.38258E-006	0.00000E+000	-5.61699E-006	0.00000E+000	7.09124E-004	-3.27687E+002	7	...........
	249	250	4.06267E+000	-1.38218E-006	0.00000E+000	-5.61535E-006	0.00000E+000	7.10557E-004	-3.27687E+002	7	...........
	250	251	4.06264E+000	-1.38124E-006	0.00000E+000	-5.61149E-006	0.00000E+000	7.10807E-004	-3.27687E+002	7	...........
	251	252	4.06264E+000	-1.38170E-006	0.00000E+000	-5.61335E-006	0.00000E+000	7.09057E-004	-3.27687E+002	7	...........
	252	253	4.06263E+000	-1.38204E-006	0.00000E+000	-5.61472E-006	0.00000E+000	7.09324E-004	-3.27687E+002	7	...........
	253	254	4.06261E+000	-1.38238E-006	0.00000E+000	-5.61609E-006	0.00000E+000	7.11590E-004	-3.27687E+002	7	...........
	254	255	4.06260E+000	-1.38278E-006	0.00000E+000	-5.61769E-006	0.00000E+000	7.10074E-004	-3.27687E+002	7	...........
	255	256	4.06260E+000	-1.38214E-006	0.00000E+000	-5.61509E-006	0.00000E+000	7.10074E-004	-3.27687E+002	7	...........
	256	257	4.06259E+000	-1.38181E-006	0.00000E+000	-5.61373E-006	0.00000E+000	7.11090E-004	-3.27687E+002	7	...........
	257	258	4.06258E+000	-1.38192E-006	0.00000E+000	-5.61416E-006	0.00000E+000	7.11057E-004	-3.27687E+002	7	...........
	258	259	4.06256E+000	-1.38158E-006	0.00000E+000	-5.61274E-006	0.00000E+000	7.10524E-004	-3.27687E+002	7	...........
	259	260	4.06256E+000	-1.38187E-006	0.00000E+000	-5.61392E-006	0.00000E+000	7.12124E-004	-3.27687E+002	7	...........
	260	261	4.06255E+000	-1.38210E-006	0.00000E+000	-5.61485E-006	0.00000E+000	7.12824E-004	-3.27687E+002	7	...........
	261	262	4.06254E+000	-1.38211E-006	0.00000E+000	-5.61487E-006	0.00000E+000	7.09174E-004	-3.27687E+002	7	...........
	262	263	4.06253E+000	-1.38198E-006	0.00000E+000	-5.61433E-006	0.00000E+000	7.11040E-004	-3.27687E+002	7	...........
	263	264	4.06251E+000	-1.38143E-006	0.00000E+000	-5.61210E-006	0.00000E+000	7.12924E-004	-3.27687E+002	7	...........
	264	265	4.06251E+000	-1.38126E-006	0.00000E+000	-5.61137E-006	0.00000E+000	7.08624E-004	-3.27687E+002	7	...........
	265	266	4.06249E+000	-1.38207E-006	0.00000E+000	-5.61465E-006	0.00000E+000	7.12324E-004	-3.27687E+002	7	...........
	266	267	4.06248E+000	-1.38245E-006	0.00000E+000	-5.61619E-006	0.00000E+000	7.13607E-004	-3.27687E+002	7	...........
	267	268	4.06247E+000	-1.38158E-006	0.00000E+000	-5.61265E-006	0.00000E+000	7.11490E-004	-3.27687E+002	7	...........
	268	269	4.06245E+000	-1.38131E-006	0.00000E+000	-5.61150E-006	0.00000E+000	7.12374E-004	-3.27687E+002	7	...........
	269	270	4.06244E+000	-1.38153E-006	0.00000E+000	-5.61238E-006	0.00000E+000	7.13924E-004	-3.27687E+002	7	...........
	270	271	4.06243E+000	-1.38137E-006	0.00000E+000	-5.61171E-006	0.00000E+000	7.10757E-004	-3.27687E+002	7	...........
	271	272	4.06242E+000	-1.38192E-006	0.00000E+000	-5.61394E-006	0.00000E+000	7.13624E-004	-3.27687E+002	7	...........
	272	273	4.06240E+000	-1.38173E-006	0.00000E+000	-5.61314E-006	0.00000E+000	7.15157E-004	-3.27687E+002	7	...........
	273	274	4.06239E+000	-1.38159E-006	0.00000E+000	-5.61255E-006	0.00000E+000	7.15440E-004	-3.27687E+002	7	...........
	274	275	4.06238E+000	-1.38200E-006	0.00000E+000	-5.61422E-006	0.00000E+000	7.15524E-004	-3.27687E+002	7	...........
	275	276	4.06237E+000	-1.38307E-006	0.00000E+000	-5.61853E-006	0.00000E+000	7.13607E-004	-3.27687E+002	7	...........
	276	277	4.06237E+000	-1.38192E-006	0.00000E+000	-5.61385E-006	0.00000E+000	7.13174E-004	-3.27687E+002	7	...........
	277	278	4.06236E+000	-1.38022E-006	0.00000E+000	-5.60696E-006	0.00000E+000	7.14007E-004	-3.27687E+002	7	...........
	278	279	4.06234E+000	-1.38096E-006	0.00000E+000	-5.60992E-006	0.00000E+000	7.13124E-004	-3.27687E+002	7	...........
	279	280	4.06234E+000	-1.38066E-006	0.00000E+000	-5.60871E-006	0.00000E+000	7.15357E-004	-3.27687E+002	7	...........
	280	281	4.06233E+000	-1.38123E-006	0.00000E+000	-5.61101E-006	0.00000E+000	7.17324E-004	-3.27687E+002	7	...........
	281	282	4.06231E+000	-1.38042E-006	0.00000E+000	-5.60770E-006	0.00000E+000	7.16224E-004	-3.27687E+002	7	...........
	282	283	4.06231E+000	-1.38052E-006	0.00000E+000	-5.60812E-006	0.00000E+000	7.14440E-004	-3.27687E+002	7	...........
	283	284	4.06230E+000	-1.37982E-006	0.00000E+000	-5.60524E-006	0.00000E+000	7.14907E-004	-3.27687E+002	7	...........
	284	285	4.06229E+000	-1.38053E-006	0.00000E+000	-5.60813E-006	0.00000E+000	7.13590E-004	-3.27687E+002	7	...........
	285	286	4.06228E+000	-1.37993E-006	0.00000E+000	-5.60565E-006	0.00000E+000	7.14574E-004	-3.27687E+002	7	...........
	286	287	4.06227E+000	-1.37900E-006	0.00000E+000	-5.60186E-006	0.00000E+000	7.14824E-004	-3.27687E+002	7	...........
	287	288	4.06226E+000	-1.37993E-006	0.00000E+000	-5.60565E-006	0.00000E+000	7.13024E-004	-3.27687E+002	7	...........
	288	289	4.06226E+000	-1.38009E-006	0.00000E+000	-5.60628E-006	0.00000E+000	7.14224E-004	-3.27687E+002	7	...........
	289	290	4.06225E+000	-1.37997E-006	0.00000E+000	-5.60580E-006	0.00000E+000	7.16640E-004	-3.27687E+002	7	...........
	290	291	4.06223E+000	-1.37862E-006	0.00000E+000	-5.60028E-006	0.00000E+000	7.11124E-004	-3.27687E+002	7	...........
	291	292	4.06223E+000	-1.37963E-006	0.00000E+000	-5.60437E-006	0.00000E+000	7.12657E-004	-3.27687E+002	7	...........
	292	293	4.06222E+000	-1.37938E-006	0.00000E+000	-5.60333E-006	0.00000E+000	7.13424E-004	-3.27687E+002	7	...........
	293	294	4.06220E+000	-1.37998E-006	0.00000E+000	-5.60577E-006	0.00000E+000	7.13974E-004	-3.27687E+002	7	...........
	294	295	4.06220E+000	-1.37905E-006	0.00000E+000	-5.60200E-006	0.00000E+000	7.15557E-004	-3.27687E+002	7	...........
	295	296	4.06219E+000	-1.37872E-006	0.00000E+000	-5.60061E-006	0.00000E+000	7.14090E-004	-3.27687E+002	7	...........
	296	297	4.06217E+000	-1.37907E-006	0.00000E+000	-5.60201E-006	0.00000E+000	7.14274E-004	-3.27687E+002	7	...........
	297	298	4.06217E+000	-1.37942E-006	0.00000E+000	-5.60344E-006	0.00000E+000	7.13374E-004	-3.27687E+002	7	...........
	298	299	4.06217E+000	-1.37982E-006	0.00000E+000	-5.60507E-006	0.00000E+000	7.14757E-004	-3.27687E+002	7	...........
	299	300	4.06217E+000	-1.37924E-006	0.00000E+000	-5.60270E-006	0.00000E+000	7.11524E-004	-3.27687E+002	7	...........
	300	301	4.06215E+000	-1.37893E-006	0.00000E+000	-5.60144E-006	0.00000E+000	7.10707E-004	-3.27687E+002	7	...........
	301	302	4.06215E+000	-1.37835E-006	0.00000E+000	-5.59908E-006	0.00000E+000	7.12807E-004	-3.27687E+002	7	...........
	302	303	4.06215E+000	-1.37796E-006	0.00000E+000	-5.59749E-006	0.00000E+000	7.12157E-004	-3.27687E+002	7	...........
	303	304	4.06214E+000	-1.37786E-006	0.00000E+000	-5.59706E-006	0.00000E+000	7.13174E-004	-3.27687E+002	7	...........
	304	305	4.06213E+000	-1.37751E-006	0.00000E+000	-5.59561E-006	0.00000E+000	7.12824E-004	-3.27687E+002	7	...........
	305	306	4.06213E+000	-1.37786E-006	0.00000E+000	-5.59703E-006	0.00000E+000	7.14124E-004	-3.27687E+002	7	...........
	306	307	4.06211E+000	-1.37818E-006	0.00000E+000	-5.59833E-006	0.00000E+000	7.10507E-004	-3.27687E+002	7	...........
	307	308	4.06210E+000	-1.37831E-006	0.00000E+000	-5.59882E-006	0.00000E+000	7.12757E-004	-3.27687E+002	7	...........
	308	309	4.06209E+000	-1.37803E-006	0.00000E+000	-5.59770E-006	0.00000E+000	7.12807E-004	-3.27687E+002	7	...........
	309	310	4.06208E+000	-1.37878E-006	0.00000E+000	-5.60070E-006	0.00000E+000	7.12707E-004	-3.27687E+002	7	...........
	310	311	4.06208E+000	-1.37859E-006	0.00000E+000	-5.59995E-006	0.00000E+000	7.08890E-004	-3.27687E+002	7	...........
	311	312	4.06207E+000	-1.37827E-006	0.00000E+000	-5.59864E-006	0.00000E+000	7.12690E-004	-3.27687E+002	7	...........
	312	313	4.06207E+000	-1.37869E-006	0.00000E+000	-5.60033E-006	0.00000E+000	7.11040E-004	-3.27687E+002	7	...........
	313	314	4.06206E+000	-1.37906E-006	0.00000E+000	-5.60182E-006	0.00000E+000	7.11257E-004	-3.27687E+002	7	...........
	314	315	4.06205E+000	-1.37867E-006	0.00000E+000	-5.60023E-006	0.00000E+000	7.11024E-004	-3.27687E+002	7	...........
	315	316	4.06204E+000	-1.37870E-006	0.00000E+000	-5.60032E-006	0.00000E+000	7.08124E-004	-3.27687E+002	7	...........
	316	317	4.06204E+000	-1.37770E-006	0.00000E+000	-5.59626E-006	0.00000E+000	7.10607E-004	-3.27687E+002	7	...........
	317	318	4.06203E+000	-1.37788E-006	0.00000E+000	-5.59699E-006	0.00000E+000	7.12240E-004	-3.27687E+002	7	...........
	318	319	4.06202E+000	-1.37850E-006	0.00000E+000	-5.59948E-006	0.00000E+000	7.08624E-004	-3.27687E+002	7	...........
	319	320	4.06201E+000	-1.37923E-006	0.00000E+000	-5.60247E-006	0.00000E+000	7.08424E-004	-3.27687E+002	7	...........
	320	321	4.06201E+000	-1.37904E-006	0.00000E+000	-5.60165E-006	0.00000E+000	7.07724E-004	-3.27687E+002	7	...........
	321	322	4.06200E+000	-1.37899E-006	0.00000E+000	-5.60148E-006	0.00000E+000	7.09274E-004	-3.27687E+002	7	...........
	322	323	4.06200E+000	-1.37784E-006	0.00000E+000	-5.59676E-006	0.00000E+000	7.08874E-004	-3.27687E+002	7	...........
	323	324	4.06199E+000	-1.37776E-006	0.00000E+000	-5.59645E-006	0.00000E+000	7.07524E-004	-3.27687E+002	7	...........
	324	325	4.06197E+000	-1.37789E-006	0.00000E+000	-5.59696E-006	0.00000E+000	7.08024E-004	-3.27687E+002	7	...........
	325	326	4.06197E+000	-1.37796E-006	0.00000E+000	-5.59724E-006	0.00000E+000	7.07874E-004	-3.27687E+002	7	...........
	326	327	4.06196E+000	-1.37868E-006	0.00000E+000	-5.60013E-006	0.00000E+000	7.09224E-004	-3.27687E+002	7	...........
	327	328	4.06197E+000	-1.37825E-006	0.00000E+000	-5.59839E-006	0.00000E+000	7.08874E-004	-3.27687E+002	7	...........
	328	329	4.06196E+000	-1.37847E-006	0.00000E+000	-5.59927E-006	0.00000E+000	7.08590E-004	-3.27687E+002	7	...........
	329	330	4.06196E+000	-1.37843E-006	0.00000E+000	-5.59911E-006	0.00000E+000	7.07574E-004	-3.27687E+002	7	...........
	330	331	4.06194E+000	-1.37829E-006	0.00000E+000	-5.59855E-006	0.00000E+000	7.05524E-004	-3.27687E+002	7	...........
	331	332	4.06193E+000	-1.37917E-006	0.00000E+000	-5.60209E-006	0.00000E+000	7.07740E-004	-3.27687E+002	7	...........
	332	333	4.06192E+000	-1.37944E-006	0.00000E+000	-5.60318E-006	0.00000E+000	7.07857E-004	-3.27687E+002	7	...........
	333	334	4.06192E+000	-1.37918E-006	0.00000E+000	-5.60212E-006	0.00000E+000	7.06157E-004	-3.27687E+002	7	...........
	334	335	4.06191E+000	-1.37847E-006	0.00000E+000	-5.59923E-006	0.00000E+000	7.04857E-004	-3.27687E+002	7	...........
	335	336	4.06191E+000	-1.37781E-006	0.00000E+000	-5.59652E-006	0.00000E+000	7.08040E-004	-3.27687E+002	7	...........
	336	337	4.06190E+000	-1.37733E-006	0.00000E+000	-5.59458E-006	0.00000E+000	7.06940E-004	-3.27687E+002	7	...........
	337	338	4.06189E+000	-1.37835E-006	0.00000E+000	-5.59871E-006	0.00000E+000	7.04774E-004	-3.27687E+002	7	...........
	338	339	4.06188E+000	-1.37791E-006	0.00000E+000	-5.59689E-006	0.00000E+000	7.03290E-004	-3.27687E+002	7	...........
	339	340	4.06188E+000	-1.37829E-006	0.00000E+000	-5.59843E-006	0.00000E+000	7.03324E-004	-3.27687E+002	7	...........
	340	341	4.06186E+000	-1.37786E-006	0.00000E+000	-5.59667E-006	0.00000E+000	7.03407E-004	-3.27687E+002	7	...........
	341	342	4.06186E+000	-1.37731E-006	0.00000E+000	-5.59443E-006	0.00000E+000	7.02090E-004	-3.27687E+002	7	...........
	342	343	4.06186E+000	-1.37777E-006	0.00000E+000	-5.59631E-006	0.00000E+000	7.03290E-004	-3.27687E+002	7	...........
	343	344	4.06185E+000	-1.37758E-006	0.00000E+000	-5.59550E-006	0.00000E+000	7.04674E-004	-3.27687E+002	7	...........
	344	345	4.06184E+000	-1.37792E-006	0.00000E+000	-5.59691E-006	0.00000E+000	7.00224E-004	-3.27687E+002	7	...........
	345	346	4.06183E+000	-1.37922E-006	0.00000E+000	-5.60216E-006	0.00000E+000	7.03007E-004	-3.27687E+002	7	...........
	346	347	4.06183E+000	-1.37952E-006	0.00000E+000	-5.60336E-006	0.00000E+000	7.03140E-004	-3.27687E+002	7	...........
	347	348	4.06182E+000	-1.37939E-006	0.00000E+000	-5.60282E-006	0.00000E+000	7.01124E-004	-3.27687E+002	7	...........
	348	349	4.06181E+000	-1.37868E-006	0.00000E+000	-5.59993E-006	0.00000E+000	7.01757E-004	-3.27687E+002	7	...........
	349	350	4.06180E+000	-1.37863E-006	0.00000E+000	-5.59972E-006	0.00000E+000	7.02440E-004	-3.27687E+002	7	...........
	350	351	4.06180E+000	-1.37849E-006	0.00000E+000	-5.59916E-006	0.00000E+000	6.99740E-004	-3.27687E+002	7	...........
	351	352	4.06179E+000	-1.37921E-006	0.00000E+000	-5.60207E-006	0.00000E+000	7.01007E-004	-3.27687E+002	7	...........
	352	353	4.06179E+000	-1.37850E-006	0.00000E+000	-5.59916E-006	0.00000E+000	6.99407E-004	-3.27687E+002	7	...........
	353	354	4.06178E+000	-1.37939E-006	0.00000E+000	-5.60276E-006	0.00000E+000	7.02557E-004	-3.27687E+002	7	...........
	354	355	4.06178E+000	-1.37935E-006	0.00000E+000	-5.60263E-006	0.00000E+000	6.98774E-004	-3.27687E+002	7	...........
	355	356	4.06176E+000	-1.37876E-006	0.00000E+000	-5.60020E-006	0.00000E+000	7.02540E-004	-3.27687E+002	7	...........
	356	357	4.06176E+000	-1.37867E-006	0.00000E+000	-5.59982E-006	0.00000E+000	7.00457E-004	-3.27687E+002	7	...........
	357	358	4.06174E+000	-1.37834E-006	0.00000E+000	-5.59845E-006	0.00000E+000	7.02540E-004	-3.27687E+002	7	...........
	358	359	4.06173E+000	-1.37912E-006	0.00000E+000	-5.60163E-006	0.00000E+000	6.99824E-004	-3.27687E+002	7	...........
	359	360	4.06173E+000	-1.37944E-006	0.00000E+000	-5.60291E-006	0.00000E+000	7.00607E-004	-3.27687E+002	7	...........
	360	361	4.06172E+000	-1.37914E-006	0.00000E+000	-5.60169E-006	0.00000E+000	6.98424E-004	-3.27687E+002	7	...........
	361	362	4.06172E+000	-1.37951E-006	0.00000E+000	-5.60319E-006	0.00000E+000	7.00307E-004	-3.27687E+002	7	...........
	362	363	4.06171E+000	-1.37956E-006	0.00000E+000	-5.60336E-006	0.00000E+000	6.98207E-004	-3.27687E+002	7	...........
	363	364	4.06170E+000	-1.37984E-006	0.00000E+000	-5.60450E-006	0.00000E+000	7.01407E-004	-3.27687E+002	7	...........
	364	365	4.06170E+000	-1.37954E-006	0.00000E+000	-5.60328E-006	0.00000E+000	7.00324E-004	-3.27687E+002	7	...........
	365	366	4.06169E+000	-1.37940E-006	0.00000E+000	-5.60271E-006	0.00000E+000	7.01624E-004	-3.27687E+002	7	...........
	366	367	4.06169E+000	-1.37952E-006	0.00000E+000	-5.60317E-006	0.00000E+000	6.98090E-004	-3.27687E+002	7	...........
	367	368	4.06168E+000	-1.37971E-006	0.00000E+000	-5.60393E-006	0.00000E+000	6.96724E-004	-3.27687E+002	7	...........
	368	369	4.06166E+000	-1.38022E-006	0.00000E+000	-5.60598E-006	0.00000E+000	7.00090E-004	-3.27687E+002	7	...........
	369	370	4.06166E+000	-1.38016E-006	0.00000E+000	-5.60573E-006	0.00000E+000	6.96990E-004	-3.27687E+002	7	...........
	370	371	4.06165E+000	-1.37850E-006	0.00000E+000	-5.59898E-006	0.00000E+000	6.97474E-004	-3.27687E+002	7	...........
	371	372	4.06165E+000	-1.37785E-006	0.00000E+000	-5.59635E-006	0.00000E+000	6.98040E-004	-3.27687E+002	7	...........
	372	373	4.06163E+000	-1.37806E-006	0.00000E+000	-5.59716E-006	0.00000E+000	6.98757E-004	-3.27687E+002	7	...........
	373	374	4.06164E+000	-1.37839E-006	0.00000E+000	-5.59852E-006	0.00000E+000	6.96257E-004	-3.27687E+002	7	...........
	374	375	4.06163E+000	-1.37786E-006	0.00000E+000	-5.59635E-006	0.00000E+000	6.98924E-004	-3.27687E+002	7	...........
	375	376	4.06161E+000	-1.37815E-006	0.00000E+000	-5.59751E-006	0.00000E+000	6.97974E-004	-3.27687E+002	7	...........
	376	377	4.06160E+000	-1.37817E-006	0.00000E+000	-5.59757E-006	0.00000E+000	6.98124E-004	-3.27687E+002	7	...........
	377	378	4.06160E+000	-1.37844E-006	0.00000E+000	-5.59867E-006	0.00000E+000	6.96857E-004	-3.27687E+002	7	...........
	378	379	4.06159E+000	-1.37799E-006	0.00000E+000	-5.59682E-006	0.00000E+000	6.97257E-004	-3.27687E+002	7	...........
	379	380	4.06158E+000	-1.37841E-006	0.00000E+000	-5.59852E-006	0.00000E+000	6.95290E-004	-3.27687E+002	7	...........
	380	381	4.06157E+000	-1.37852E-006	0.00000E+000	-5.59897E-006	0.00000E+000	6.97124E-004	-3.27687E+002	7	...........
	381	382	4.06156E+000	-1.37784E-006	0.00000E+000	-5.59619E-006	0.00000E+000	6.97557E-004	-3.27687E+002	7	...........
	382	383	4.06156E+000	-1.37857E-006	0.00000E+000	-5.59914E-006	0.00000E+000	6.96090E-004	-3.27687E+002	7	...........
	383	384	4.06154E+000	-1.37845E-006	0.00000E+000	-5.59864E-006	0.00000E+000	6.97407E-004	-3.27687E+002	7	...........
	384	385	4.06154E+000	-1.37774E-006	0.00000E+000	-5.59575E-006	0.00000E+000	6.98474E-004	-3.27687E+002	7	...........
	385	386	4.06153E+000	-1.37917E-006	0.00000E+000	-5.60157E-006	0.00000E+000	6.99024E-004	-3.27687E+002	7	...........
	386	387	4.06151E+000	-1.37803E-006	0.00000E+000	-5.59687E-006	0.00000E+000	6.96724E-004	-3.27687E+002	7	...........
	387	388	4.06151E+000	-1.37858E-006	0.00000E+000	-5.59913E-006	0.00000E+000	6.94890E-004	-3.27687E+002	7	...........
	388	389	4.06150E+000	-1.37813E-006	0.00000E+000	-5.59729E-006	0.00000E+000	6.98057E-004	-3.27687E+002	7	...........
	389	390	4.06149E+000	-1.37820E-006	0.00000E+000	-5.59756E-006	0.00000E+000	6.96290E-004	-3.27687E+002	7	...........
	390	391	4.06149E+000	-1.37850E-006	0.00000E+000	-5.59877E-006	0.00000E+000	6.97674E-004	-3.27687E+002	7	...........
	391	392	4.06147E+000	-1.37810E-006	0.00000E+000	-5.59711E-006	0.00000E+000	6.96240E-004	-3.27687E+002	7	...........
	392	393	4.06146E+000	-1.37847E-006	0.00000E+000	-5.59861E-006	0.00000E+000	6.98090E-004	-3.27687E+002	7	...........
	393	394	4.06145E+000	-1.37863E-006	0.00000E+000	-5.59922E-006	0.00000E+000	6.94840E-004	-3.27687E+002	7	...........
	394	395	4.06144E+000	-1.37857E-006	0.00000E+000	-5.59897E-006	0.00000E+000	6.95557E-004	-3.27687E+002	7	...........
	395	396	4.06143E+000	-1.37887E-006	0.00000E+000	-5.60020E-006	0.00000E+000	6.96624E-004	-3.27687E+002	7	...........
	396	397	4.06144E+000	-1.37812E-006	0.00000E+000	-5.59715E-006	0.00000E+000	6.93924E-004	-3.27687E+002	7	...........
	397	398	4.06142E+000	-1.37702E-006	0.00000E+000	-5.59266E-006	0.00000E+000	6.97974E-004	-3.27687E+002	7	...........
	398	399	4.06142E+000	-1.37771E-006	0.00000E+000	-5.59545E-006	0.00000E+000	7.00557E-004	-3.27687E+002	7	...........
	399	400	4.06143E+000	-1.37765E-006	0.00000E+000	-5.59524E-006	0.00000E+000	6.95307E-004	-3.27687E+002	7	...........
	400	401	4.06142E+000	-1.37792E-006	0.00000E+000	-5.59632E-006	0.00000E+000	6.98674E-004	-3.27687E+002	7	...........
	401	402	4.06141E+000	-1.37758E-006	0.00000E+000	-5.59491E-006	0.00000E+000	6.97140E-004	-3.27687E+002	7	...........
	402	403	4.06139E+000	-1.37735E-006	0.00000E+000	-5.59394E-006	0.00000E+000	6.95874E-004	-3.27687E+002	7	...........
	403	404	4.06139E+000	-1.37784E-006	0.00000E+000	-5.59594E-006	0.00000E+000	6.96040E-004	-3.27687E+002	7	...........
	404	405	4.06138E+000	-1.37753E-006	0.00000E+000	-5.59469E-006	0.00000E+000	6.96724E-004	-3.27687E+002	7	...........
	405	406	4.06137E+000	-1.37756E-006	0.00000E+000	-5.59479E-006	0.00000E+000	6.96174E-004	-3.27687E+002	7	...........
	406	407	4.06137E+000	-1.37767E-006	0.00000E+000	-5.59524E-006	0.00000E+000	6.94190E-004	-3.27687E+002	7	...........
	407	408	4.06137E+000	-1.37830E-006	0.00000E+000	-5.59776E-006	0.00000E+000	6.94857E-004	-3.27687E+002	7	...........
	408	409	4.06135E+000	-1.37882E-006	0.00000E+000	-5.59985E-006	0.00000E+000	6.96874E-004	-3.27687E+002	7	...........
	409	410	4.06135E+000	-1.37812E-006	0.00000E+000	-5.59702E-006	0.00000E+000	6.97740E-004	-3.27687E+002	7	...........
	410	411	4.06134E+000	-1.37687E-006	0.00000E+000	-5.59194E-006	0.00000E+000	6.97340E-004	-3.27687E+002	7	...........
	411	412	4.06133E+000	-1.37715E-006	0.00000E+000	-5.59306E-006	0.00000E+000	6.98390E-004	-3.27687E+002	7	...........
	412	413	4.06132E+000	-1.37775E-006	0.00000E+000	-5.59548E-006	0.00000E+000	6.96457E-004	-3.27687E+002	7	...........
	413	414	4.06132E+000	-1.37834E-006	0.00000E+000	-5.59789E-006	0.00000E+000	6.99107E-004	-3.27687E+002	7	...........
	414	415	4.06130E+000	-1.37790E-006	0.00000E+000	-5.59608E-006	0.00000E+000	6.97057E-004	-3.27687E+002	7	...........
	415	416	4.06130E+000	-1.37819E-006	0.00000E+000	-5.59725E-006	0.00000E+000	6.96740E-004	-3.27687E+002	7	...........
	416	417	4.06129E+000	-1.37852E-006	0.00000E+000	-5.59859E-006	0.00000E+000	6.96824E-004	-3.27687E+002	7	...........
	417	418	4.06128E+000	-1.37862E-006	0.00000E+000	-5.59898E-006	0.00000E+000	6.99507E-004	-3.27687E+002	7	...........
	418	419	4.06128E+000	-1.37831E-006	0.00000E+000	-5.59769E-006	0.00000E+000	6.96774E-004	-3.27687E+002	7	...........
	419	420	4.06127E+000	-1.37847E-006	0.00000E+000	-5.59835E-006	0.00000E+000	6.97690E-004	-3.27687E+002	7	...........
	420	421	4.06127E+000	-1.37885E-006	0.00000E+000	-5.59989E-006	0.00000E+000	6.97407E-004	-3.27687E+002	7	...........
	421	422	4.06125E+000	-1.37836E-006	0.00000E+000	-5.59788E-006	0.00000E+000	6.97124E-004	-3.27687E+002	7	...........
	422	423	4.06125E+000	-1.37786E-006	0.00000E+000	-5.59584E-006	0.00000E+000	7.01390E-004	-3.27687E+002	7	...........
	423	424	4.06124E+000	-1.37679E-006	0.00000E+000	-5.59146E-006	0.00000E+000	6.97674E-004	-3.27687E+002	7	...........
	424	425	4.06123E+000	-1.37620E-006	0.00000E+000	-5.58908E-006	0.00000E+000	6.99107E-004	-3.27687E+002	7	...........
	425	426	4.06123E+000	-1.37807E-006	0.00000E+000	-5.59664E-006	0.00000E+000	6.99540E-004	-3.27687E+002	7	...........
	426	427	4.06123E+000	-1.37781E-006	0.00000E+000	-5.59561E-006	0.00000E+000	6.98924E-004	-3.27687E+002	7	...........
	427	428	4.06121E+000	-1.37818E-006	0.00000E+000	-5.59710E-006	0.00000E+000	6.96374E-004	-3.27687E+002	7	...........
	428	429	4.06122E+000	-1.37833E-006	0.00000E+000	-5.59772E-006	0.00000E+000	6.98507E-004	-3.27687E+002	7	...........
	429	430	4.06121E+000	-1.37744E-006	0.00000E+000	-5.59407E-006	0.00000E+000	6.97224E-004	-3.27687E+002	7	...........
	430	431	4.06120E+000	-1.37755E-006	0.00000E+000	-5.59452E-006	0.00000E+000	6.97107E-004	-3.27687E+002	7	...........
	431	432	4.06119E+000	-1.37776E-006	0.00000E+000	-5.59532E-006	0.00000E+000	6.96690E-004	-3.27687E+002	7	...........
	432	433	4.06119E+000	-1.37820E-006	0.00000E+000	-5.59714E-006	0.00000E+000	6.99224E-004	-3.27687E+002	7	...........
	433	434	4.06118E+000	-1.37758E-006	0.00000E+000	-5.59458E-006	0.00000E+000	6.97324E-004	-3.27687E+002	7	...........
	434	435	4.06116E+000	-1.37805E-006	0.00000E+000	-5.59650E-006	0.00000E+000	6.97807E-004	-3.27687E+002	7	...........
	435	436	4.06117E+000	-1.37759E-006	0.00000E+000	-5.59463E-006	0.00000E+000	6.99340E-004	-3.27687E+002	7	...........
	436	437	4.06116E+000	-1.37785E-006	0.00000E+000	-5.59568E-006	0.00000E+000	6.99424E-004	-3.27687E+002	7	...........
	437	438	4.06115E+000	-1.37787E-006	0.00000E+000	-5.59573E-006	0.00000E+000	6.98390E-004	-3.27687E+002	7	...........
	438	439	4.06114E+000	-1.37714E-006	0.00000E+000	-5.59278E-006	0.00000E+000	7.00557E-004	-3.27687E+002	7	...........
	439	440	4.06113E+000	-1.37813E-006	0.00000E+000	-5.59678E-006	0.00000E+000	7.00207E-004	-3.27687E+002	7	...........
	440	441	4.06112E+000	-1.37799E-006	0.00000E+000	-5.59618E-006	0.00000E+000	7.00724E-004	-3.27687E+002	7	...........
	441	442	4.06111E+000	-1.37702E-006	0.00000E+000	-5.59222E-006	0.00000E+000	6.99290E-004	-3.27687E+002	7	...........
	442	443	4.06111E+000	-1.37727E-006	0.00000E+000	-5.59325E-006	0.00000E+000	7.02040E-004	-3.27687E+002	7	...........
	443	444	4.06109E+000	-1.37733E-006	0.00000E+000	-5.59347E-006	0.00000E+000	7.01307E-004	-3.27687E+002	7	...........
	444	445	4.06109E+000	-1.37798E-006	0.00000E+000	-5.59610E-006	0.00000E+000	7.01057E-004	-3.27687E+002	7	...........
	445	446	4.06108E+000	-1.37701E-006	0.00000E+000	-5.59214E-006	0.00000E+000	7.02407E-004	-3.27687E+002	7	...........
	446	447	4.06108E+000	-1.37750E-006	0.00000E+000	-5.59415E-006	0.00000E+000	7.02407E-004	-3.27687E+002	7	...........
	447	448	4.06106E+000	-1.37759E-006	0.00000E+000	-5.59449E-006	0.00000E+000	7.02940E-004	-3.27687E+002	7	...........
	448	449	4.06106E+000	-1.37713E-006	0.00000E+000	-5.59261E-006	0.00000E+000	7.03207E-004	-3.27687E+002	7	...........
	449	450	4.06105E+000	-1.37709E-006	0.00000E+000	-5.59245E-006	0.00000E+000	7.03140E-004	-3.27687E+002	7	...........
	450	451	4.06105E+000	-1.37731E-006	0.00000E+000	-5.59332E-006	0.00000E+000	7.02507E-004	-3.27687E+002	7	...........
	451	452	4.06104E+000	-1.37666E-006	0.00000E+000	-5.59066E-006	0.00000E+000	7.01657E-004	-3.27687E+002	7	...........
	452	453	4.06103E+000	-1.37751E-006	0.00000E+000	-5.59410E-006	0.00000E+000	7.02890E-004	-3.27687E+002	7	...........
	453	454	4.06101E+000	-1.37754E-006	0.00000E+000	-5.59422E-006	0.00000E+000	7.03757E-004	-3.27687E+002	7	...........
	454	455	4.06102E+000	-1.37758E-006	0.00000E+000	-5.59436E-006	0.00000E+000	7.02657E-004	-3.27687E+002	7	...........
	455	456	4.06101E+000	-1.37750E-006	0.00000E+000	-5.59406E-006	0.00000E+000	7.02457E-004	-3.27687E+002	7	...........
	456	457	4.06101E+000	-1.37773E-006	0.00000E+000	-5.59499E-006	0.00000E+000	7.01157E-004	-3.27687E+002	7	...........
	457	458	4.06100E+000	-1.37813E-006	0.00000E+000	-5.59658E-006	0.00000E+000	7.01207E-004	-3.27687E+002	7	...........
	458	459	4.06099E+000	-1.37871E-006	0.00000E+000	-5.59895E-006	0.00000E+000	7.03374E-004	-3.27687E+002	7	...........
	459	460	4.06098E+000	-1.37888E-006	0.00000E+000	-5.59959E-006	0.00000E+000	7.04107E-004	-3.27687E+002	7	...........
	460	461	4.06099E+000	-1.37867E-006	0.00000E+000	-5.59876E-006	0.00000E+000	7.04090E-004	-3.27687E+002	7	...........
	461	462	4.06097E+000	-1.37877E-006	0.00000E+000	-5.59916E-006	0.00000E+000	7.06457E-004	-3.27687E+002	7	...........
	462	463	4.06097E+000	-1.37872E-006	0.00000E+000	-5.59896E-006	0.00000E+000	7.05607E-004	-3.27687E+002	7	...........
	463	464	4.06095E+000	-1.37813E-006	0.00000E+000	-5.59652E-006	0.00000E+000	7.05324E-004	-3.27687E+002	7	...........
	464	465	4.06095E+000	-1.37775E-006	0.00000E+000	-5.59497E-006	0.00000E+000	7.05007E-004	-3.27687E+002	7	...........
	465	466	4.06093E+000	-1.37753E-006	0.00000E+000	-5.59404E-006	0.00000E+000	7.02457E-004	-3.27687E+002	7	...........
	466	467	4.06092E+000	-1.37814E-006	0.00000E+000	-5.59650E-006	0.00000E+000	7.04207E-004	-3.27687E+002	7	...........
	467	468	4.06092E+000	-1.37814E-006	0.00000E+000	-5.59651E-006	0.00000E+000	7.02907E-004	-3.27687E+002	7	...........
	468	469	4.06092E+000	-1.37844E-006	0.00000E+000	-5.59772E-006	0.00000E+000	7.03207E-004	-3.27687E+002	7	...........
	469	470	4.06090E+000	-1.37805E-006	0.00000E+000	-5.59611E-006	0.00000E+000	7.04690E-004	-3.27687E+002	7	...........
	470	471	4.06091E+000	-1.37860E-006	0.00000E+000	-5.59835E-006	0.00000E+000	7.06374E-004	-3.27687E+002	7	...........
	471	472	4.06090E+000	-1.37799E-006	0.00000E+000	-5.59586E-006	0.00000E+000	7.06607E-004	-3.27687E+002	7	...........
	472	473	4.06088E+000	-1.37809E-006	0.00000E+000	-5.59627E-006	0.00000E+000	7.04040E-004	-3.27687E+002	7	...........
	473	474	4.06087E+000	-1.37848E-006	0.00000E+000	-5.59785E-006	0.00000E+000	7.05524E-004	-3.27687E+002	7	...........
	474	475	4.06087E+000	-1.37847E-006	0.00000E+000	-5.59780E-006	0.00000E+000	7.07040E-004	-3.27687E+002	7	...........
	475	476	4.06086E+000	-1.37845E-006	0.00000E+000	-5.59771E-006	0.00000E+000	7.08157E-004	-3.27687E+002	7	...........
	476	477	4.06086E+000	-1.37847E-006	0.00000E+000	-5.59776E-006	0.00000E+000	7.07374E-004	-3.27687E+002	7	...........
	477	478	4.06086E+000	-1.37774E-006	0.00000E+000	-5.59482E-006	0.00000E+000	7.07190E-004	-3.27687E+002	7	...........
	478	479	4.06084E+000	-1.37732E-006	0.00000E+000	-5.59309E-006	0.00000E+000	7.09640E-004	-3.27687E+002	7	...........
	479	480	4.06084E+000	-1.37732E-006	0.00000E+000	-5.59306E-006	0.00000E+000	7.07857E-004	-3.27687E+002	7	...........
	480	481	4.06083E+000	-1.37759E-006	0.00000E+000	-5.59416E-006	0.00000E+000	7.06607E-004	-3.27687E+002	7	...........
	481	482	4.06082E+000	-1.37751E-006	0.00000E+000	-5.59383E-006	0.00000E+000	7.10474E-004	-3.27687E+002	7	...........
	482	483	4.06081E+000	-1.37723E-006	0.00000E+000	-5.59267E-006	0.00000E+000	7.10190E-004	-3.27687E+002	7	...........
	483	484	4.06081E+000	-1.37713E-006	0.00000E+000	-5.59224E-006	0.00000E+000	7.10874E-004	-3.27687E+002	7	...........
	484	485	4.06080E+000	-1.37736E-006	0.00000E+000	-5.59318E-006	0.00000E+000	7.09190E-004	-3.27687E+002	7	...........
	485	486	4.06080E+000	-1.37697E-006	0.00000E+000	-5.59161E-006	0.00000E+000	7.08690E-004	-3.27687E+002	7	...........
	486	487	4.06079E+000	-1.37780E-006	0.00000E+000	-5.59495E-006	0.00000E+000	7.11090E-004	-3.27687E+002	7	...........
	487	488	4.06078E+000	-1.37823E-006	0.00000E+000	-5.59668E-006	0.00000E+000	7.08307E-004	-3.27687E+002	7	...........
	488	489	4.06077E+000	-1.37764E-006	0.00000E+000	-5.59426E-006	0.00000E+000	7.10274E-004	-3.27687E+002	7	...........
	489	490	4.06077E+000	-1.37778E-006	0.00000E+000	-5.59485E-006	0.00000E+000	7.10740E-004	-3.27687E+002	7	...........
	490	491	4.06077E+000	-1.37873E-006	0.00000E+000	-5.59870E-006	0.00000E+000	7.10190E-004	-3.27687E+002	7	...........
	491	492	4.06076E+000	-1.37805E-006	0.00000E+000	-5.59594E-006	0.00000E+000	7.08157E-004	-3.27687E+002	7	...........
	492	493	4.06075E+000	-1.37685E-006	0.00000E+000	-5.59103E-006	0.00000E+000	7.09790E-004	-3.27687E+002	7	...........
	493	494	4.06074E+000	-1.37769E-006	0.00000E+000	-5.59446E-006	0.00000E+000	7.09574E-004	-3.27687E+002	7	...........
	494	495	4.06074E+000	-1.37811E-006	0.00000E+000	-5.59615E-006	0.00000E+000	7.08674E-004	-3.27687E+002	7	...........
	495	496	4.06073E+000	-1.37784E-006	0.00000E+000	-5.59502E-006	0.00000E+000	7.12540E-004	-3.27687E+002	7	...........
	496	497	4.06072E+000	-1.37802E-006	0.00000E+000	-5.59577E-006	0.00000E+000	7.11357E-004	-3.27687E+002	7	...........
	497	498	4.06072E+000	-1.37743E-006	0.00000E+000	-5.59338E-006	0.00000E+000	7.10374E-004	-3.27687E+002	7	...........
	498	499	4.06072E+000	-1.37861E-006	0.00000E+000	-5.59814E-006	0.00000E+000	7.14324E-004	-3.27687E+002	7	...........
	499	500	4.06071E+000	-1.37783E-006	0.00000E+000	-5.59495E-006	0.00000E+000	7.10457E-004	-3.27687E+002	7	...........
	500	501	4.06071E+000	-1.37841E-006	0.00000E+000	-5.59733E-006	0.00000E+000	7.10990E-004	-3.27687E+002	7	...........
	501	502	4.06070E+000	-1.37764E-006	0.00000E+000	-5.59417E-006	0.00000E+000	7.11457E-004	-3.27687E+002	7	...........
	502	503	4.06069E+000	-1.37766E-006	0.00000E+000	-5.59424E-006	0.00000E+000	7.12357E-004	-3.27687E+002	7	...........
	503	504	4.06069E+000	-1.37736E-006	0.00000E+000	-5.59303E-006	0.00000E+000	7.12890E-004	-3.27687E+002	7	...........
	504	505	4.06068E+000	-1.37696E-006	0.00000E+000	-5.59141E-006	0.00000E+000	7.10040E-004	-3.27687E+002	7	...........
	505	506	4.06067E+000	-1.37630E-006	0.00000E+000	-5.58869E-006	0.00000E+000	7.14207E-004	-3.27687E+002	7	...........
	506	507	4.06067E+000	-1.37730E-006	0.00000E+000	-5.59276E-006	0.00000E+000	7.13374E-004	-3.27687E+002	7	...........
	507	508	4.06067E+000	-1.37704E-006	0.00000E+000	-5.59170E-006	0.00000E+000	7.14457E-004	-3.27687E+002	7	...........
	508	509	4.06066E+000	-1.37656E-006	0.00000E+000	-5.58976E-006	0.00000E+000	7.12007E-004	-3.27687E+002	7	...........
	509	510	4.06066E+000	-1.37746E-006	0.00000E+000	-5.59338E-006	0.00000E+000	7.12974E-004	-3.27687E+002	7	...........
	510	511	4.06066E+000	-1.37669E-006	0.00000E+000	-5.59025E-006	0.00000E+000	7.14340E-004	-3.27687E+002	7	...........
	511	512	4.06065E+000	-1.37623E-006	0.00000E+000	-5.58839E-006	0.00000E+000	7.13274E-004	-3.27687E+002	7	...........
	512	513	4.06064E+000	-1.37751E-006	0.00000E+000	-5.59357E-006	0.00000E+000	7.14407E-004	-3.27687E+002	7	...........
	513	514	4.06063E+000	-1.37703E-006	0.00000E+000	-5.59160E-006	0.00000E+000	7.12174E-004	-3.27687E+002	7	...........
	514	515	4.06064E+000	-1.37799E-006	0.00000E+000	-5.59550E-006	0.00000E+000	7.14690E-004	-3.27687E+002	7	...........
	515	516	4.06063E+000	-1.37804E-006	0.00000E+000	-5.59571E-006	0.00000E+000	7.10990E-004	-3.27687E+002	7	...........
	516	517	4.06063E+000	-1.37774E-006	0.00000E+000	-5.59447E-006	0.00000E+000	7.11974E-004	-3.27687E+002	7	...........
	517	518	4.06063E+000	-1.37680E-006	0.00000E+000	-5.59068E-006	0.00000E+000	7.14957E-004	-3.27687E+002	7	...........
	518	519	4.06061E+000	-1.37646E-006	0.00000E+000	-5.58928E-006	0.00000E+000	7.15174E-004	-3.27687E+002	7	...........
	519	520	4.06061E+000	-1.37585E-006	0.00000E+000	-5.58681E-006	0.00000E+000	7.13090E-004	-3.27687E+002	7	...........
	520	521	4.06060E+000	-1.37704E-006	0.00000E+000	-5.59160E-006	0.00000E+000	7.15640E-004	-3.27687E+002	7	...........
	521	522	4.06059E+000	-1.37641E-006	0.00000E+000	-5.58905E-006	0.00000E+000	7.16124E-004	-3.27687E+002	7	...........
	522	523	4.06059E+000	-1.37629E-006	0.00000E+000	-5.58856E-006	0.00000E+000	7.13507E-004	-3.27687E+002	7	...........
	523	524	4.06059E+000	-1.37619E-006	0.00000E+000	-5.58814E-006	0.00000E+000	7.14990E-004	-3.27687E+002	7	...........
	524	525	4.06058E+000	-1.37569E-006	0.00000E+000	-5.58611E-006	0.00000E+000	7.15324E-004	-3.27687E+002	7	...........
	525	526	4.06058E+000	-1.37550E-006	0.00000E+000	-5.58534E-006	0.00000E+000	7.14774E-004	-3.27687E+002	7	...........
	526	527	4.06058E+000	-1.37574E-006	0.00000E+000	-5.58628E-006	0.00000E+000	7.13840E-004	-3.27687E+002	7	...........
	527	528	4.06056E+000	-1.37609E-006	0.00000E+000	-5.58770E-006	0.00000E+000	7.14390E-004	-3.27687E+002	7	...........
	528	529	4.06056E+000	-1.37562E-006	0.00000E+000	-5.58579E-006	0.00000E+000	7.14624E-004	-3.27687E+002	7	...........
	529	530	4.06056E+000	-1.37547E-006	0.00000E+000	-5.58520E-006	0.00000E+000	7.16540E-004	-3.27687E+002	7	...........
	530	531	4.06055E+000	-1.37592E-006	0.00000E+000	-5.58701E-006	0.00000E+000	7.15557E-004	-3.27687E+002	7	...........
	531	532	4.06055E+000	-1.37545E-006	0.00000E+000	-5.58508E-006	0.00000E+000	7.14774E-004	-3.27687E+002	7	...........
	532	533	4.06055E+000	-1.37527E-006	0.00000E+000	-5.58435E-006	0.00000E+000	7.13940E-004	-3.27687E+002	7	...........
	533	534	4.06055E+000	-1.37501E-006	0.00000E+000	-5.58329E-006	0.00000E+000	7.15307E-004	-3.27687E+002	7	...........
	534	535	4.06054E+000	-1.37547E-006	0.00000E+000	-5.58518E-006	0.00000E+000	7.14790E-004	-3.27687E+002	7	...........
	535	536	4.06053E+000	-1.37552E-006	0.00000E+000	-5.58534E-006	0.00000E+000	7.13457E-004	-3.27687E+002	7	...........
	536	537	4.06053E+000	-1.37514E-006	0.00000E+000	-5.58378E-006	0.00000E+000	7.13774E-004	-3.27687E+002	7	...........
	537	538	4.06051E+000	-1.37600E-006	0.00000E+000	-5.58726E-006	0.00000E+000	7.13357E-004	-3.27687E+002	7	...........
	538	539	4.06051E+000	-1.37557E-006	0.00000E+000	-5.58552E-006	0.00000E+000	7.15257E-004	-3.27687E+002	7	...........
	539	540	4.06051E+000	-1.37616E-006	0.00000E+000	-5.58793E-006	0.00000E+000	7.14674E-004	-3.27687E+002	7	...........
	540	541	4.06050E+000	-1.37597E-006	0.00000E+000	-5.58715E-006	0.00000E+000	7.13607E-004	-3.27687E+002	7	...........
	541	542	4.06050E+000	-1.37591E-006	0.00000E+000	-5.58689E-006	0.00000E+000	7.16974E-004	-3.27687E+002	7	...........
	542	543	4.06049E+000	-1.37628E-006	0.00000E+000	-5.58835E-006	0.00000E+000	7.15424E-004	-3.27687E+002	7	...........
	543	544	4.06050E+000	-1.37639E-006	0.00000E+000	-5.58883E-006	0.00000E+000	7.18007E-004	-3.27687E+002	7	...........
	544	545	4.06049E+000	-1.37629E-006	0.00000E+000	-5.58840E-006	0.00000E+000	7.17524E-004	-3.27687E+002	7	...........
	545	546	4.06049E+000	-1.37529E-006	0.00000E+000	-5.58436E-006	0.00000E+000	7.16690E-004	-3.27687E+002	7	...........
	546	547	4.06049E+000	-1.37496E-006	0.00000E+000	-5.58301E-006	0.00000E+000	7.15790E-004	-3.27687E+002	7	...........
	547	548	4.06048E+000	-1.37546E-006	0.00000E+000	-5.58504E-006	0.00000E+000	7.15174E-004	-3.27687E+002	7	...........
	548	549	4.06048E+000	-1.37582E-006	0.00000E+000	-5.58648E-006	0.00000E+000	7.16690E-004	-3.27687E+002	7	...........
	549	550	4.06047E+000	-1.37554E-006	0.00000E+000	-5.58533E-006	0.00000E+000	7.15674E-004	-3.27687E+002	7	...........
	550	551	4.06048E+000	-1.37530E-006	0.00000E+000	-5.58437E-006	0.00000E+000	7.14757E-004	-3.27687E+002	7	...........
	551	552	4.06046E+000	-1.37630E-006	0.00000E+000	-5.58840E-006	0.00000E+000	7.15624E-004	-3.27687E+002	7	...........
	552	553	4.06045E+000	-1.37561E-006	0.00000E+000	-5.58560E-006	0.00000E+000	7.17924E-004	-3.27687E+002	7	...........
	553	554	4.06045E+000	-1.37668E-006	0.00000E+000	-5.58996E-006	0.00000E+000	7.15174E-004	-3.27687E+002	7	...........
	554	555	4.06045E+000	-1.37624E-006	0.00000E+000	-5.58816E-006	0.00000E+000	7.14740E-004	-3.27687E+002	7	...........
	555	556	4.06044E+000	-1.37604E-006	0.00000E+000	-5.58733E-006	0.00000E+000	7.15690E-004	-3.27687E+002	7	...........
	556	557	4.06044E+000	-1.37560E-006	0.00000E+000	-5.58552E-006	0.00000E+000	7.17074E-004	-3.27687E+002	7	...........
	557	558	4.06044E+000	-1.37599E-006	0.00000E+000	-5.58712E-006	0.00000E+000	7.15690E-004	-3.27687E+002	7	...........
	558	559	4.06043E+000	-1.37593E-006	0.00000E+000	-5.58686E-006	0.00000E+000	7.18007E-004	-3.27687E+002	7	...........
	559	560	4.06043E+000	-1.37541E-006	0.00000E+000	-5.58477E-006	0.00000E+000	7.15424E-004	-3.27687E+002	7	...........
	560	561	4.06043E+000	-1.37600E-006	0.00000E+000	-5.58714E-006	0.00000E+000	7.18224E-004	-3.27687E+002	7	...........
	561	562	4.06042E+000	-1.37610E-006	0.00000E+000	-5.58755E-006	0.00000E+000	7.13807E-004	-3.27687E+002	7	...........
	562	563	4.06042E+000	-1.37589E-006	0.00000E+000	-5.58669E-006	0.00000E+000	7.17890E-004	-3.27687E+002	7	...........
	563	564	4.06041E+000	-1.37619E-006	0.00000E+000	-5.58791E-006	0.00000E+000	7.17240E-004	-3.27687E+002	7	...........
	564	565	4.06041E+000	-1.37606E-006	0.00000E+000	-5.58735E-006	0.00000E+000	7.15624E-004	-3.27687E+002	7	...........
	565	566	4.06041E+000	-1.37641E-006	0.00000E+000	-5.58879E-006	0.00000E+000	7.15924E-004	-3.27687E+002	7	...........
	566	567	4.06040E+000	-1.37609E-006	0.00000E+000	-5.58750E-006	0.00000E+000	7.15974E-004	-3.27687E+002	7	...........
	567	568	4.06040E+000	-1.37619E-006	0.00000E+000	-5.58787E-006	0.00000E+000	7.15290E-004	-3.27687E+002	7	...........
	568	569	4.06040E+000	-1.37655E-006	0.00000E+000	-5.58933E-006	0.00000E+000	7.15890E-004	-3.27687E+002	7	...........
	569	570	4.06039E+000	-1.37696E-006	0.00000E+000	-5.59097E-006	0.00000E+000	7.17907E-004	-3.27687E+002	7	...........
	570	571	4.06038E+000	-1.37610E-006	0.00000E+000	-5.58750E-006	0.00000E+000	7.15907E-004	-3.27687E+002	7	...........
	571	572	4.06039E+000	-1.37603E-006	0.00000E+000	-5.58722E-006	0.00000E+000	7.17807E-004	-3.27687E+002	7	...........
	572	573	4.06038E+000	-1.37566E-006	0.00000E+000	-5.58572E-006	0.00000E+000	7.17540E-004	-3.27687E+002	7	...........
	573	574	4.06037E+000	-1.37623E-006	0.00000E+000	-5.58801E-006	0.00000E+000	7.18207E-004	-3.27687E+002	7	...........
	574	575	4.06038E+000	-1.37676E-006	0.00000E+000	-5.59015E-006	0.00000E+000	7.15840E-004	-3.27687E+002	7	...........
	575	576	4.06037E+000	-1.37641E-006	0.00000E+000	-5.58874E-006	0.00000E+000	7.13974E-004	-3.27687E+002	7	...........
	576	577	4.06037E+000	-1.37657E-006	0.00000E+000	-5.58940E-006	0.00000E+000	7.14774E-004	-3.27687E+002	7	...........
	577	578	4.06036E+000	-1.37702E-006	0.00000E+000	-5.59120E-006	0.00000E+000	7.15174E-004	-3.27687E+002	7	...........
	578	579	4.06037E+000	-1.37660E-006	0.00000E+000	-5.58951E-006	0.00000E+000	7.14474E-004	-3.27687E+002	7	...........
	579	580	4.06035E+000	-1.37652E-006	0.00000E+000	-5.58914E-006	0.00000E+000	7.16707E-004	-3.27687E+002	7	...........
	580	581	4.06035E+000	-1.37642E-006	0.00000E+000	-5.58874E-006	0.00000E+000	7.15090E-004	-3.27687E+002	7	...........
	581	582	4.06036E+000	-1.37658E-006	0.00000E+000	-5.58939E-006	0.00000E+000	7.15407E-004	-3.27687E+002	7	...........
	582	583	4.06035E+000	-1.37733E-006	0.00000E+000	-5.59245E-006	0.00000E+000	7.17357E-004	-3.27687E+002	7	...........
	583	584	4.06034E+000	-1.37688E-006	0.00000E+000	-5.59059E-006	0.00000E+000	7.16457E-004	-3.27687E+002	7	...........
	584	585	4.06033E+000	-1.37707E-006	0.00000E+000	-5.59135E-006	0.00000E+000	7.15590E-004	-3.27687E+002	7	...........
	585	586	4.06033E+000	-1.37543E-006	0.00000E+000	-5.58470E-006	0.00000E+000	7.15390E-004	-3.27687E+002	7	...........
	586	587	4.06032E+000	-1.37578E-006	0.00000E+000	-5.58610E-006	0.00000E+000	7.14774E-004	-3.27687E+002	7	...........
	587	588	4.06031E+000	-1.37685E-006	0.00000E+000	-5.59043E-006	0.00000E+000	7.15607E-004	-3.27687E+002	7	...........
	588	589	4.06031E+000	-1.37674E-006	0.00000E+000	-5.59002E-006	0.00000E+000	7.16974E-004	-3.27687E+002	7	...........
	589	590	4.06031E+000	-1.37660E-006	0.00000E+000	-5.58944E-006	0.00000E+000	7.16824E-004	-3.27687E+002	7	...........
	590	591	4.06031E+000	-1.37626E-006	0.00000E+000	-5.58805E-006	0.00000E+000	7.17540E-004	-3.27687E+002	7	...........
	591	592	4.06030E+000	-1.37621E-006	0.00000E+000	-5.58783E-006	0.00000E+000	7.16957E-004	-3.27687E+002	7	...........
	592	593	4.06030E+000	-1.37631E-006	0.00000E+000	-5.58823E-006	0.00000E+000	7.16457E-004	-3.27687E+002	7	...........
	593	594	4.06030E+000	-1.37630E-006	0.00000E+000	-5.58818E-006	0.00000E+000	7.15124E-004	-3.27687E+002	7	...........
	594	595	4.06030E+000	-1.37601E-006	0.00000E+000	-5.58700E-006	0.00000E+000	7.15824E-004	-3.27687E+002	7	...........
	595	596	4.06029E+000	-1.37695E-006	0.00000E+000	-5.59080E-006	0.00000E+000	7.16807E-004	-3.27687E+002	7	...........
	596	597	4.06029E+000	-1.37702E-006	0.00000E+000	-5.59110E-006	0.00000E+000	7.14224E-004	-3.27687E+002	7	...........
	597	598	4.06027E+000	-1.37725E-006	0.00000E+000	-5.59200E-006	0.00000E+000	7.16957E-004	-3.27687E+002	7	...........
	598	599	4.06028E+000	-1.37658E-006	0.00000E+000	-5.58931E-006	0.00000E+000	7.14224E-004	-3.27687E+002	7	...........
	599	600	4.06027E+000	-1.37614E-006	0.00000E+000	-5.58752E-006	0.00000E+000	7.14857E-004	-3.27687E+002	7	...........
