EXPLAIN
TAG	PWR800_READVOLTAGE
TITLE	LABEL	PWR Read Voltage	Test Identifier
DATE	LABEL	22.6.2024	Date
TIME	LABEL	8:19:33	Time
NOTES	NOTES	1	Notes...
	
PSTAT	PSTAT	REF600-12055	Potentiostat
CAPACITY	QUANT	1.00000E+000	Capacity (A-hr)
CELLTYPE	SELECTOR	1	Cell Type
WORKINGCONNECTION	SELECTOR	0	Working Connection
MAXTIME	VARIABLEANDUNITS	6.00000E+002	s	6.00000E+002	second(s)	Max Time
SAMPLETIME	QUANT	1.00000E+000	Sample Period (s)
STOPAT1	MULTIPARAM	0	0.00000E+000	Stop At 1	None	N/A
STOPAT2	MULTIPARAM	0	0.00000E+000	Stop At 2	None	N/A
AESBHCSELECTOR	TOGGLE	F	Save Both Half Cells
EOC	QUANT	3.666315	Open Circuit (V)
SEQUENCER	TOGGLE	TRUE	Run as Sequence
PSTATMODEL	IQUANT	4	Pstat Model
PSTATSECTION	LABEL	REF600-12055	Pstat Section
PSTATSERIALNO	LABEL	12055	Pstat Serial Number
CTRLMODE	IQUANT	0	Control Mode
ELECTROMETER	IQUANT	0	RE=0 or CS=1
IESTAB	IQUANT	0	I/E Stability
CASPEED	IQUANT	4	Control Amp Speed
CONVENTION	IQUANT	1	Current Convention
ICHRANGE	IQUANT	2	Ich Range
ICHRANGEMODE	TOGGLE	T	Ich Auto Range
ICHOFFSETENABLE	TOGGLE	F	Ich Offset Enable
ICHOFFSET	QUANT	0	Ich Offset (V)
ICHFILTER	IQUANT	1	Ich Filter
VCHRANGE	IQUANT	3	Vch Range
VCHRANGEMODE	TOGGLE	T	Vch Auto Range
VCHOFFSETENABLE	TOGGLE	F	Vch Offset Enable
VCHOFFSET	QUANT	0	Vch Offset (V)
VCHFILTER	IQUANT	1	Vch Filter
ACHRANGE	IQUANT	2	Ach Range
ACHOFFSETENABLE	TOGGLE	F	Ach Offset Enable
ACHOFFSET	QUANT	0	Ach Offset (V)
ACHFILTER	IQUANT	1	Ach Filter
IERANGELOWERLIMIT	IQUANT	7	I/E Range Lower Limit
IERANGEMODE	TOGGLE	F	I/E AutoRange
IERANGE	IQUANT	11	I/E Range
POSFEEDENABLE	TOGGLE	F	Positive Feedback IR Comp
POSFEEDRESISTANCE	QUANT	0	Positive Feedback Resistance (ohm)
ACHSELECT	IQUANT	4	Ach Select
SENSECABLEID	IQUANT	14	Sense Cable ID
PWRCABLEID	IQUANT	14	Power Cable ID
DCCALDATE	LABEL	2/12/2024	DC Calibration Date
ACCALDATE	LABEL	2/12/2024	AC Calibration Date
THERMOSELECT	IQUANT	1	Thermo Select
FRAMEWORKVERSION	LABEL	7.10.3	Framework Version
INSTRUMENTVERSION	LABEL	4.91	Instrument Version
COMMVERSION	LABEL	2.24	Communications Version
CPUPLDVERSION	LABEL	0.00	CPU PLD Version
CTRLPLDVERSION	LABEL	0.00	CTRL PLD Version
PSTATPLDVERSION	LABEL	0.00	PSTAT PLD Version
CURVE	TABLE	600
	Pt	T	Vf	Im	Vu	Pwr	Sig	Ach	Temp	IERange	Over
	#	s	V	A	V	W	V	V	deg C	#	bits
	0	1	3.59385E+000	-1.46112E-006	0.00000E+000	-5.25104E-006	0.00000E+000	8.78357E-004	-3.27687E+002	7	...........
	1	2	3.59413E+000	-1.46065E-006	0.00000E+000	-5.24976E-006	0.00000E+000	8.77774E-004	-3.27687E+002	7	...........
	2	3	3.59432E+000	-1.46205E-006	0.00000E+000	-5.25509E-006	0.00000E+000	8.78474E-004	-3.27687E+002	7	...........
	3	4	3.59450E+000	-1.46178E-006	0.00000E+000	-5.25436E-006	0.00000E+000	8.79107E-004	-3.27687E+002	7	...........
	4	5	3.59463E+000	-1.46149E-006	0.00000E+000	-5.25351E-006	0.00000E+000	8.78774E-004	-3.27687E+002	7	...........
	5	6	3.59475E+000	-1.46074E-006	0.00000E+000	-5.25099E-006	0.00000E+000	8.77024E-004	-3.27687E+002	7	...........
	6	7	3.59486E+000	-1.46132E-006	0.00000E+000	-5.25324E-006	0.00000E+000	8.80824E-004	-3.27687E+002	7	...........
	7	8	3.59495E+000	-1.46116E-006	0.00000E+000	-5.25279E-006	0.00000E+000	8.81890E-004	-3.27687E+002	7	...........
	8	9	3.59505E+000	-1.46181E-006	0.00000E+000	-5.25529E-006	0.00000E+000	8.81940E-004	-3.27687E+002	7	...........
	9	10	3.59515E+000	-1.46089E-006	0.00000E+000	-5.25211E-006	0.00000E+000	8.81507E-004	-3.27687E+002	7	...........
	10	11	3.59525E+000	-1.46100E-006	0.00000E+000	-5.25267E-006	0.00000E+000	8.85957E-004	-3.27687E+002	7	...........
	11	12	3.59535E+000	-1.46064E-006	0.00000E+000	-5.25151E-006	0.00000E+000	8.84107E-004	-3.27687E+002	7	...........
	12	13	3.59543E+000	-1.46153E-006	0.00000E+000	-5.25483E-006	0.00000E+000	8.84907E-004	-3.27687E+002	7	...........
	13	14	3.59552E+000	-1.46102E-006	0.00000E+000	-5.25313E-006	0.00000E+000	8.85390E-004	-3.27687E+002	7	...........
	14	15	3.59558E+000	-1.46168E-006	0.00000E+000	-5.25561E-006	0.00000E+000	8.85190E-004	-3.27687E+002	7	...........
	15	16	3.59566E+000	-1.46128E-006	0.00000E+000	-5.25425E-006	0.00000E+000	8.87340E-004	-3.27687E+002	7	...........
	16	17	3.59572E+000	-1.46058E-006	0.00000E+000	-5.25183E-006	0.00000E+000	8.87707E-004	-3.27687E+002	7	...........
	17	18	3.59578E+000	-1.46018E-006	0.00000E+000	-5.25048E-006	0.00000E+000	8.87390E-004	-3.27687E+002	7	...........
	18	19	3.59584E+000	-1.46084E-006	0.00000E+000	-5.25296E-006	0.00000E+000	8.90340E-004	-3.27687E+002	7	...........
	19	20	3.59589E+000	-1.46117E-006	0.00000E+000	-5.25423E-006	0.00000E+000	8.95324E-004	-3.27687E+002	7	...........
	20	21	3.59594E+000	-1.46074E-006	0.00000E+000	-5.25274E-006	0.00000E+000	7.66557E-004	-3.27687E+002	7	...........
	21	22	3.59601E+000	-1.45975E-006	0.00000E+000	-5.24927E-006	0.00000E+000	7.09357E-004	-3.27687E+002	7	...........
	22	23	3.59605E+000	-1.45997E-006	0.00000E+000	-5.25013E-006	0.00000E+000	7.10324E-004	-3.27687E+002	7	...........
	23	24	3.59611E+000	-1.46029E-006	0.00000E+000	-5.25135E-006	0.00000E+000	7.12990E-004	-3.27687E+002	7	...........
	24	25	3.59617E+000	-1.46037E-006	0.00000E+000	-5.25174E-006	0.00000E+000	7.11074E-004	-3.27687E+002	7	...........
	25	26	3.59623E+000	-1.46078E-006	0.00000E+000	-5.25331E-006	0.00000E+000	7.11624E-004	-3.27687E+002	7	...........
	26	27	3.59630E+000	-1.46066E-006	0.00000E+000	-5.25297E-006	0.00000E+000	7.13874E-004	-3.27687E+002	7	...........
	27	28	3.59637E+000	-1.46027E-006	0.00000E+000	-5.25166E-006	0.00000E+000	7.12674E-004	-3.27687E+002	7	...........
	28	29	3.59644E+000	-1.45974E-006	0.00000E+000	-5.24988E-006	0.00000E+000	7.12174E-004	-3.27687E+002	7	...........
	29	30	3.59652E+000	-1.45941E-006	0.00000E+000	-5.24880E-006	0.00000E+000	7.12974E-004	-3.27687E+002	7	...........
	30	31	3.59659E+000	-1.45982E-006	0.00000E+000	-5.25037E-006	0.00000E+000	7.12040E-004	-3.27687E+002	7	...........
	31	32	3.59667E+000	-1.45944E-006	0.00000E+000	-5.24913E-006	0.00000E+000	7.09190E-004	-3.27687E+002	7	...........
	32	33	3.59674E+000	-1.45958E-006	0.00000E+000	-5.24973E-006	0.00000E+000	7.09140E-004	-3.27687E+002	7	...........
	33	34	3.59682E+000	-1.45835E-006	0.00000E+000	-5.24541E-006	0.00000E+000	7.09107E-004	-3.27687E+002	7	...........
	34	35	3.59690E+000	-1.45901E-006	0.00000E+000	-5.24791E-006	0.00000E+000	7.08074E-004	-3.27687E+002	7	...........
	35	36	3.59698E+000	-1.45965E-006	0.00000E+000	-5.25032E-006	0.00000E+000	7.04674E-004	-3.27687E+002	7	...........
	36	37	3.59705E+000	-1.45859E-006	0.00000E+000	-5.24661E-006	0.00000E+000	7.06690E-004	-3.27687E+002	7	...........
	37	38	3.59712E+000	-1.45947E-006	0.00000E+000	-5.24987E-006	0.00000E+000	7.04324E-004	-3.27687E+002	7	...........
	38	39	3.59718E+000	-1.45997E-006	0.00000E+000	-5.25177E-006	0.00000E+000	7.04640E-004	-3.27687E+002	7	...........
	39	40	3.59723E+000	-1.45872E-006	0.00000E+000	-5.24736E-006	0.00000E+000	7.02657E-004	-3.27687E+002	7	...........
	40	41	3.59729E+000	-1.45922E-006	0.00000E+000	-5.24923E-006	0.00000E+000	7.01257E-004	-3.27687E+002	7	...........
	41	42	3.59735E+000	-1.45844E-006	0.00000E+000	-5.24652E-006	0.00000E+000	7.00590E-004	-3.27687E+002	7	...........
	42	43	3.59741E+000	-1.45902E-006	0.00000E+000	-5.24868E-006	0.00000E+000	7.00457E-004	-3.27687E+002	7	...........
	43	44	3.59746E+000	-1.45892E-006	0.00000E+000	-5.24838E-006	0.00000E+000	6.98840E-004	-3.27687E+002	7	...........
	44	45	3.59751E+000	-1.45794E-006	0.00000E+000	-5.24497E-006	0.00000E+000	7.03190E-004	-3.27687E+002	7	...........
	45	46	3.59756E+000	-1.45794E-006	0.00000E+000	-5.24504E-006	0.00000E+000	7.00407E-004	-3.27687E+002	7	...........
	46	47	3.59760E+000	-1.45770E-006	0.00000E+000	-5.24423E-006	0.00000E+000	7.00390E-004	-3.27687E+002	7	...........
	47	48	3.59766E+000	-1.45897E-006	0.00000E+000	-5.24889E-006	0.00000E+000	6.98407E-004	-3.27687E+002	7	...........
	48	49	3.59770E+000	-1.45951E-006	0.00000E+000	-5.25089E-006	0.00000E+000	6.98624E-004	-3.27687E+002	7	...........
	49	50	3.59775E+000	-1.45892E-006	0.00000E+000	-5.24884E-006	0.00000E+000	6.97140E-004	-3.27687E+002	7	...........
	50	51	3.59780E+000	-1.45857E-006	0.00000E+000	-5.24764E-006	0.00000E+000	6.98857E-004	-3.27687E+002	7	...........
	51	52	3.59784E+000	-1.45824E-006	0.00000E+000	-5.24652E-006	0.00000E+000	6.99540E-004	-3.27687E+002	7	...........
	52	53	3.59789E+000	-1.45805E-006	0.00000E+000	-5.24591E-006	0.00000E+000	6.97607E-004	-3.27687E+002	7	...........
	53	54	3.59792E+000	-1.45789E-006	0.00000E+000	-5.24539E-006	0.00000E+000	6.98774E-004	-3.27687E+002	7	...........
	54	55	3.59796E+000	-1.45877E-006	0.00000E+000	-5.24859E-006	0.00000E+000	6.98440E-004	-3.27687E+002	7	...........
	55	56	3.59801E+000	-1.45853E-006	0.00000E+000	-5.24780E-006	0.00000E+000	6.99207E-004	-3.27687E+002	7	...........
	56	57	3.59805E+000	-1.45791E-006	0.00000E+000	-5.24565E-006	0.00000E+000	6.96007E-004	-3.27687E+002	7	...........
	57	58	3.59808E+000	-1.45810E-006	0.00000E+000	-5.24635E-006	0.00000E+000	6.95957E-004	-3.27687E+002	7	...........
	58	59	3.59812E+000	-1.45742E-006	0.00000E+000	-5.24398E-006	0.00000E+000	6.95857E-004	-3.27687E+002	7	...........
	59	60	3.59816E+000	-1.45795E-006	0.00000E+000	-5.24593E-006	0.00000E+000	6.95157E-004	-3.27687E+002	7	...........
	60	61	3.59819E+000	-1.45790E-006	0.00000E+000	-5.24579E-006	0.00000E+000	6.94240E-004	-3.27687E+002	7	...........
	61	62	3.59823E+000	-1.45814E-006	0.00000E+000	-5.24673E-006	0.00000E+000	6.97474E-004	-3.27687E+002	7	...........
	62	63	3.59827E+000	-1.45725E-006	0.00000E+000	-5.24359E-006	0.00000E+000	6.95474E-004	-3.27687E+002	7	...........
	63	64	3.59830E+000	-1.45801E-006	0.00000E+000	-5.24637E-006	0.00000E+000	6.97040E-004	-3.27687E+002	7	...........
	64	65	3.59834E+000	-1.45688E-006	0.00000E+000	-5.24237E-006	0.00000E+000	6.95174E-004	-3.27687E+002	7	...........
	65	66	3.59838E+000	-1.45720E-006	0.00000E+000	-5.24357E-006	0.00000E+000	6.92824E-004	-3.27687E+002	7	...........
	66	67	3.59842E+000	-1.45770E-006	0.00000E+000	-5.24540E-006	0.00000E+000	6.92457E-004	-3.27687E+002	7	...........
	67	68	3.59846E+000	-1.45690E-006	0.00000E+000	-5.24260E-006	0.00000E+000	6.92624E-004	-3.27687E+002	7	...........
	68	69	3.59850E+000	-1.45721E-006	0.00000E+000	-5.24375E-006	0.00000E+000	6.89474E-004	-3.27687E+002	7	...........
	69	70	3.59854E+000	-1.45691E-006	0.00000E+000	-5.24275E-006	0.00000E+000	6.88324E-004	-3.27687E+002	7	...........
	70	71	3.59857E+000	-1.45688E-006	0.00000E+000	-5.24270E-006	0.00000E+000	6.87557E-004	-3.27687E+002	7	...........
	71	72	3.59861E+000	-1.45705E-006	0.00000E+000	-5.24335E-006	0.00000E+000	6.85540E-004	-3.27687E+002	7	...........
	72	73	3.59864E+000	-1.45785E-006	0.00000E+000	-5.24627E-006	0.00000E+000	6.87374E-004	-3.27687E+002	7	...........
	73	74	3.59868E+000	-1.45735E-006	0.00000E+000	-5.24454E-006	0.00000E+000	6.82890E-004	-3.27687E+002	7	...........
	74	75	3.59871E+000	-1.45694E-006	0.00000E+000	-5.24313E-006	0.00000E+000	6.81774E-004	-3.27687E+002	7	...........
	75	76	3.59876E+000	-1.45684E-006	0.00000E+000	-5.24283E-006	0.00000E+000	6.81824E-004	-3.27687E+002	7	...........
	76	77	3.59880E+000	-1.45613E-006	0.00000E+000	-5.24030E-006	0.00000E+000	6.80190E-004	-3.27687E+002	7	...........
	77	78	3.59883E+000	-1.45625E-006	0.00000E+000	-5.24080E-006	0.00000E+000	6.78557E-004	-3.27687E+002	7	...........
	78	79	3.59887E+000	-1.45671E-006	0.00000E+000	-5.24253E-006	0.00000E+000	6.79174E-004	-3.27687E+002	7	...........
	79	80	3.59890E+000	-1.45677E-006	0.00000E+000	-5.24276E-006	0.00000E+000	6.77274E-004	-3.27687E+002	7	...........
	80	81	3.59893E+000	-1.45658E-006	0.00000E+000	-5.24214E-006	0.00000E+000	6.78490E-004	-3.27687E+002	7	...........
	81	82	3.59897E+000	-1.45688E-006	0.00000E+000	-5.24325E-006	0.00000E+000	6.78707E-004	-3.27687E+002	7	...........
	82	83	3.59901E+000	-1.45620E-006	0.00000E+000	-5.24087E-006	0.00000E+000	6.76524E-004	-3.27687E+002	7	...........
	83	84	3.59904E+000	-1.45667E-006	0.00000E+000	-5.24260E-006	0.00000E+000	6.77274E-004	-3.27687E+002	7	...........
	84	85	3.59906E+000	-1.45660E-006	0.00000E+000	-5.24239E-006	0.00000E+000	6.79624E-004	-3.27687E+002	7	...........
	85	86	3.59909E+000	-1.45670E-006	0.00000E+000	-5.24281E-006	0.00000E+000	6.77190E-004	-3.27687E+002	7	...........
	86	87	3.59913E+000	-1.45563E-006	0.00000E+000	-5.23898E-006	0.00000E+000	6.77074E-004	-3.27687E+002	7	...........
	87	88	3.59917E+000	-1.45587E-006	0.00000E+000	-5.23990E-006	0.00000E+000	6.78024E-004	-3.27687E+002	7	...........
	88	89	3.59919E+000	-1.45525E-006	0.00000E+000	-5.23773E-006	0.00000E+000	6.77324E-004	-3.27687E+002	7	...........
	89	90	3.59923E+000	-1.45614E-006	0.00000E+000	-5.24097E-006	0.00000E+000	6.76740E-004	-3.27687E+002	7	...........
	90	91	3.59925E+000	-1.45590E-006	0.00000E+000	-5.24015E-006	0.00000E+000	6.77190E-004	-3.27687E+002	7	...........
	91	92	3.59929E+000	-1.45570E-006	0.00000E+000	-5.23949E-006	0.00000E+000	6.78257E-004	-3.27687E+002	7	...........
	92	93	3.59931E+000	-1.45512E-006	0.00000E+000	-5.23742E-006	0.00000E+000	6.79090E-004	-3.27687E+002	7	...........
	93	94	3.59935E+000	-1.45541E-006	0.00000E+000	-5.23853E-006	0.00000E+000	6.78324E-004	-3.27687E+002	7	...........
	94	95	3.59936E+000	-1.45530E-006	0.00000E+000	-5.23814E-006	0.00000E+000	6.80224E-004	-3.27687E+002	7	...........
	95	96	3.59939E+000	-1.45575E-006	0.00000E+000	-5.23980E-006	0.00000E+000	6.79824E-004	-3.27687E+002	7	...........
	96	97	3.59941E+000	-1.45583E-006	0.00000E+000	-5.24013E-006	0.00000E+000	6.76990E-004	-3.27687E+002	7	...........
	97	98	3.59945E+000	-1.45593E-006	0.00000E+000	-5.24054E-006	0.00000E+000	6.78740E-004	-3.27687E+002	7	...........
	98	99	3.59947E+000	-1.45563E-006	0.00000E+000	-5.23950E-006	0.00000E+000	6.76724E-004	-3.27687E+002	7	...........
	99	100	3.59949E+000	-1.45523E-006	0.00000E+000	-5.23807E-006	0.00000E+000	6.77190E-004	-3.27687E+002	7	...........
	100	101	3.59952E+000	-1.45458E-006	0.00000E+000	-5.23577E-006	0.00000E+000	6.76140E-004	-3.27687E+002	7	...........
	101	102	3.59956E+000	-1.45490E-006	0.00000E+000	-5.23699E-006	0.00000E+000	6.75674E-004	-3.27687E+002	7	...........
	102	103	3.59958E+000	-1.45501E-006	0.00000E+000	-5.23742E-006	0.00000E+000	6.75774E-004	-3.27687E+002	7	...........
	103	104	3.59960E+000	-1.45492E-006	0.00000E+000	-5.23711E-006	0.00000E+000	6.76774E-004	-3.27687E+002	7	...........
	104	105	3.59962E+000	-1.45493E-006	0.00000E+000	-5.23719E-006	0.00000E+000	6.76824E-004	-3.27687E+002	7	...........
	105	106	3.59965E+000	-1.45431E-006	0.00000E+000	-5.23502E-006	0.00000E+000	6.76374E-004	-3.27687E+002	7	...........
	106	107	3.59968E+000	-1.45450E-006	0.00000E+000	-5.23572E-006	0.00000E+000	6.74507E-004	-3.27687E+002	7	...........
	107	108	3.59971E+000	-1.45470E-006	0.00000E+000	-5.23649E-006	0.00000E+000	6.77074E-004	-3.27687E+002	7	...........
	108	109	3.59973E+000	-1.45503E-006	0.00000E+000	-5.23771E-006	0.00000E+000	6.75474E-004	-3.27687E+002	7	...........
	109	110	3.59976E+000	-1.45538E-006	0.00000E+000	-5.23902E-006	0.00000E+000	6.71440E-004	-3.27687E+002	7	...........
	110	111	3.59979E+000	-1.45515E-006	0.00000E+000	-5.23825E-006	0.00000E+000	6.75157E-004	-3.27687E+002	7	...........
	111	112	3.59981E+000	-1.45394E-006	0.00000E+000	-5.23390E-006	0.00000E+000	6.73540E-004	-3.27687E+002	7	...........
	112	113	3.59984E+000	-1.45389E-006	0.00000E+000	-5.23377E-006	0.00000E+000	6.72290E-004	-3.27687E+002	7	...........
	113	114	3.59985E+000	-1.45416E-006	0.00000E+000	-5.23478E-006	0.00000E+000	6.72074E-004	-3.27687E+002	7	...........
	114	115	3.59988E+000	-1.45472E-006	0.00000E+000	-5.23683E-006	0.00000E+000	6.69240E-004	-3.27687E+002	7	...........
	115	116	3.59992E+000	-1.45436E-006	0.00000E+000	-5.23559E-006	0.00000E+000	6.69740E-004	-3.27687E+002	7	...........
	116	117	3.59994E+000	-1.45380E-006	0.00000E+000	-5.23359E-006	0.00000E+000	6.70324E-004	-3.27687E+002	7	...........
	117	118	3.59996E+000	-1.45306E-006	0.00000E+000	-5.23098E-006	0.00000E+000	6.72090E-004	-3.27687E+002	7	...........
	118	119	3.59998E+000	-1.45429E-006	0.00000E+000	-5.23543E-006	0.00000E+000	6.69340E-004	-3.27687E+002	7	...........
	119	120	3.60002E+000	-1.45408E-006	0.00000E+000	-5.23470E-006	0.00000E+000	6.67474E-004	-3.27687E+002	7	...........
	120	121	3.60004E+000	-1.45457E-006	0.00000E+000	-5.23651E-006	0.00000E+000	6.65124E-004	-3.27687E+002	7	...........
	121	122	3.60007E+000	-1.45457E-006	0.00000E+000	-5.23654E-006	0.00000E+000	6.65774E-004	-3.27687E+002	7	...........
	122	123	3.60010E+000	-1.45447E-006	0.00000E+000	-5.23623E-006	0.00000E+000	6.63057E-004	-3.27687E+002	7	...........
	123	124	3.60013E+000	-1.45344E-006	0.00000E+000	-5.23258E-006	0.00000E+000	6.64957E-004	-3.27687E+002	7	...........
	124	125	3.60016E+000	-1.45275E-006	0.00000E+000	-5.23012E-006	0.00000E+000	6.63524E-004	-3.27687E+002	7	...........
	125	126	3.60019E+000	-1.45380E-006	0.00000E+000	-5.23395E-006	0.00000E+000	6.60557E-004	-3.27687E+002	7	...........
	126	127	3.60021E+000	-1.45315E-006	0.00000E+000	-5.23165E-006	0.00000E+000	6.62390E-004	-3.27687E+002	7	...........
	127	128	3.60022E+000	-1.45265E-006	0.00000E+000	-5.22986E-006	0.00000E+000	6.58724E-004	-3.27687E+002	7	...........
	128	129	3.60026E+000	-1.45248E-006	0.00000E+000	-5.22930E-006	0.00000E+000	6.59640E-004	-3.27687E+002	7	...........
	129	130	3.60029E+000	-1.45253E-006	0.00000E+000	-5.22951E-006	0.00000E+000	6.60157E-004	-3.27687E+002	7	...........
	130	131	3.60031E+000	-1.45301E-006	0.00000E+000	-5.23128E-006	0.00000E+000	6.55074E-004	-3.27687E+002	7	...........
	131	132	3.60033E+000	-1.45361E-006	0.00000E+000	-5.23347E-006	0.00000E+000	6.55440E-004	-3.27687E+002	7	...........
	132	133	3.60036E+000	-1.45360E-006	0.00000E+000	-5.23348E-006	0.00000E+000	6.55840E-004	-3.27687E+002	7	...........
	133	134	3.60038E+000	-1.45398E-006	0.00000E+000	-5.23488E-006	0.00000E+000	6.54657E-004	-3.27687E+002	7	...........
	134	135	3.60041E+000	-1.45340E-006	0.00000E+000	-5.23284E-006	0.00000E+000	6.52774E-004	-3.27687E+002	7	...........
	135	136	3.60043E+000	-1.45287E-006	0.00000E+000	-5.23095E-006	0.00000E+000	6.52490E-004	-3.27687E+002	7	...........
	136	137	3.60045E+000	-1.45265E-006	0.00000E+000	-5.23018E-006	0.00000E+000	6.52424E-004	-3.27687E+002	7	...........
	137	138	3.60048E+000	-1.45267E-006	0.00000E+000	-5.23032E-006	0.00000E+000	6.51057E-004	-3.27687E+002	7	...........
	138	139	3.60050E+000	-1.45289E-006	0.00000E+000	-5.23112E-006	0.00000E+000	6.51040E-004	-3.27687E+002	7	...........
	139	140	3.60051E+000	-1.45244E-006	0.00000E+000	-5.22952E-006	0.00000E+000	6.48090E-004	-3.27687E+002	7	...........
	140	141	3.60055E+000	-1.45242E-006	0.00000E+000	-5.22949E-006	0.00000E+000	6.47990E-004	-3.27687E+002	7	...........
	141	142	3.60057E+000	-1.45206E-006	0.00000E+000	-5.22824E-006	0.00000E+000	6.48190E-004	-3.27687E+002	7	...........
	142	143	3.60058E+000	-1.45266E-006	0.00000E+000	-5.23043E-006	0.00000E+000	6.49257E-004	-3.27687E+002	7	...........
	143	144	3.60060E+000	-1.45311E-006	0.00000E+000	-5.23208E-006	0.00000E+000	6.46057E-004	-3.27687E+002	7	...........
	144	145	3.60062E+000	-1.45355E-006	0.00000E+000	-5.23369E-006	0.00000E+000	6.47807E-004	-3.27687E+002	7	...........
	145	146	3.60065E+000	-1.45265E-006	0.00000E+000	-5.23049E-006	0.00000E+000	6.50840E-004	-3.27687E+002	7	...........
	146	147	3.60068E+000	-1.45208E-006	0.00000E+000	-5.22846E-006	0.00000E+000	6.49157E-004	-3.27687E+002	7	...........
	147	148	3.60070E+000	-1.45127E-006	0.00000E+000	-5.22557E-006	0.00000E+000	6.48740E-004	-3.27687E+002	7	...........
	148	149	3.60072E+000	-1.45157E-006	0.00000E+000	-5.22669E-006	0.00000E+000	6.48474E-004	-3.27687E+002	7	...........
	149	150	3.60075E+000	-1.45233E-006	0.00000E+000	-5.22949E-006	0.00000E+000	6.50807E-004	-3.27687E+002	7	...........
	150	151	3.60076E+000	-1.45195E-006	0.00000E+000	-5.22812E-006	0.00000E+000	6.48574E-004	-3.27687E+002	7	...........
	151	152	3.60078E+000	-1.45140E-006	0.00000E+000	-5.22616E-006	0.00000E+000	6.49440E-004	-3.27687E+002	7	...........
	152	153	3.60080E+000	-1.45156E-006	0.00000E+000	-5.22679E-006	0.00000E+000	6.48657E-004	-3.27687E+002	7	...........
	153	154	3.60083E+000	-1.45173E-006	0.00000E+000	-5.22742E-006	0.00000E+000	6.51057E-004	-3.27687E+002	7	...........
	154	155	3.60085E+000	-1.45169E-006	0.00000E+000	-5.22730E-006	0.00000E+000	6.50890E-004	-3.27687E+002	7	...........
	155	156	3.60087E+000	-1.45213E-006	0.00000E+000	-5.22895E-006	0.00000E+000	6.52307E-004	-3.27687E+002	7	...........
	156	157	3.60090E+000	-1.45212E-006	0.00000E+000	-5.22895E-006	0.00000E+000	6.54057E-004	-3.27687E+002	7	...........
	157	158	3.60092E+000	-1.45225E-006	0.00000E+000	-5.22944E-006	0.00000E+000	6.52674E-004	-3.27687E+002	7	...........
	158	159	3.60093E+000	-1.45188E-006	0.00000E+000	-5.22812E-006	0.00000E+000	6.51807E-004	-3.27687E+002	7	...........
	159	160	3.60095E+000	-1.45140E-006	0.00000E+000	-5.22642E-006	0.00000E+000	6.53757E-004	-3.27687E+002	7	...........
	160	161	3.60097E+000	-1.45202E-006	0.00000E+000	-5.22869E-006	0.00000E+000	6.51990E-004	-3.27687E+002	7	...........
	161	162	3.60099E+000	-1.45154E-006	0.00000E+000	-5.22697E-006	0.00000E+000	6.52340E-004	-3.27687E+002	7	...........
	162	163	3.60102E+000	-1.45076E-006	0.00000E+000	-5.22421E-006	0.00000E+000	6.57240E-004	-3.27687E+002	7	...........
	163	164	3.60103E+000	-1.45113E-006	0.00000E+000	-5.22556E-006	0.00000E+000	6.52440E-004	-3.27687E+002	7	...........
	164	165	3.60105E+000	-1.45080E-006	0.00000E+000	-5.22441E-006	0.00000E+000	6.55657E-004	-3.27687E+002	7	...........
	165	166	3.60106E+000	-1.45144E-006	0.00000E+000	-5.22671E-006	0.00000E+000	6.55157E-004	-3.27687E+002	7	...........
	166	167	3.60108E+000	-1.45091E-006	0.00000E+000	-5.22485E-006	0.00000E+000	6.55757E-004	-3.27687E+002	7	...........
	167	168	3.60110E+000	-1.45152E-006	0.00000E+000	-5.22708E-006	0.00000E+000	6.58307E-004	-3.27687E+002	7	...........
	168	169	3.60112E+000	-1.45146E-006	0.00000E+000	-5.22687E-006	0.00000E+000	6.59474E-004	-3.27687E+002	7	...........
	169	170	3.60113E+000	-1.45148E-006	0.00000E+000	-5.22696E-006	0.00000E+000	6.54940E-004	-3.27687E+002	7	...........
	170	171	3.60115E+000	-1.45110E-006	0.00000E+000	-5.22563E-006	0.00000E+000	6.56840E-004	-3.27687E+002	7	...........
	171	172	3.60115E+000	-1.45052E-006	0.00000E+000	-5.22354E-006	0.00000E+000	6.56940E-004	-3.27687E+002	7	...........
	172	173	3.60118E+000	-1.45065E-006	0.00000E+000	-5.22404E-006	0.00000E+000	6.58107E-004	-3.27687E+002	7	...........
	173	174	3.60120E+000	-1.45105E-006	0.00000E+000	-5.22553E-006	0.00000E+000	6.57640E-004	-3.27687E+002	7	...........
	174	175	3.60122E+000	-1.45066E-006	0.00000E+000	-5.22415E-006	0.00000E+000	6.61957E-004	-3.27687E+002	7	...........
	175	176	3.60124E+000	-1.45074E-006	0.00000E+000	-5.22446E-006	0.00000E+000	6.60557E-004	-3.27687E+002	7	...........
	176	177	3.60126E+000	-1.45107E-006	0.00000E+000	-5.22569E-006	0.00000E+000	6.59807E-004	-3.27687E+002	7	...........
	177	178	3.60128E+000	-1.45070E-006	0.00000E+000	-5.22438E-006	0.00000E+000	6.59107E-004	-3.27687E+002	7	...........
	178	179	3.60129E+000	-1.45118E-006	0.00000E+000	-5.22611E-006	0.00000E+000	6.60740E-004	-3.27687E+002	7	...........
	179	180	3.60130E+000	-1.45105E-006	0.00000E+000	-5.22568E-006	0.00000E+000	6.59357E-004	-3.27687E+002	7	...........
	180	181	3.60132E+000	-1.45151E-006	0.00000E+000	-5.22734E-006	0.00000E+000	6.59957E-004	-3.27687E+002	7	...........
	181	182	3.60135E+000	-1.45168E-006	0.00000E+000	-5.22803E-006	0.00000E+000	6.61257E-004	-3.27687E+002	7	...........
	182	183	3.60136E+000	-1.45024E-006	0.00000E+000	-5.22284E-006	0.00000E+000	6.63874E-004	-3.27687E+002	7	...........
	183	184	3.60138E+000	-1.44985E-006	0.00000E+000	-5.22144E-006	0.00000E+000	6.60274E-004	-3.27687E+002	7	...........
	184	185	3.60140E+000	-1.45059E-006	0.00000E+000	-5.22415E-006	0.00000E+000	6.61474E-004	-3.27687E+002	7	...........
	185	186	3.60141E+000	-1.45063E-006	0.00000E+000	-5.22432E-006	0.00000E+000	6.62907E-004	-3.27687E+002	7	...........
	186	187	3.60143E+000	-1.45088E-006	0.00000E+000	-5.22525E-006	0.00000E+000	6.61090E-004	-3.27687E+002	7	...........
	187	188	3.60145E+000	-1.45025E-006	0.00000E+000	-5.22301E-006	0.00000E+000	6.65424E-004	-3.27687E+002	7	...........
	188	189	3.60147E+000	-1.45080E-006	0.00000E+000	-5.22500E-006	0.00000E+000	6.63257E-004	-3.27687E+002	7	...........
	189	190	3.60148E+000	-1.45030E-006	0.00000E+000	-5.22323E-006	0.00000E+000	6.64790E-004	-3.27687E+002	7	...........
	190	191	3.60151E+000	-1.45068E-006	0.00000E+000	-5.22463E-006	0.00000E+000	6.64957E-004	-3.27687E+002	7	...........
	191	192	3.60152E+000	-1.45034E-006	0.00000E+000	-5.22344E-006	0.00000E+000	6.61674E-004	-3.27687E+002	7	...........
	192	193	3.60154E+000	-1.45103E-006	0.00000E+000	-5.22595E-006	0.00000E+000	6.63040E-004	-3.27687E+002	7	...........
	193	194	3.60156E+000	-1.45005E-006	0.00000E+000	-5.22243E-006	0.00000E+000	6.63790E-004	-3.27687E+002	7	...........
	194	195	3.60156E+000	-1.45001E-006	0.00000E+000	-5.22232E-006	0.00000E+000	6.63390E-004	-3.27687E+002	7	...........
	195	196	3.60158E+000	-1.45010E-006	0.00000E+000	-5.22265E-006	0.00000E+000	6.63757E-004	-3.27687E+002	7	...........
	196	197	3.60160E+000	-1.45054E-006	0.00000E+000	-5.22426E-006	0.00000E+000	6.63657E-004	-3.27687E+002	7	...........
	197	198	3.60161E+000	-1.45071E-006	0.00000E+000	-5.22490E-006	0.00000E+000	6.61157E-004	-3.27687E+002	7	...........
	198	199	3.60164E+000	-1.45061E-006	0.00000E+000	-5.22457E-006	0.00000E+000	6.63540E-004	-3.27687E+002	7	...........
	199	200	3.60166E+000	-1.45023E-006	0.00000E+000	-5.22322E-006	0.00000E+000	6.63107E-004	-3.27687E+002	7	...........
	200	201	3.60167E+000	-1.45051E-006	0.00000E+000	-5.22426E-006	0.00000E+000	6.62207E-004	-3.27687E+002	7	...........
	201	202	3.60169E+000	-1.45084E-006	0.00000E+000	-5.22547E-006	0.00000E+000	6.64957E-004	-3.27687E+002	7	...........
	202	203	3.60170E+000	-1.45054E-006	0.00000E+000	-5.22441E-006	0.00000E+000	6.63340E-004	-3.27687E+002	7	...........
	203	204	3.60171E+000	-1.45084E-006	0.00000E+000	-5.22551E-006	0.00000E+000	6.59557E-004	-3.27687E+002	7	...........
	204	205	3.60173E+000	-1.45108E-006	0.00000E+000	-5.22639E-006	0.00000E+000	6.59840E-004	-3.27687E+002	7	...........
	205	206	3.60174E+000	-1.45127E-006	0.00000E+000	-5.22707E-006	0.00000E+000	6.61724E-004	-3.27687E+002	7	...........
	206	207	3.60175E+000	-1.45141E-006	0.00000E+000	-5.22760E-006	0.00000E+000	6.60490E-004	-3.27687E+002	7	...........
	207	208	3.60176E+000	-1.45068E-006	0.00000E+000	-5.22501E-006	0.00000E+000	6.60090E-004	-3.27687E+002	7	...........
	208	209	3.60178E+000	-1.45147E-006	0.00000E+000	-5.22789E-006	0.00000E+000	6.58007E-004	-3.27687E+002	7	...........
	209	210	3.60180E+000	-1.45099E-006	0.00000E+000	-5.22616E-006	0.00000E+000	6.60124E-004	-3.27687E+002	7	...........
	210	211	3.60181E+000	-1.45096E-006	0.00000E+000	-5.22610E-006	0.00000E+000	6.58707E-004	-3.27687E+002	7	...........
	211	212	3.60183E+000	-1.44977E-006	0.00000E+000	-5.22183E-006	0.00000E+000	6.59907E-004	-3.27687E+002	7	...........
	212	213	3.60184E+000	-1.45036E-006	0.00000E+000	-5.22397E-006	0.00000E+000	6.56590E-004	-3.27687E+002	7	...........
	213	214	3.60186E+000	-1.45053E-006	0.00000E+000	-5.22461E-006	0.00000E+000	6.56374E-004	-3.27687E+002	7	...........
	214	215	3.60188E+000	-1.45063E-006	0.00000E+000	-5.22501E-006	0.00000E+000	6.60107E-004	-3.27687E+002	7	...........
	215	216	3.60189E+000	-1.45045E-006	0.00000E+000	-5.22438E-006	0.00000E+000	6.60990E-004	-3.27687E+002	7	...........
	216	217	3.60190E+000	-1.45082E-006	0.00000E+000	-5.22571E-006	0.00000E+000	6.61007E-004	-3.27687E+002	7	...........
	217	218	3.60191E+000	-1.45052E-006	0.00000E+000	-5.22465E-006	0.00000E+000	6.59557E-004	-3.27687E+002	7	...........
	218	219	3.60193E+000	-1.44974E-006	0.00000E+000	-5.22184E-006	0.00000E+000	6.57474E-004	-3.27687E+002	7	...........
	219	220	3.60195E+000	-1.44949E-006	0.00000E+000	-5.22098E-006	0.00000E+000	6.55490E-004	-3.27687E+002	7	...........
	220	221	3.60196E+000	-1.45053E-006	0.00000E+000	-5.22474E-006	0.00000E+000	6.55474E-004	-3.27687E+002	7	...........
	221	222	3.60197E+000	-1.45056E-006	0.00000E+000	-5.22486E-006	0.00000E+000	6.58624E-004	-3.27687E+002	7	...........
	222	223	3.60198E+000	-1.45024E-006	0.00000E+000	-5.22375E-006	0.00000E+000	6.55307E-004	-3.27687E+002	7	...........
	223	224	3.60199E+000	-1.44963E-006	0.00000E+000	-5.22156E-006	0.00000E+000	6.56774E-004	-3.27687E+002	7	...........
	224	225	3.60201E+000	-1.45021E-006	0.00000E+000	-5.22369E-006	0.00000E+000	6.56040E-004	-3.27687E+002	7	...........
	225	226	3.60202E+000	-1.45094E-006	0.00000E+000	-5.22633E-006	0.00000E+000	6.57674E-004	-3.27687E+002	7	...........
	226	227	3.60202E+000	-1.45055E-006	0.00000E+000	-5.22491E-006	0.00000E+000	6.55707E-004	-3.27687E+002	7	...........
	227	228	3.60204E+000	-1.45126E-006	0.00000E+000	-5.22748E-006	0.00000E+000	6.54624E-004	-3.27687E+002	7	...........
	228	229	3.60205E+000	-1.45100E-006	0.00000E+000	-5.22659E-006	0.00000E+000	6.55790E-004	-3.27687E+002	7	...........
	229	230	3.60206E+000	-1.45061E-006	0.00000E+000	-5.22519E-006	0.00000E+000	6.54424E-004	-3.27687E+002	7	...........
	230	231	3.60208E+000	-1.44949E-006	0.00000E+000	-5.22116E-006	0.00000E+000	6.55490E-004	-3.27687E+002	7	...........
	231	232	3.60208E+000	-1.45053E-006	0.00000E+000	-5.22492E-006	0.00000E+000	6.53240E-004	-3.27687E+002	7	...........
	232	233	3.60210E+000	-1.45092E-006	0.00000E+000	-5.22636E-006	0.00000E+000	6.54674E-004	-3.27687E+002	7	...........
	233	234	3.60211E+000	-1.45101E-006	0.00000E+000	-5.22671E-006	0.00000E+000	6.55474E-004	-3.27687E+002	7	...........
	234	235	3.60212E+000	-1.45026E-006	0.00000E+000	-5.22401E-006	0.00000E+000	6.57590E-004	-3.27687E+002	7	...........
	235	236	3.60213E+000	-1.45091E-006	0.00000E+000	-5.22636E-006	0.00000E+000	6.57424E-004	-3.27687E+002	7	...........
	236	237	3.60214E+000	-1.45136E-006	0.00000E+000	-5.22801E-006	0.00000E+000	6.53840E-004	-3.27687E+002	7	...........
	237	238	3.60215E+000	-1.45032E-006	0.00000E+000	-5.22428E-006	0.00000E+000	6.54907E-004	-3.27687E+002	7	...........
	238	239	3.60217E+000	-1.45111E-006	0.00000E+000	-5.22715E-006	0.00000E+000	6.54340E-004	-3.27687E+002	7	...........
	239	240	3.60217E+000	-1.45155E-006	0.00000E+000	-5.22873E-006	0.00000E+000	6.55007E-004	-3.27687E+002	7	...........
	240	241	3.60218E+000	-1.45215E-006	0.00000E+000	-5.23091E-006	0.00000E+000	6.51174E-004	-3.27687E+002	7	...........
	241	242	3.60219E+000	-1.45116E-006	0.00000E+000	-5.22737E-006	0.00000E+000	6.54507E-004	-3.27687E+002	7	...........
	242	243	3.60220E+000	-1.45012E-006	0.00000E+000	-5.22362E-006	0.00000E+000	6.53790E-004	-3.27687E+002	7	...........
	243	244	3.60221E+000	-1.45082E-006	0.00000E+000	-5.22617E-006	0.00000E+000	6.56924E-004	-3.27687E+002	7	...........
	244	245	3.60223E+000	-1.45073E-006	0.00000E+000	-5.22587E-006	0.00000E+000	6.59640E-004	-3.27687E+002	7	...........
	245	246	3.60224E+000	-1.45044E-006	0.00000E+000	-5.22482E-006	0.00000E+000	6.54790E-004	-3.27687E+002	7	...........
	246	247	3.60225E+000	-1.44993E-006	0.00000E+000	-5.22302E-006	0.00000E+000	6.57157E-004	-3.27687E+002	7	...........
	247	248	3.60226E+000	-1.45015E-006	0.00000E+000	-5.22381E-006	0.00000E+000	6.60140E-004	-3.27687E+002	7	...........
	248	249	3.60227E+000	-1.45078E-006	0.00000E+000	-5.22609E-006	0.00000E+000	6.59107E-004	-3.27687E+002	7	...........
	249	250	3.60228E+000	-1.45093E-006	0.00000E+000	-5.22666E-006	0.00000E+000	6.57757E-004	-3.27687E+002	7	...........
	250	251	3.60230E+000	-1.45076E-006	0.00000E+000	-5.22605E-006	0.00000E+000	6.60590E-004	-3.27687E+002	7	...........
	251	252	3.60230E+000	-1.45061E-006	0.00000E+000	-5.22554E-006	0.00000E+000	6.58807E-004	-3.27687E+002	7	...........
	252	253	3.60231E+000	-1.45053E-006	0.00000E+000	-5.22527E-006	0.00000E+000	6.57440E-004	-3.27687E+002	7	...........
	253	254	3.60232E+000	-1.45019E-006	0.00000E+000	-5.22407E-006	0.00000E+000	6.56990E-004	-3.27687E+002	7	...........
	254	255	3.60233E+000	-1.44909E-006	0.00000E+000	-5.22010E-006	0.00000E+000	6.56574E-004	-3.27687E+002	7	...........
	255	256	3.60234E+000	-1.45011E-006	0.00000E+000	-5.22379E-006	0.00000E+000	6.56140E-004	-3.27687E+002	7	...........
	256	257	3.60235E+000	-1.45058E-006	0.00000E+000	-5.22550E-006	0.00000E+000	6.58640E-004	-3.27687E+002	7	...........
	257	258	3.60236E+000	-1.45067E-006	0.00000E+000	-5.22583E-006	0.00000E+000	6.58657E-004	-3.27687E+002	7	...........
	258	259	3.60237E+000	-1.45018E-006	0.00000E+000	-5.22409E-006	0.00000E+000	6.57357E-004	-3.27687E+002	7	...........
	259	260	3.60237E+000	-1.44994E-006	0.00000E+000	-5.22322E-006	0.00000E+000	6.58924E-004	-3.27687E+002	7	...........
	260	261	3.60239E+000	-1.44960E-006	0.00000E+000	-5.22202E-006	0.00000E+000	6.58790E-004	-3.27687E+002	7	...........
	261	262	3.60240E+000	-1.45043E-006	0.00000E+000	-5.22501E-006	0.00000E+000	6.57857E-004	-3.27687E+002	7	...........
	262	263	3.60240E+000	-1.45038E-006	0.00000E+000	-5.22486E-006	0.00000E+000	6.58574E-004	-3.27687E+002	7	...........
	263	264	3.60241E+000	-1.45081E-006	0.00000E+000	-5.22643E-006	0.00000E+000	6.59457E-004	-3.27687E+002	7	...........
	264	265	3.60242E+000	-1.45067E-006	0.00000E+000	-5.22593E-006	0.00000E+000	6.59240E-004	-3.27687E+002	7	...........
	265	266	3.60243E+000	-1.44940E-006	0.00000E+000	-5.22138E-006	0.00000E+000	6.58340E-004	-3.27687E+002	7	...........
	266	267	3.60245E+000	-1.44921E-006	0.00000E+000	-5.22072E-006	0.00000E+000	6.60107E-004	-3.27687E+002	7	...........
	267	268	3.60246E+000	-1.45081E-006	0.00000E+000	-5.22648E-006	0.00000E+000	6.60674E-004	-3.27687E+002	7	...........
	268	269	3.60247E+000	-1.45066E-006	0.00000E+000	-5.22598E-006	0.00000E+000	6.61790E-004	-3.27687E+002	7	...........
	269	270	3.60248E+000	-1.45032E-006	0.00000E+000	-5.22473E-006	0.00000E+000	6.59457E-004	-3.27687E+002	7	...........
	270	271	3.60249E+000	-1.45027E-006	0.00000E+000	-5.22458E-006	0.00000E+000	6.61074E-004	-3.27687E+002	7	...........
	271	272	3.60250E+000	-1.45014E-006	0.00000E+000	-5.22414E-006	0.00000E+000	6.61674E-004	-3.27687E+002	7	...........
	272	273	3.60251E+000	-1.45004E-006	0.00000E+000	-5.22378E-006	0.00000E+000	6.62390E-004	-3.27687E+002	7	...........
	273	274	3.60252E+000	-1.45075E-006	0.00000E+000	-5.22637E-006	0.00000E+000	6.65090E-004	-3.27687E+002	7	...........
	274	275	3.60252E+000	-1.45002E-006	0.00000E+000	-5.22371E-006	0.00000E+000	6.61124E-004	-3.27687E+002	7	...........
	275	276	3.60254E+000	-1.45035E-006	0.00000E+000	-5.22496E-006	0.00000E+000	6.60490E-004	-3.27687E+002	7	...........
	276	277	3.60255E+000	-1.44992E-006	0.00000E+000	-5.22341E-006	0.00000E+000	6.60807E-004	-3.27687E+002	7	...........
	277	278	3.60256E+000	-1.44973E-006	0.00000E+000	-5.22273E-006	0.00000E+000	6.61390E-004	-3.27687E+002	7	...........
	278	279	3.60256E+000	-1.44936E-006	0.00000E+000	-5.22139E-006	0.00000E+000	6.60240E-004	-3.27687E+002	7	...........
	279	280	3.60258E+000	-1.44947E-006	0.00000E+000	-5.22182E-006	0.00000E+000	6.60107E-004	-3.27687E+002	7	...........
	280	281	3.60259E+000	-1.44900E-006	0.00000E+000	-5.22016E-006	0.00000E+000	6.60574E-004	-3.27687E+002	7	...........
	281	282	3.60261E+000	-1.44984E-006	0.00000E+000	-5.22319E-006	0.00000E+000	6.62324E-004	-3.27687E+002	7	...........
	282	283	3.60261E+000	-1.44996E-006	0.00000E+000	-5.22363E-006	0.00000E+000	6.64390E-004	-3.27687E+002	7	...........
	283	284	3.60263E+000	-1.44951E-006	0.00000E+000	-5.22204E-006	0.00000E+000	6.64257E-004	-3.27687E+002	7	...........
	284	285	3.60264E+000	-1.45096E-006	0.00000E+000	-5.22730E-006	0.00000E+000	6.62157E-004	-3.27687E+002	7	...........
	285	286	3.60265E+000	-1.45069E-006	0.00000E+000	-5.22631E-006	0.00000E+000	6.62190E-004	-3.27687E+002	7	...........
	286	287	3.60265E+000	-1.45088E-006	0.00000E+000	-5.22700E-006	0.00000E+000	6.61157E-004	-3.27687E+002	7	...........
	287	288	3.60267E+000	-1.45083E-006	0.00000E+000	-5.22686E-006	0.00000E+000	6.63124E-004	-3.27687E+002	7	...........
	288	289	3.60269E+000	-1.44965E-006	0.00000E+000	-5.22264E-006	0.00000E+000	6.64090E-004	-3.27687E+002	7	...........
	289	290	3.60270E+000	-1.44940E-006	0.00000E+000	-5.22177E-006	0.00000E+000	6.65690E-004	-3.27687E+002	7	...........
	290	291	3.60271E+000	-1.44973E-006	0.00000E+000	-5.22295E-006	0.00000E+000	6.63474E-004	-3.27687E+002	7	...........
	291	292	3.60273E+000	-1.45001E-006	0.00000E+000	-5.22399E-006	0.00000E+000	6.62724E-004	-3.27687E+002	7	...........
	292	293	3.60274E+000	-1.44961E-006	0.00000E+000	-5.22258E-006	0.00000E+000	6.65074E-004	-3.27687E+002	7	...........
	293	294	3.60275E+000	-1.44934E-006	0.00000E+000	-5.22161E-006	0.00000E+000	6.64007E-004	-3.27687E+002	7	...........
	294	295	3.60276E+000	-1.44900E-006	0.00000E+000	-5.22041E-006	0.00000E+000	6.64990E-004	-3.27687E+002	7	...........
	295	296	3.60277E+000	-1.44935E-006	0.00000E+000	-5.22167E-006	0.00000E+000	6.64224E-004	-3.27687E+002	7	...........
	296	297	3.60280E+000	-1.44991E-006	0.00000E+000	-5.22374E-006	0.00000E+000	6.64657E-004	-3.27687E+002	7	...........
	297	298	3.60280E+000	-1.44984E-006	0.00000E+000	-5.22349E-006	0.00000E+000	6.63290E-004	-3.27687E+002	7	...........
	298	299	3.60281E+000	-1.45033E-006	0.00000E+000	-5.22528E-006	0.00000E+000	6.64307E-004	-3.27687E+002	7	...........
	299	300	3.60283E+000	-1.44995E-006	0.00000E+000	-5.22393E-006	0.00000E+000	6.64790E-004	-3.27687E+002	7	...........
	300	301	3.60284E+000	-1.44996E-006	0.00000E+000	-5.22398E-006	0.00000E+000	6.63940E-004	-3.27687E+002	7	...........
	301	302	3.60285E+000	-1.44907E-006	0.00000E+000	-5.22078E-006	0.00000E+000	6.61940E-004	-3.27687E+002	7	...........
	302	303	3.60286E+000	-1.44963E-006	0.00000E+000	-5.22281E-006	0.00000E+000	6.65140E-004	-3.27687E+002	7	...........
	303	304	3.60288E+000	-1.44968E-006	0.00000E+000	-5.22302E-006	0.00000E+000	6.63507E-004	-3.27687E+002	7	...........
	304	305	3.60290E+000	-1.45012E-006	0.00000E+000	-5.22464E-006	0.00000E+000	6.62340E-004	-3.27687E+002	7	...........
	305	306	3.60291E+000	-1.44915E-006	0.00000E+000	-5.22117E-006	0.00000E+000	6.63307E-004	-3.27687E+002	7	...........
	306	307	3.60292E+000	-1.44913E-006	0.00000E+000	-5.22110E-006	0.00000E+000	6.61907E-004	-3.27687E+002	7	...........
	307	308	3.60294E+000	-1.44893E-006	0.00000E+000	-5.22042E-006	0.00000E+000	6.64557E-004	-3.27687E+002	7	...........
	308	309	3.60295E+000	-1.44932E-006	0.00000E+000	-5.22183E-006	0.00000E+000	6.66307E-004	-3.27687E+002	7	...........
	309	310	3.60297E+000	-1.44943E-006	0.00000E+000	-5.22227E-006	0.00000E+000	6.63824E-004	-3.27687E+002	7	...........
	310	311	3.60297E+000	-1.44972E-006	0.00000E+000	-5.22328E-006	0.00000E+000	6.64324E-004	-3.27687E+002	7	...........
	311	312	3.60298E+000	-1.44965E-006	0.00000E+000	-5.22307E-006	0.00000E+000	6.63707E-004	-3.27687E+002	7	...........
	312	313	3.60300E+000	-1.44988E-006	0.00000E+000	-5.22391E-006	0.00000E+000	6.65790E-004	-3.27687E+002	7	...........
	313	314	3.60301E+000	-1.44882E-006	0.00000E+000	-5.22013E-006	0.00000E+000	6.65340E-004	-3.27687E+002	7	...........
	314	315	3.60303E+000	-1.44976E-006	0.00000E+000	-5.22352E-006	0.00000E+000	6.65857E-004	-3.27687E+002	7	...........
	315	316	3.60304E+000	-1.44963E-006	0.00000E+000	-5.22308E-006	0.00000E+000	6.61707E-004	-3.27687E+002	7	...........
	316	317	3.60307E+000	-1.44981E-006	0.00000E+000	-5.22377E-006	0.00000E+000	6.62090E-004	-3.27687E+002	7	...........
	317	318	3.60308E+000	-1.44955E-006	0.00000E+000	-5.22283E-006	0.00000E+000	6.64390E-004	-3.27687E+002	7	...........
	318	319	3.60310E+000	-1.45000E-006	0.00000E+000	-5.22448E-006	0.00000E+000	6.63890E-004	-3.27687E+002	7	...........
	319	320	3.60311E+000	-1.44986E-006	0.00000E+000	-5.22401E-006	0.00000E+000	6.65890E-004	-3.27687E+002	7	...........
	320	321	3.60312E+000	-1.45048E-006	0.00000E+000	-5.22625E-006	0.00000E+000	6.62074E-004	-3.27687E+002	7	...........
	321	322	3.60314E+000	-1.45027E-006	0.00000E+000	-5.22552E-006	0.00000E+000	6.61507E-004	-3.27687E+002	7	...........
	322	323	3.60315E+000	-1.45045E-006	0.00000E+000	-5.22618E-006	0.00000E+000	6.61274E-004	-3.27687E+002	7	...........
	323	324	3.60315E+000	-1.45059E-006	0.00000E+000	-5.22671E-006	0.00000E+000	6.61140E-004	-3.27687E+002	7	...........
	324	325	3.60317E+000	-1.44986E-006	0.00000E+000	-5.22408E-006	0.00000E+000	6.62824E-004	-3.27687E+002	7	...........
	325	326	3.60317E+000	-1.44942E-006	0.00000E+000	-5.22249E-006	0.00000E+000	6.62924E-004	-3.27687E+002	7	...........
	326	327	3.60319E+000	-1.44975E-006	0.00000E+000	-5.22373E-006	0.00000E+000	6.63257E-004	-3.27687E+002	7	...........
	327	328	3.60321E+000	-1.45020E-006	0.00000E+000	-5.22539E-006	0.00000E+000	6.64240E-004	-3.27687E+002	7	...........
	328	329	3.60322E+000	-1.44980E-006	0.00000E+000	-5.22394E-006	0.00000E+000	6.62457E-004	-3.27687E+002	7	...........
	329	330	3.60323E+000	-1.44975E-006	0.00000E+000	-5.22380E-006	0.00000E+000	6.60740E-004	-3.27687E+002	7	...........
	330	331	3.60324E+000	-1.44992E-006	0.00000E+000	-5.22442E-006	0.00000E+000	6.61857E-004	-3.27687E+002	7	...........
	331	332	3.60326E+000	-1.45027E-006	0.00000E+000	-5.22571E-006	0.00000E+000	6.61757E-004	-3.27687E+002	7	...........
	332	333	3.60326E+000	-1.45063E-006	0.00000E+000	-5.22701E-006	0.00000E+000	6.60690E-004	-3.27687E+002	7	...........
	333	334	3.60328E+000	-1.45054E-006	0.00000E+000	-5.22671E-006	0.00000E+000	6.61840E-004	-3.27687E+002	7	...........
	334	335	3.60330E+000	-1.45090E-006	0.00000E+000	-5.22801E-006	0.00000E+000	6.61407E-004	-3.27687E+002	7	...........
	335	336	3.60330E+000	-1.45059E-006	0.00000E+000	-5.22690E-006	0.00000E+000	6.62657E-004	-3.27687E+002	7	...........
	336	337	3.60331E+000	-1.45059E-006	0.00000E+000	-5.22693E-006	0.00000E+000	6.59524E-004	-3.27687E+002	7	...........
	337	338	3.60332E+000	-1.44974E-006	0.00000E+000	-5.22388E-006	0.00000E+000	6.59324E-004	-3.27687E+002	7	...........
	338	339	3.60334E+000	-1.45054E-006	0.00000E+000	-5.22677E-006	0.00000E+000	6.58957E-004	-3.27687E+002	7	...........
	339	340	3.60336E+000	-1.45004E-006	0.00000E+000	-5.22501E-006	0.00000E+000	6.58390E-004	-3.27687E+002	7	...........
	340	341	3.60336E+000	-1.45007E-006	0.00000E+000	-5.22513E-006	0.00000E+000	6.59207E-004	-3.27687E+002	7	...........
	341	342	3.60337E+000	-1.45020E-006	0.00000E+000	-5.22562E-006	0.00000E+000	6.59057E-004	-3.27687E+002	7	...........
	342	343	3.60337E+000	-1.44992E-006	0.00000E+000	-5.22460E-006	0.00000E+000	6.57357E-004	-3.27687E+002	7	...........
	343	344	3.60339E+000	-1.45050E-006	0.00000E+000	-5.22672E-006	0.00000E+000	6.57690E-004	-3.27687E+002	7	...........
	344	345	3.60341E+000	-1.45013E-006	0.00000E+000	-5.22542E-006	0.00000E+000	6.61040E-004	-3.27687E+002	7	...........
	345	346	3.60342E+000	-1.45056E-006	0.00000E+000	-5.22697E-006	0.00000E+000	6.59624E-004	-3.27687E+002	7	...........
	346	347	3.60344E+000	-1.45046E-006	0.00000E+000	-5.22664E-006	0.00000E+000	6.59090E-004	-3.27687E+002	7	...........
	347	348	3.60344E+000	-1.45031E-006	0.00000E+000	-5.22611E-006	0.00000E+000	6.58757E-004	-3.27687E+002	7	...........
	348	349	3.60345E+000	-1.45022E-006	0.00000E+000	-5.22581E-006	0.00000E+000	6.59057E-004	-3.27687E+002	7	...........
	349	350	3.60346E+000	-1.45027E-006	0.00000E+000	-5.22599E-006	0.00000E+000	6.59574E-004	-3.27687E+002	7	...........
	350	351	3.60348E+000	-1.44992E-006	0.00000E+000	-5.22475E-006	0.00000E+000	6.60307E-004	-3.27687E+002	7	...........
	351	352	3.60349E+000	-1.44988E-006	0.00000E+000	-5.22462E-006	0.00000E+000	6.56790E-004	-3.27687E+002	7	...........
	352	353	3.60349E+000	-1.44924E-006	0.00000E+000	-5.22232E-006	0.00000E+000	6.55724E-004	-3.27687E+002	7	...........
	353	354	3.60352E+000	-1.44938E-006	0.00000E+000	-5.22285E-006	0.00000E+000	6.58557E-004	-3.27687E+002	7	...........
	354	355	3.60352E+000	-1.45049E-006	0.00000E+000	-5.22687E-006	0.00000E+000	6.58890E-004	-3.27687E+002	7	...........
	355	356	3.60353E+000	-1.45063E-006	0.00000E+000	-5.22738E-006	0.00000E+000	6.58790E-004	-3.27687E+002	7	...........
	356	357	3.60354E+000	-1.45037E-006	0.00000E+000	-5.22648E-006	0.00000E+000	6.57707E-004	-3.27687E+002	7	...........
	357	358	3.60355E+000	-1.45060E-006	0.00000E+000	-5.22729E-006	0.00000E+000	6.59590E-004	-3.27687E+002	7	...........
	358	359	3.60356E+000	-1.45095E-006	0.00000E+000	-5.22858E-006	0.00000E+000	6.57390E-004	-3.27687E+002	7	...........
	359	360	3.60356E+000	-1.44956E-006	0.00000E+000	-5.22359E-006	0.00000E+000	6.58107E-004	-3.27687E+002	7	...........
	360	361	3.60357E+000	-1.44910E-006	0.00000E+000	-5.22192E-006	0.00000E+000	6.58540E-004	-3.27687E+002	7	...........
	361	362	3.60359E+000	-1.45016E-006	0.00000E+000	-5.22577E-006	0.00000E+000	6.59290E-004	-3.27687E+002	7	...........
	362	363	3.60359E+000	-1.44996E-006	0.00000E+000	-5.22506E-006	0.00000E+000	6.56507E-004	-3.27687E+002	7	...........
	363	364	3.60361E+000	-1.45024E-006	0.00000E+000	-5.22609E-006	0.00000E+000	6.57440E-004	-3.27687E+002	7	...........
	364	365	3.60362E+000	-1.44996E-006	0.00000E+000	-5.22509E-006	0.00000E+000	6.56490E-004	-3.27687E+002	7	...........
	365	366	3.60362E+000	-1.45022E-006	0.00000E+000	-5.22605E-006	0.00000E+000	6.56824E-004	-3.27687E+002	7	...........
	366	367	3.60364E+000	-1.45018E-006	0.00000E+000	-5.22594E-006	0.00000E+000	6.55724E-004	-3.27687E+002	7	...........
	367	368	3.60364E+000	-1.45075E-006	0.00000E+000	-5.22800E-006	0.00000E+000	6.56690E-004	-3.27687E+002	7	...........
	368	369	3.60366E+000	-1.45056E-006	0.00000E+000	-5.22732E-006	0.00000E+000	6.56924E-004	-3.27687E+002	7	...........
	369	370	3.60367E+000	-1.45078E-006	0.00000E+000	-5.22813E-006	0.00000E+000	6.57340E-004	-3.27687E+002	7	...........
	370	371	3.60369E+000	-1.45046E-006	0.00000E+000	-5.22699E-006	0.00000E+000	6.60024E-004	-3.27687E+002	7	...........
	371	372	3.60369E+000	-1.45055E-006	0.00000E+000	-5.22732E-006	0.00000E+000	6.56907E-004	-3.27687E+002	7	...........
	372	373	3.60370E+000	-1.44944E-006	0.00000E+000	-5.22334E-006	0.00000E+000	6.57307E-004	-3.27687E+002	7	...........
	373	374	3.60372E+000	-1.45046E-006	0.00000E+000	-5.22703E-006	0.00000E+000	6.57424E-004	-3.27687E+002	7	...........
	374	375	3.60373E+000	-1.45025E-006	0.00000E+000	-5.22630E-006	0.00000E+000	6.58790E-004	-3.27687E+002	7	...........
	375	376	3.60374E+000	-1.45012E-006	0.00000E+000	-5.22585E-006	0.00000E+000	6.58074E-004	-3.27687E+002	7	...........
	376	377	3.60375E+000	-1.45020E-006	0.00000E+000	-5.22614E-006	0.00000E+000	6.56024E-004	-3.27687E+002	7	...........
	377	378	3.60376E+000	-1.45034E-006	0.00000E+000	-5.22668E-006	0.00000E+000	6.57474E-004	-3.27687E+002	7	...........
	378	379	3.60377E+000	-1.45118E-006	0.00000E+000	-5.22971E-006	0.00000E+000	6.55707E-004	-3.27687E+002	7	...........
	379	380	3.60377E+000	-1.45042E-006	0.00000E+000	-5.22698E-006	0.00000E+000	6.55440E-004	-3.27687E+002	7	...........
	380	381	3.60379E+000	-1.45065E-006	0.00000E+000	-5.22785E-006	0.00000E+000	6.57590E-004	-3.27687E+002	7	...........
	381	382	3.60379E+000	-1.45100E-006	0.00000E+000	-5.22910E-006	0.00000E+000	6.58940E-004	-3.27687E+002	7	...........
	382	383	3.60380E+000	-1.45099E-006	0.00000E+000	-5.22908E-006	0.00000E+000	6.57640E-004	-3.27687E+002	7	...........
	383	384	3.60381E+000	-1.45022E-006	0.00000E+000	-5.22630E-006	0.00000E+000	6.54090E-004	-3.27687E+002	7	...........
	384	385	3.60382E+000	-1.45023E-006	0.00000E+000	-5.22638E-006	0.00000E+000	6.54874E-004	-3.27687E+002	7	...........
	385	386	3.60383E+000	-1.45113E-006	0.00000E+000	-5.22961E-006	0.00000E+000	6.56540E-004	-3.27687E+002	7	...........
	386	387	3.60383E+000	-1.45082E-006	0.00000E+000	-5.22852E-006	0.00000E+000	6.55824E-004	-3.27687E+002	7	...........
	387	388	3.60385E+000	-1.45078E-006	0.00000E+000	-5.22840E-006	0.00000E+000	6.56740E-004	-3.27687E+002	7	...........
	388	389	3.60385E+000	-1.45066E-006	0.00000E+000	-5.22798E-006	0.00000E+000	6.58507E-004	-3.27687E+002	7	...........
	389	390	3.60386E+000	-1.45055E-006	0.00000E+000	-5.22760E-006	0.00000E+000	6.57474E-004	-3.27687E+002	7	...........
	390	391	3.60388E+000	-1.45114E-006	0.00000E+000	-5.22975E-006	0.00000E+000	6.57807E-004	-3.27687E+002	7	...........
	391	392	3.60389E+000	-1.45104E-006	0.00000E+000	-5.22938E-006	0.00000E+000	6.58590E-004	-3.27687E+002	7	...........
	392	393	3.60389E+000	-1.45076E-006	0.00000E+000	-5.22838E-006	0.00000E+000	6.56590E-004	-3.27687E+002	7	...........
	393	394	3.60391E+000	-1.45059E-006	0.00000E+000	-5.22779E-006	0.00000E+000	6.55007E-004	-3.27687E+002	7	...........
	394	395	3.60392E+000	-1.45068E-006	0.00000E+000	-5.22815E-006	0.00000E+000	6.58740E-004	-3.27687E+002	7	...........
	395	396	3.60392E+000	-1.44950E-006	0.00000E+000	-5.22387E-006	0.00000E+000	6.58024E-004	-3.27687E+002	7	...........
	396	397	3.60393E+000	-1.44959E-006	0.00000E+000	-5.22423E-006	0.00000E+000	6.56457E-004	-3.27687E+002	7	...........
	397	398	3.60393E+000	-1.45041E-006	0.00000E+000	-5.22718E-006	0.00000E+000	6.60140E-004	-3.27687E+002	7	...........
	398	399	3.60394E+000	-1.45061E-006	0.00000E+000	-5.22792E-006	0.00000E+000	6.57390E-004	-3.27687E+002	7	...........
	399	400	3.60395E+000	-1.45070E-006	0.00000E+000	-5.22826E-006	0.00000E+000	6.56357E-004	-3.27687E+002	7	...........
	400	401	3.60397E+000	-1.45037E-006	0.00000E+000	-5.22710E-006	0.00000E+000	6.58090E-004	-3.27687E+002	7	...........
	401	402	3.60397E+000	-1.45081E-006	0.00000E+000	-5.22869E-006	0.00000E+000	6.58324E-004	-3.27687E+002	7	...........
	402	403	3.60397E+000	-1.45117E-006	0.00000E+000	-5.22999E-006	0.00000E+000	6.55624E-004	-3.27687E+002	7	...........
	403	404	3.60400E+000	-1.45073E-006	0.00000E+000	-5.22842E-006	0.00000E+000	6.57890E-004	-3.27687E+002	7	...........
	404	405	3.60399E+000	-1.45057E-006	0.00000E+000	-5.22786E-006	0.00000E+000	6.57357E-004	-3.27687E+002	7	...........
	405	406	3.60400E+000	-1.45029E-006	0.00000E+000	-5.22685E-006	0.00000E+000	6.56724E-004	-3.27687E+002	7	...........
	406	407	3.60401E+000	-1.45068E-006	0.00000E+000	-5.22825E-006	0.00000E+000	6.57107E-004	-3.27687E+002	7	...........
	407	408	3.60402E+000	-1.45015E-006	0.00000E+000	-5.22636E-006	0.00000E+000	6.54624E-004	-3.27687E+002	7	...........
	408	409	3.60402E+000	-1.45036E-006	0.00000E+000	-5.22712E-006	0.00000E+000	6.58924E-004	-3.27687E+002	7	...........
	409	410	3.60403E+000	-1.45058E-006	0.00000E+000	-5.22795E-006	0.00000E+000	6.55674E-004	-3.27687E+002	7	...........
	410	411	3.60405E+000	-1.45076E-006	0.00000E+000	-5.22861E-006	0.00000E+000	6.58840E-004	-3.27687E+002	7	...........
	411	412	3.60406E+000	-1.45060E-006	0.00000E+000	-5.22804E-006	0.00000E+000	6.57974E-004	-3.27687E+002	7	...........
	412	413	3.60407E+000	-1.45042E-006	0.00000E+000	-5.22741E-006	0.00000E+000	6.56990E-004	-3.27687E+002	7	...........
	413	414	3.60409E+000	-1.45115E-006	0.00000E+000	-5.23008E-006	0.00000E+000	6.55224E-004	-3.27687E+002	7	...........
	414	415	3.60408E+000	-1.45113E-006	0.00000E+000	-5.23000E-006	0.00000E+000	6.58324E-004	-3.27687E+002	7	...........
	415	416	3.60409E+000	-1.45070E-006	0.00000E+000	-5.22847E-006	0.00000E+000	6.58874E-004	-3.27687E+002	7	...........
	416	417	3.60411E+000	-1.45223E-006	0.00000E+000	-5.23401E-006	0.00000E+000	6.57707E-004	-3.27687E+002	7	...........
	417	418	3.60412E+000	-1.45142E-006	0.00000E+000	-5.23108E-006	0.00000E+000	6.57824E-004	-3.27687E+002	7	...........
	418	419	3.60413E+000	-1.45146E-006	0.00000E+000	-5.23124E-006	0.00000E+000	6.58624E-004	-3.27687E+002	7	...........
	419	420	3.60413E+000	-1.45070E-006	0.00000E+000	-5.22851E-006	0.00000E+000	6.55490E-004	-3.27687E+002	7	...........
	420	421	3.60414E+000	-1.45131E-006	0.00000E+000	-5.23072E-006	0.00000E+000	6.57207E-004	-3.27687E+002	7	...........
	421	422	3.60414E+000	-1.45095E-006	0.00000E+000	-5.22942E-006	0.00000E+000	6.59090E-004	-3.27687E+002	7	...........
	422	423	3.60415E+000	-1.45145E-006	0.00000E+000	-5.23124E-006	0.00000E+000	6.60290E-004	-3.27687E+002	7	...........
	423	424	3.60415E+000	-1.45136E-006	0.00000E+000	-5.23094E-006	0.00000E+000	6.58207E-004	-3.27687E+002	7	...........
	424	425	3.60416E+000	-1.45148E-006	0.00000E+000	-5.23136E-006	0.00000E+000	6.59657E-004	-3.27687E+002	7	...........
	425	426	3.60418E+000	-1.45141E-006	0.00000E+000	-5.23115E-006	0.00000E+000	6.58107E-004	-3.27687E+002	7	...........
	426	427	3.60418E+000	-1.45202E-006	0.00000E+000	-5.23335E-006	0.00000E+000	6.58674E-004	-3.27687E+002	7	...........
	427	428	3.60419E+000	-1.45226E-006	0.00000E+000	-5.23423E-006	0.00000E+000	6.58740E-004	-3.27687E+002	7	...........
	428	429	3.60419E+000	-1.45280E-006	0.00000E+000	-5.23615E-006	0.00000E+000	6.59107E-004	-3.27687E+002	7	...........
	429	430	3.60420E+000	-1.45205E-006	0.00000E+000	-5.23349E-006	0.00000E+000	6.60407E-004	-3.27687E+002	7	...........
	430	431	3.60420E+000	-1.45251E-006	0.00000E+000	-5.23516E-006	0.00000E+000	6.61424E-004	-3.27687E+002	7	...........
	431	432	3.60421E+000	-1.45148E-006	0.00000E+000	-5.23143E-006	0.00000E+000	6.59790E-004	-3.27687E+002	7	...........
	432	433	3.60421E+000	-1.45210E-006	0.00000E+000	-5.23368E-006	0.00000E+000	6.57807E-004	-3.27687E+002	7	...........
	433	434	3.60422E+000	-1.45213E-006	0.00000E+000	-5.23380E-006	0.00000E+000	6.58790E-004	-3.27687E+002	7	...........
	434	435	3.60423E+000	-1.45165E-006	0.00000E+000	-5.23210E-006	0.00000E+000	6.59807E-004	-3.27687E+002	7	...........
	435	436	3.60424E+000	-1.45207E-006	0.00000E+000	-5.23362E-006	0.00000E+000	6.58974E-004	-3.27687E+002	7	...........
	436	437	3.60425E+000	-1.45142E-006	0.00000E+000	-5.23128E-006	0.00000E+000	6.58757E-004	-3.27687E+002	7	...........
	437	438	3.60425E+000	-1.45214E-006	0.00000E+000	-5.23390E-006	0.00000E+000	6.60824E-004	-3.27687E+002	7	...........
	438	439	3.60426E+000	-1.45212E-006	0.00000E+000	-5.23381E-006	0.00000E+000	6.59874E-004	-3.27687E+002	7	...........
	439	440	3.60426E+000	-1.45177E-006	0.00000E+000	-5.23255E-006	0.00000E+000	6.60140E-004	-3.27687E+002	7	...........
	440	441	3.60428E+000	-1.45222E-006	0.00000E+000	-5.23419E-006	0.00000E+000	6.59690E-004	-3.27687E+002	7	...........
	441	442	3.60428E+000	-1.45196E-006	0.00000E+000	-5.23327E-006	0.00000E+000	6.59107E-004	-3.27687E+002	7	...........
	442	443	3.60429E+000	-1.45120E-006	0.00000E+000	-5.23053E-006	0.00000E+000	6.58074E-004	-3.27687E+002	7	...........
	443	444	3.60430E+000	-1.45125E-006	0.00000E+000	-5.23073E-006	0.00000E+000	6.59990E-004	-3.27687E+002	7	...........
	444	445	3.60431E+000	-1.45197E-006	0.00000E+000	-5.23336E-006	0.00000E+000	6.61307E-004	-3.27687E+002	7	...........
	445	446	3.60431E+000	-1.45182E-006	0.00000E+000	-5.23281E-006	0.00000E+000	6.60340E-004	-3.27687E+002	7	...........
	446	447	3.60431E+000	-1.45144E-006	0.00000E+000	-5.23146E-006	0.00000E+000	6.60740E-004	-3.27687E+002	7	...........
	447	448	3.60433E+000	-1.45216E-006	0.00000E+000	-5.23404E-006	0.00000E+000	6.60957E-004	-3.27687E+002	7	...........
	448	449	3.60432E+000	-1.45177E-006	0.00000E+000	-5.23263E-006	0.00000E+000	6.62090E-004	-3.27687E+002	7	...........
	449	450	3.60434E+000	-1.45114E-006	0.00000E+000	-5.23039E-006	0.00000E+000	6.63107E-004	-3.27687E+002	7	...........
	450	451	3.60435E+000	-1.45141E-006	0.00000E+000	-5.23138E-006	0.00000E+000	6.59140E-004	-3.27687E+002	7	...........
	451	452	3.60435E+000	-1.45151E-006	0.00000E+000	-5.23176E-006	0.00000E+000	6.60174E-004	-3.27687E+002	7	...........
	452	453	3.60436E+000	-1.45156E-006	0.00000E+000	-5.23195E-006	0.00000E+000	6.62040E-004	-3.27687E+002	7	...........
	453	454	3.60438E+000	-1.45139E-006	0.00000E+000	-5.23135E-006	0.00000E+000	6.63107E-004	-3.27687E+002	7	...........
	454	455	3.60438E+000	-1.45077E-006	0.00000E+000	-5.22913E-006	0.00000E+000	6.60457E-004	-3.27687E+002	7	...........
	455	456	3.60438E+000	-1.45029E-006	0.00000E+000	-5.22738E-006	0.00000E+000	6.60340E-004	-3.27687E+002	7	...........
	456	457	3.60439E+000	-1.45048E-006	0.00000E+000	-5.22811E-006	0.00000E+000	6.62890E-004	-3.27687E+002	7	...........
	457	458	3.60440E+000	-1.45067E-006	0.00000E+000	-5.22880E-006	0.00000E+000	6.61924E-004	-3.27687E+002	7	...........
	458	459	3.60440E+000	-1.45084E-006	0.00000E+000	-5.22941E-006	0.00000E+000	6.61224E-004	-3.27687E+002	7	...........
	459	460	3.60441E+000	-1.45114E-006	0.00000E+000	-5.23052E-006	0.00000E+000	6.62074E-004	-3.27687E+002	7	...........
	460	461	3.60442E+000	-1.45065E-006	0.00000E+000	-5.22875E-006	0.00000E+000	6.62607E-004	-3.27687E+002	7	...........
	461	462	3.60442E+000	-1.45116E-006	0.00000E+000	-5.23058E-006	0.00000E+000	6.60090E-004	-3.27687E+002	7	...........
	462	463	3.60443E+000	-1.45182E-006	0.00000E+000	-5.23298E-006	0.00000E+000	6.59807E-004	-3.27687E+002	7	...........
	463	464	3.60443E+000	-1.45188E-006	0.00000E+000	-5.23321E-006	0.00000E+000	6.60340E-004	-3.27687E+002	7	...........
	464	465	3.60444E+000	-1.45157E-006	0.00000E+000	-5.23212E-006	0.00000E+000	6.59774E-004	-3.27687E+002	7	...........
	465	466	3.60444E+000	-1.45177E-006	0.00000E+000	-5.23280E-006	0.00000E+000	6.60974E-004	-3.27687E+002	7	...........
	466	467	3.60445E+000	-1.45121E-006	0.00000E+000	-5.23082E-006	0.00000E+000	6.62324E-004	-3.27687E+002	7	...........
	467	468	3.60446E+000	-1.45079E-006	0.00000E+000	-5.22931E-006	0.00000E+000	6.60607E-004	-3.27687E+002	7	...........
	468	469	3.60448E+000	-1.45150E-006	0.00000E+000	-5.23191E-006	0.00000E+000	6.60407E-004	-3.27687E+002	7	...........
	469	470	3.60448E+000	-1.45178E-006	0.00000E+000	-5.23290E-006	0.00000E+000	6.61224E-004	-3.27687E+002	7	...........
	470	471	3.60448E+000	-1.45125E-006	0.00000E+000	-5.23102E-006	0.00000E+000	6.63890E-004	-3.27687E+002	7	...........
	471	472	3.60449E+000	-1.45110E-006	0.00000E+000	-5.23046E-006	0.00000E+000	6.63707E-004	-3.27687E+002	7	...........
	472	473	3.60450E+000	-1.45127E-006	0.00000E+000	-5.23111E-006	0.00000E+000	6.63190E-004	-3.27687E+002	7	...........
	473	474	3.60450E+000	-1.45146E-006	0.00000E+000	-5.23179E-006	0.00000E+000	6.62174E-004	-3.27687E+002	7	...........
	474	475	3.60450E+000	-1.45192E-006	0.00000E+000	-5.23346E-006	0.00000E+000	6.61490E-004	-3.27687E+002	7	...........
	475	476	3.60452E+000	-1.45150E-006	0.00000E+000	-5.23195E-006	0.00000E+000	6.61340E-004	-3.27687E+002	7	...........
	476	477	3.60453E+000	-1.45166E-006	0.00000E+000	-5.23254E-006	0.00000E+000	6.64290E-004	-3.27687E+002	7	...........
	477	478	3.60454E+000	-1.45128E-006	0.00000E+000	-5.23121E-006	0.00000E+000	6.65707E-004	-3.27687E+002	7	...........
	478	479	3.60454E+000	-1.45055E-006	0.00000E+000	-5.22855E-006	0.00000E+000	6.64907E-004	-3.27687E+002	7	...........
	479	480	3.60454E+000	-1.45093E-006	0.00000E+000	-5.22991E-006	0.00000E+000	6.64024E-004	-3.27687E+002	7	...........
	480	481	3.60454E+000	-1.45167E-006	0.00000E+000	-5.23261E-006	0.00000E+000	6.63440E-004	-3.27687E+002	7	...........
	481	482	3.60455E+000	-1.45097E-006	0.00000E+000	-5.23010E-006	0.00000E+000	6.64857E-004	-3.27687E+002	7	...........
	482	483	3.60456E+000	-1.45086E-006	0.00000E+000	-5.22972E-006	0.00000E+000	6.62574E-004	-3.27687E+002	7	...........
	483	484	3.60457E+000	-1.45060E-006	0.00000E+000	-5.22878E-006	0.00000E+000	6.63107E-004	-3.27687E+002	7	...........
	484	485	3.60457E+000	-1.45071E-006	0.00000E+000	-5.22920E-006	0.00000E+000	6.61140E-004	-3.27687E+002	7	...........
	485	486	3.60457E+000	-1.45093E-006	0.00000E+000	-5.22996E-006	0.00000E+000	6.65040E-004	-3.27687E+002	7	...........
	486	487	3.60458E+000	-1.45109E-006	0.00000E+000	-5.23059E-006	0.00000E+000	6.61090E-004	-3.27687E+002	7	...........
	487	488	3.60459E+000	-1.45200E-006	0.00000E+000	-5.23386E-006	0.00000E+000	6.62774E-004	-3.27687E+002	7	...........
	488	489	3.60460E+000	-1.45172E-006	0.00000E+000	-5.23286E-006	0.00000E+000	6.61474E-004	-3.27687E+002	7	...........
	489	490	3.60460E+000	-1.45107E-006	0.00000E+000	-5.23051E-006	0.00000E+000	6.62857E-004	-3.27687E+002	7	...........
	490	491	3.60461E+000	-1.45059E-006	0.00000E+000	-5.22879E-006	0.00000E+000	6.62407E-004	-3.27687E+002	7	...........
	491	492	3.60461E+000	-1.45131E-006	0.00000E+000	-5.23141E-006	0.00000E+000	6.65457E-004	-3.27687E+002	7	...........
	492	493	3.60462E+000	-1.45066E-006	0.00000E+000	-5.22909E-006	0.00000E+000	6.62074E-004	-3.27687E+002	7	...........
	493	494	3.60463E+000	-1.45076E-006	0.00000E+000	-5.22944E-006	0.00000E+000	6.63290E-004	-3.27687E+002	7	...........
	494	495	3.60464E+000	-1.45075E-006	0.00000E+000	-5.22941E-006	0.00000E+000	6.63390E-004	-3.27687E+002	7	...........
	495	496	3.60464E+000	-1.45091E-006	0.00000E+000	-5.23002E-006	0.00000E+000	6.62007E-004	-3.27687E+002	7	...........
	496	497	3.60465E+000	-1.45067E-006	0.00000E+000	-5.22914E-006	0.00000E+000	6.62140E-004	-3.27687E+002	7	...........
	497	498	3.60466E+000	-1.45098E-006	0.00000E+000	-5.23029E-006	0.00000E+000	6.59790E-004	-3.27687E+002	7	...........
	498	499	3.60466E+000	-1.45159E-006	0.00000E+000	-5.23250E-006	0.00000E+000	6.63407E-004	-3.27687E+002	7	...........
	499	500	3.60467E+000	-1.45150E-006	0.00000E+000	-5.23219E-006	0.00000E+000	6.62807E-004	-3.27687E+002	7	...........
	500	501	3.60468E+000	-1.45065E-006	0.00000E+000	-5.22912E-006	0.00000E+000	6.62174E-004	-3.27687E+002	7	...........
	501	502	3.60469E+000	-1.45109E-006	0.00000E+000	-5.23073E-006	0.00000E+000	6.65274E-004	-3.27687E+002	7	...........
	502	503	3.60469E+000	-1.44965E-006	0.00000E+000	-5.22556E-006	0.00000E+000	6.64707E-004	-3.27687E+002	7	...........
	503	504	3.60470E+000	-1.45081E-006	0.00000E+000	-5.22972E-006	0.00000E+000	6.64640E-004	-3.27687E+002	7	...........
	504	505	3.60471E+000	-1.45090E-006	0.00000E+000	-5.23007E-006	0.00000E+000	6.61574E-004	-3.27687E+002	7	...........
	505	506	3.60471E+000	-1.45010E-006	0.00000E+000	-5.22720E-006	0.00000E+000	6.62507E-004	-3.27687E+002	7	...........
	506	507	3.60472E+000	-1.45010E-006	0.00000E+000	-5.22722E-006	0.00000E+000	6.61774E-004	-3.27687E+002	7	...........
	507	508	3.60472E+000	-1.45107E-006	0.00000E+000	-5.23069E-006	0.00000E+000	6.61674E-004	-3.27687E+002	7	...........
	508	509	3.60473E+000	-1.45152E-006	0.00000E+000	-5.23232E-006	0.00000E+000	6.61990E-004	-3.27687E+002	7	...........
	509	510	3.60474E+000	-1.45102E-006	0.00000E+000	-5.23053E-006	0.00000E+000	6.64124E-004	-3.27687E+002	7	...........
	510	511	3.60474E+000	-1.45073E-006	0.00000E+000	-5.22951E-006	0.00000E+000	6.62824E-004	-3.27687E+002	7	...........
	511	512	3.60475E+000	-1.45101E-006	0.00000E+000	-5.23054E-006	0.00000E+000	6.62507E-004	-3.27687E+002	7	...........
	512	513	3.60475E+000	-1.45070E-006	0.00000E+000	-5.22942E-006	0.00000E+000	6.63757E-004	-3.27687E+002	7	...........
	513	514	3.60477E+000	-1.45025E-006	0.00000E+000	-5.22784E-006	0.00000E+000	6.62774E-004	-3.27687E+002	7	...........
	514	515	3.60477E+000	-1.44995E-006	0.00000E+000	-5.22672E-006	0.00000E+000	6.60140E-004	-3.27687E+002	7	...........
	515	516	3.60478E+000	-1.44992E-006	0.00000E+000	-5.22664E-006	0.00000E+000	6.62907E-004	-3.27687E+002	7	...........
	516	517	3.60478E+000	-1.45074E-006	0.00000E+000	-5.22961E-006	0.00000E+000	6.65140E-004	-3.27687E+002	7	...........
	517	518	3.60478E+000	-1.45018E-006	0.00000E+000	-5.22757E-006	0.00000E+000	6.63107E-004	-3.27687E+002	7	...........
	518	519	3.60478E+000	-1.45012E-006	0.00000E+000	-5.22737E-006	0.00000E+000	6.60440E-004	-3.27687E+002	7	...........
	519	520	3.60480E+000	-1.45061E-006	0.00000E+000	-5.22918E-006	0.00000E+000	6.62474E-004	-3.27687E+002	7	...........
	520	521	3.60480E+000	-1.45064E-006	0.00000E+000	-5.22928E-006	0.00000E+000	6.65707E-004	-3.27687E+002	7	...........
	521	522	3.60480E+000	-1.45084E-006	0.00000E+000	-5.23001E-006	0.00000E+000	6.64440E-004	-3.27687E+002	7	...........
	522	523	3.60481E+000	-1.45100E-006	0.00000E+000	-5.23057E-006	0.00000E+000	6.62190E-004	-3.27687E+002	7	...........
	523	524	3.60482E+000	-1.45069E-006	0.00000E+000	-5.22946E-006	0.00000E+000	6.59874E-004	-3.27687E+002	7	...........
	524	525	3.60482E+000	-1.45040E-006	0.00000E+000	-5.22843E-006	0.00000E+000	6.61274E-004	-3.27687E+002	7	...........
	525	526	3.60483E+000	-1.45034E-006	0.00000E+000	-5.22824E-006	0.00000E+000	6.61990E-004	-3.27687E+002	7	...........
	526	527	3.60485E+000	-1.45013E-006	0.00000E+000	-5.22751E-006	0.00000E+000	6.64440E-004	-3.27687E+002	7	...........
	527	528	3.60484E+000	-1.45076E-006	0.00000E+000	-5.22977E-006	0.00000E+000	6.66940E-004	-3.27687E+002	7	...........
	528	529	3.60485E+000	-1.45050E-006	0.00000E+000	-5.22886E-006	0.00000E+000	6.64724E-004	-3.27687E+002	7	...........
	529	530	3.60486E+000	-1.45026E-006	0.00000E+000	-5.22799E-006	0.00000E+000	6.63007E-004	-3.27687E+002	7	...........
	530	531	3.60488E+000	-1.45041E-006	0.00000E+000	-5.22855E-006	0.00000E+000	6.63074E-004	-3.27687E+002	7	...........
	531	532	3.60488E+000	-1.45083E-006	0.00000E+000	-5.23007E-006	0.00000E+000	6.62890E-004	-3.27687E+002	7	...........
	532	533	3.60488E+000	-1.45054E-006	0.00000E+000	-5.22902E-006	0.00000E+000	6.63757E-004	-3.27687E+002	7	...........
	533	534	3.60488E+000	-1.45048E-006	0.00000E+000	-5.22881E-006	0.00000E+000	6.58890E-004	-3.27687E+002	7	...........
	534	535	3.60489E+000	-1.45067E-006	0.00000E+000	-5.22952E-006	0.00000E+000	6.65424E-004	-3.27687E+002	7	...........
	535	536	3.60491E+000	-1.45043E-006	0.00000E+000	-5.22867E-006	0.00000E+000	6.61157E-004	-3.27687E+002	7	...........
	536	537	3.60491E+000	-1.45068E-006	0.00000E+000	-5.22958E-006	0.00000E+000	6.61907E-004	-3.27687E+002	7	...........
	537	538	3.60491E+000	-1.45018E-006	0.00000E+000	-5.22776E-006	0.00000E+000	6.66174E-004	-3.27687E+002	7	...........
	538	539	3.60492E+000	-1.45010E-006	0.00000E+000	-5.22751E-006	0.00000E+000	6.60907E-004	-3.27687E+002	7	...........
	539	540	3.60493E+000	-1.45044E-006	0.00000E+000	-5.22874E-006	0.00000E+000	6.64790E-004	-3.27687E+002	7	...........
	540	541	3.60492E+000	-1.45092E-006	0.00000E+000	-5.23046E-006	0.00000E+000	6.61974E-004	-3.27687E+002	7	...........
	541	542	3.60493E+000	-1.45042E-006	0.00000E+000	-5.22865E-006	0.00000E+000	6.61490E-004	-3.27687E+002	7	...........
	542	543	3.60495E+000	-1.45003E-006	0.00000E+000	-5.22729E-006	0.00000E+000	6.60640E-004	-3.27687E+002	7	...........
	543	544	3.60495E+000	-1.45003E-006	0.00000E+000	-5.22728E-006	0.00000E+000	6.61857E-004	-3.27687E+002	7	...........
	544	545	3.60495E+000	-1.45025E-006	0.00000E+000	-5.22807E-006	0.00000E+000	6.62774E-004	-3.27687E+002	7	...........
	545	546	3.60496E+000	-1.45087E-006	0.00000E+000	-5.23034E-006	0.00000E+000	6.61124E-004	-3.27687E+002	7	...........
	546	547	3.60497E+000	-1.45081E-006	0.00000E+000	-5.23012E-006	0.00000E+000	6.61424E-004	-3.27687E+002	7	...........
	547	548	3.60497E+000	-1.45058E-006	0.00000E+000	-5.22930E-006	0.00000E+000	6.62290E-004	-3.27687E+002	7	...........
	548	549	3.60498E+000	-1.45102E-006	0.00000E+000	-5.23090E-006	0.00000E+000	6.61840E-004	-3.27687E+002	7	...........
	549	550	3.60499E+000	-1.44947E-006	0.00000E+000	-5.22534E-006	0.00000E+000	6.62624E-004	-3.27687E+002	7	...........
	550	551	3.60500E+000	-1.45017E-006	0.00000E+000	-5.22787E-006	0.00000E+000	6.63390E-004	-3.27687E+002	7	...........
	551	552	3.60499E+000	-1.45030E-006	0.00000E+000	-5.22831E-006	0.00000E+000	6.62940E-004	-3.27687E+002	7	...........
	552	553	3.60501E+000	-1.45037E-006	0.00000E+000	-5.22862E-006	0.00000E+000	6.62207E-004	-3.27687E+002	7	...........
	553	554	3.60502E+000	-1.45021E-006	0.00000E+000	-5.22803E-006	0.00000E+000	6.61190E-004	-3.27687E+002	7	...........
	554	555	3.60503E+000	-1.45004E-006	0.00000E+000	-5.22743E-006	0.00000E+000	6.63040E-004	-3.27687E+002	7	...........
	555	556	3.60504E+000	-1.45038E-006	0.00000E+000	-5.22867E-006	0.00000E+000	6.61007E-004	-3.27687E+002	7	...........
	556	557	3.60503E+000	-1.45042E-006	0.00000E+000	-5.22881E-006	0.00000E+000	6.61457E-004	-3.27687E+002	7	...........
	557	558	3.60503E+000	-1.45025E-006	0.00000E+000	-5.22818E-006	0.00000E+000	6.60374E-004	-3.27687E+002	7	...........
	558	559	3.60505E+000	-1.45113E-006	0.00000E+000	-5.23138E-006	0.00000E+000	6.62807E-004	-3.27687E+002	7	...........
	559	560	3.60505E+000	-1.45082E-006	0.00000E+000	-5.23026E-006	0.00000E+000	6.60824E-004	-3.27687E+002	7	...........
	560	561	3.60506E+000	-1.45087E-006	0.00000E+000	-5.23046E-006	0.00000E+000	6.60640E-004	-3.27687E+002	7	...........
	561	562	3.60506E+000	-1.45022E-006	0.00000E+000	-5.22815E-006	0.00000E+000	6.59140E-004	-3.27687E+002	7	...........
	562	563	3.60507E+000	-1.45193E-006	0.00000E+000	-5.23432E-006	0.00000E+000	6.61824E-004	-3.27687E+002	7	...........
	563	564	3.60508E+000	-1.45114E-006	0.00000E+000	-5.23147E-006	0.00000E+000	6.59824E-004	-3.27687E+002	7	...........
	564	565	3.60508E+000	-1.45156E-006	0.00000E+000	-5.23299E-006	0.00000E+000	6.61540E-004	-3.27687E+002	7	...........
	565	566	3.60509E+000	-1.45079E-006	0.00000E+000	-5.23022E-006	0.00000E+000	6.60290E-004	-3.27687E+002	7	...........
	566	567	3.60509E+000	-1.45096E-006	0.00000E+000	-5.23083E-006	0.00000E+000	6.59140E-004	-3.27687E+002	7	...........
	567	568	3.60510E+000	-1.45128E-006	0.00000E+000	-5.23201E-006	0.00000E+000	6.61390E-004	-3.27687E+002	7	...........
	568	569	3.60509E+000	-1.45166E-006	0.00000E+000	-5.23337E-006	0.00000E+000	6.61407E-004	-3.27687E+002	7	...........
	569	570	3.60511E+000	-1.45214E-006	0.00000E+000	-5.23512E-006	0.00000E+000	6.62457E-004	-3.27687E+002	7	...........
	570	571	3.60511E+000	-1.45109E-006	0.00000E+000	-5.23134E-006	0.00000E+000	6.60507E-004	-3.27687E+002	7	...........
	571	572	3.60512E+000	-1.45144E-006	0.00000E+000	-5.23260E-006	0.00000E+000	6.64340E-004	-3.27687E+002	7	...........
	572	573	3.60512E+000	-1.45031E-006	0.00000E+000	-5.22853E-006	0.00000E+000	6.58890E-004	-3.27687E+002	7	...........
	573	574	3.60513E+000	-1.45026E-006	0.00000E+000	-5.22836E-006	0.00000E+000	6.62740E-004	-3.27687E+002	7	...........
	574	575	3.60513E+000	-1.45106E-006	0.00000E+000	-5.23126E-006	0.00000E+000	6.61190E-004	-3.27687E+002	7	...........
	575	576	3.60514E+000	-1.45041E-006	0.00000E+000	-5.22893E-006	0.00000E+000	6.57890E-004	-3.27687E+002	7	...........
	576	577	3.60515E+000	-1.45001E-006	0.00000E+000	-5.22751E-006	0.00000E+000	6.58240E-004	-3.27687E+002	7	...........
	577	578	3.60516E+000	-1.45085E-006	0.00000E+000	-5.23053E-006	0.00000E+000	6.60524E-004	-3.27687E+002	7	...........
	578	579	3.60516E+000	-1.45146E-006	0.00000E+000	-5.23274E-006	0.00000E+000	6.60107E-004	-3.27687E+002	7	...........
	579	580	3.60517E+000	-1.45146E-006	0.00000E+000	-5.23277E-006	0.00000E+000	6.62290E-004	-3.27687E+002	7	...........
	580	581	3.60517E+000	-1.45134E-006	0.00000E+000	-5.23234E-006	0.00000E+000	6.59357E-004	-3.27687E+002	7	...........
	581	582	3.60518E+000	-1.45154E-006	0.00000E+000	-5.23305E-006	0.00000E+000	6.60357E-004	-3.27687E+002	7	...........
	582	583	3.60518E+000	-1.45198E-006	0.00000E+000	-5.23466E-006	0.00000E+000	6.59124E-004	-3.27687E+002	7	...........
	583	584	3.60520E+000	-1.45145E-006	0.00000E+000	-5.23278E-006	0.00000E+000	6.59690E-004	-3.27687E+002	7	...........
	584	585	3.60518E+000	-1.45109E-006	0.00000E+000	-5.23144E-006	0.00000E+000	6.58290E-004	-3.27687E+002	7	...........
	585	586	3.60519E+000	-1.45059E-006	0.00000E+000	-5.22966E-006	0.00000E+000	6.61640E-004	-3.27687E+002	7	...........
	586	587	3.60520E+000	-1.45143E-006	0.00000E+000	-5.23272E-006	0.00000E+000	6.57940E-004	-3.27687E+002	7	...........
	587	588	3.60521E+000	-1.45192E-006	0.00000E+000	-5.23449E-006	0.00000E+000	6.59174E-004	-3.27687E+002	7	...........
	588	589	3.60521E+000	-1.45120E-006	0.00000E+000	-5.23189E-006	0.00000E+000	6.64257E-004	-3.27687E+002	7	...........
	589	590	3.60521E+000	-1.45127E-006	0.00000E+000	-5.23215E-006	0.00000E+000	6.61490E-004	-3.27687E+002	7	...........
	590	591	3.60522E+000	-1.45123E-006	0.00000E+000	-5.23199E-006	0.00000E+000	6.62040E-004	-3.27687E+002	7	...........
	591	592	3.60523E+000	-1.45128E-006	0.00000E+000	-5.23220E-006	0.00000E+000	6.63740E-004	-3.27687E+002	7	...........
	592	593	3.60524E+000	-1.45141E-006	0.00000E+000	-5.23268E-006	0.00000E+000	6.59524E-004	-3.27687E+002	7	...........
	593	594	3.60524E+000	-1.45098E-006	0.00000E+000	-5.23112E-006	0.00000E+000	6.59357E-004	-3.27687E+002	7	...........
	594	595	3.60526E+000	-1.45192E-006	0.00000E+000	-5.23453E-006	0.00000E+000	6.61607E-004	-3.27687E+002	7	...........
	595	596	3.60526E+000	-1.45176E-006	0.00000E+000	-5.23396E-006	0.00000E+000	6.61107E-004	-3.27687E+002	7	...........
	596	597	3.60525E+000	-1.45137E-006	0.00000E+000	-5.23254E-006	0.00000E+000	6.61274E-004	-3.27687E+002	7	...........
	597	598	3.60526E+000	-1.45153E-006	0.00000E+000	-5.23315E-006	0.00000E+000	6.62390E-004	-3.27687E+002	7	...........
	598	599	3.60527E+000	-1.45176E-006	0.00000E+000	-5.23400E-006	0.00000E+000	6.58290E-004	-3.27687E+002	7	...........
	599	600	3.60527E+000	-1.45120E-006	0.00000E+000	-5.23198E-006	0.00000E+000	6.57407E-004	-3.27687E+002	7	...........
