EXPLAIN
TAG	PWR800_READVOLTAGE
TITLE	LABEL	PWR Read Voltage	Test Identifier
DATE	LABEL	22.6.2024	Date
TIME	LABEL	2:56:57	Time
NOTES	NOTES	1	Notes...
	
PSTAT	PSTAT	REF600-12055	Potentiostat
CAPACITY	QUANT	1.00000E+000	Capacity (A-hr)
CELLTYPE	SELECTOR	1	Cell Type
WORKINGCONNECTION	SELECTOR	0	Working Connection
MAXTIME	VARIABLEANDUNITS	6.00000E+002	s	6.00000E+002	second(s)	Max Time
SAMPLETIME	QUANT	1.00000E+000	Sample Period (s)
STOPAT1	MULTIPARAM	0	0.00000E+000	Stop At 1	None	N/A
STOPAT2	MULTIPARAM	0	0.00000E+000	Stop At 2	None	N/A
AESBHCSELECTOR	TOGGLE	F	Save Both Half Cells
EOC	QUANT	4.035984	Open Circuit (V)
SEQUENCER	TOGGLE	TRUE	Run as Sequence
PSTATMODEL	IQUANT	4	Pstat Model
PSTATSECTION	LABEL	REF600-12055	Pstat Section
PSTATSERIALNO	LABEL	12055	Pstat Serial Number
CTRLMODE	IQUANT	0	Control Mode
ELECTROMETER	IQUANT	0	RE=0 or CS=1
IESTAB	IQUANT	0	I/E Stability
CASPEED	IQUANT	4	Control Amp Speed
CONVENTION	IQUANT	1	Current Convention
ICHRANGE	IQUANT	2	Ich Range
ICHRANGEMODE	TOGGLE	T	Ich Auto Range
ICHOFFSETENABLE	TOGGLE	F	Ich Offset Enable
ICHOFFSET	QUANT	0	Ich Offset (V)
ICHFILTER	IQUANT	1	Ich Filter
VCHRANGE	IQUANT	3	Vch Range
VCHRANGEMODE	TOGGLE	T	Vch Auto Range
VCHOFFSETENABLE	TOGGLE	F	Vch Offset Enable
VCHOFFSET	QUANT	0	Vch Offset (V)
VCHFILTER	IQUANT	1	Vch Filter
ACHRANGE	IQUANT	2	Ach Range
ACHOFFSETENABLE	TOGGLE	F	Ach Offset Enable
ACHOFFSET	QUANT	0	Ach Offset (V)
ACHFILTER	IQUANT	1	Ach Filter
IERANGELOWERLIMIT	IQUANT	7	I/E Range Lower Limit
IERANGEMODE	TOGGLE	F	I/E AutoRange
IERANGE	IQUANT	11	I/E Range
POSFEEDENABLE	TOGGLE	F	Positive Feedback IR Comp
POSFEEDRESISTANCE	QUANT	0	Positive Feedback Resistance (ohm)
ACHSELECT	IQUANT	4	Ach Select
SENSECABLEID	IQUANT	14	Sense Cable ID
PWRCABLEID	IQUANT	14	Power Cable ID
DCCALDATE	LABEL	2/12/2024	DC Calibration Date
ACCALDATE	LABEL	2/12/2024	AC Calibration Date
THERMOSELECT	IQUANT	1	Thermo Select
FRAMEWORKVERSION	LABEL	7.10.3	Framework Version
INSTRUMENTVERSION	LABEL	4.91	Instrument Version
COMMVERSION	LABEL	2.24	Communications Version
CPUPLDVERSION	LABEL	0.00	CPU PLD Version
CTRLPLDVERSION	LABEL	0.00	CTRL PLD Version
PSTATPLDVERSION	LABEL	0.00	PSTAT PLD Version
CURVE	TABLE	600
	Pt	T	Vf	Im	Vu	Pwr	Sig	Ach	Temp	IERange	Over
	#	s	V	A	V	W	V	V	deg C	#	bits
	0	1	3.92778E+000	2.58779E-007	0.00000E+000	1.01643E-006	0.00000E+000	1.02212E-003	-3.27687E+002	7	...........
	1	2	3.92812E+000	2.60788E-007	0.00000E+000	1.02440E-006	0.00000E+000	1.02236E-003	-3.27687E+002	7	...........
	2	3	3.92838E+000	2.61019E-007	0.00000E+000	1.02538E-006	0.00000E+000	1.02142E-003	-3.27687E+002	7	...........
	3	4	3.92857E+000	2.62199E-007	0.00000E+000	1.03007E-006	0.00000E+000	1.01987E-003	-3.27687E+002	7	...........
	4	5	3.92872E+000	2.62367E-007	0.00000E+000	1.03077E-006	0.00000E+000	1.02264E-003	-3.27687E+002	7	...........
	5	6	3.92886E+000	2.62780E-007	0.00000E+000	1.03243E-006	0.00000E+000	1.02267E-003	-3.27687E+002	7	...........
	6	7	3.92903E+000	2.63435E-007	0.00000E+000	1.03504E-006	0.00000E+000	1.02486E-003	-3.27687E+002	7	...........
	7	8	3.92919E+000	2.64437E-007	0.00000E+000	1.03902E-006	0.00000E+000	1.02857E-003	-3.27687E+002	7	...........
	8	9	3.92934E+000	2.65964E-007	0.00000E+000	1.04506E-006	0.00000E+000	1.03111E-003	-3.27687E+002	7	...........
	9	10	3.92949E+000	2.65916E-007	0.00000E+000	1.04491E-006	0.00000E+000	1.03041E-003	-3.27687E+002	7	...........
	10	11	3.92965E+000	2.66240E-007	0.00000E+000	1.04623E-006	0.00000E+000	1.03079E-003	-3.27687E+002	7	...........
	11	12	3.92979E+000	2.67258E-007	0.00000E+000	1.05027E-006	0.00000E+000	1.02864E-003	-3.27687E+002	7	...........
	12	13	3.92991E+000	2.68110E-007	0.00000E+000	1.05365E-006	0.00000E+000	1.02656E-003	-3.27687E+002	7	...........
	13	14	3.93003E+000	2.69330E-007	0.00000E+000	1.05847E-006	0.00000E+000	1.02304E-003	-3.27687E+002	7	...........
	14	15	3.93014E+000	2.69943E-007	0.00000E+000	1.06091E-006	0.00000E+000	1.02429E-003	-3.27687E+002	7	...........
	15	16	3.93024E+000	2.70477E-007	0.00000E+000	1.06304E-006	0.00000E+000	1.01974E-003	-3.27687E+002	7	...........
	16	17	3.93035E+000	2.70963E-007	0.00000E+000	1.06498E-006	0.00000E+000	1.02242E-003	-3.27687E+002	7	...........
	17	18	3.93045E+000	2.72296E-007	0.00000E+000	1.07025E-006	0.00000E+000	1.02347E-003	-3.27687E+002	7	...........
	18	19	3.93056E+000	2.73821E-007	0.00000E+000	1.07627E-006	0.00000E+000	1.02364E-003	-3.27687E+002	7	...........
	19	20	3.93065E+000	2.74189E-007	0.00000E+000	1.07774E-006	0.00000E+000	1.02417E-003	-3.27687E+002	7	...........
	20	21	3.93074E+000	2.75377E-007	0.00000E+000	1.08244E-006	0.00000E+000	8.61540E-004	-3.27687E+002	7	...........
	21	22	3.93082E+000	2.74699E-007	0.00000E+000	1.07979E-006	0.00000E+000	7.86757E-004	-3.27687E+002	7	...........
	22	23	3.93090E+000	2.75703E-007	0.00000E+000	1.08376E-006	0.00000E+000	7.88290E-004	-3.27687E+002	7	...........
	23	24	3.93098E+000	2.75582E-007	0.00000E+000	1.08331E-006	0.00000E+000	7.88590E-004	-3.27687E+002	7	...........
	24	25	3.93106E+000	2.76704E-007	0.00000E+000	1.08774E-006	0.00000E+000	7.87107E-004	-3.27687E+002	7	...........
	25	26	3.93114E+000	2.77509E-007	0.00000E+000	1.09093E-006	0.00000E+000	7.89890E-004	-3.27687E+002	7	...........
	26	27	3.93122E+000	2.77565E-007	0.00000E+000	1.09117E-006	0.00000E+000	7.86124E-004	-3.27687E+002	7	...........
	27	28	3.93129E+000	2.77518E-007	0.00000E+000	1.09100E-006	0.00000E+000	7.87707E-004	-3.27687E+002	7	...........
	28	29	3.93137E+000	2.78006E-007	0.00000E+000	1.09294E-006	0.00000E+000	7.88224E-004	-3.27687E+002	7	...........
	29	30	3.93145E+000	2.79031E-007	0.00000E+000	1.09700E-006	0.00000E+000	7.87590E-004	-3.27687E+002	7	...........
	30	31	3.93153E+000	2.78965E-007	0.00000E+000	1.09676E-006	0.00000E+000	7.83324E-004	-3.27687E+002	7	...........
	31	32	3.93160E+000	2.80320E-007	0.00000E+000	1.10210E-006	0.00000E+000	7.82824E-004	-3.27687E+002	7	...........
	32	33	3.93166E+000	2.80773E-007	0.00000E+000	1.10390E-006	0.00000E+000	7.84140E-004	-3.27687E+002	7	...........
	33	34	3.93174E+000	2.80237E-007	0.00000E+000	1.10182E-006	0.00000E+000	7.82457E-004	-3.27687E+002	7	...........
	34	35	3.93182E+000	2.81140E-007	0.00000E+000	1.10539E-006	0.00000E+000	7.80624E-004	-3.27687E+002	7	...........
	35	36	3.93188E+000	2.81803E-007	0.00000E+000	1.10801E-006	0.00000E+000	7.83340E-004	-3.27687E+002	7	...........
	36	37	3.93195E+000	2.82075E-007	0.00000E+000	1.10910E-006	0.00000E+000	7.80857E-004	-3.27687E+002	7	...........
	37	38	3.93201E+000	2.83244E-007	0.00000E+000	1.11372E-006	0.00000E+000	7.82490E-004	-3.27687E+002	7	...........
	38	39	3.93207E+000	2.83779E-007	0.00000E+000	1.11584E-006	0.00000E+000	7.85857E-004	-3.27687E+002	7	...........
	39	40	3.93213E+000	2.83511E-007	0.00000E+000	1.11480E-006	0.00000E+000	7.87424E-004	-3.27687E+002	7	...........
	40	41	3.93221E+000	2.83741E-007	0.00000E+000	1.11573E-006	0.00000E+000	7.88774E-004	-3.27687E+002	7	...........
	41	42	3.93227E+000	2.83943E-007	0.00000E+000	1.11654E-006	0.00000E+000	7.87474E-004	-3.27687E+002	7	...........
	42	43	3.93232E+000	2.84461E-007	0.00000E+000	1.11859E-006	0.00000E+000	7.90990E-004	-3.27687E+002	7	...........
	43	44	3.93238E+000	2.85032E-007	0.00000E+000	1.12085E-006	0.00000E+000	7.89807E-004	-3.27687E+002	7	...........
	44	45	3.93243E+000	2.86396E-007	0.00000E+000	1.12623E-006	0.00000E+000	7.89007E-004	-3.27687E+002	7	...........
	45	46	3.93248E+000	2.85822E-007	0.00000E+000	1.12399E-006	0.00000E+000	7.89757E-004	-3.27687E+002	7	...........
	46	47	3.93253E+000	2.86048E-007	0.00000E+000	1.12489E-006	0.00000E+000	7.93274E-004	-3.27687E+002	7	...........
	47	48	3.93258E+000	2.86606E-007	0.00000E+000	1.12710E-006	0.00000E+000	7.89557E-004	-3.27687E+002	7	...........
	48	49	3.93263E+000	2.87261E-007	0.00000E+000	1.12969E-006	0.00000E+000	7.91857E-004	-3.27687E+002	7	...........
	49	50	3.93269E+000	2.87512E-007	0.00000E+000	1.13070E-006	0.00000E+000	7.89207E-004	-3.27687E+002	7	...........
	50	51	3.93274E+000	2.88036E-007	0.00000E+000	1.13277E-006	0.00000E+000	7.89257E-004	-3.27687E+002	7	...........
	51	52	3.93279E+000	2.88092E-007	0.00000E+000	1.13301E-006	0.00000E+000	7.87540E-004	-3.27687E+002	7	...........
	52	53	3.93284E+000	2.87875E-007	0.00000E+000	1.13216E-006	0.00000E+000	7.84324E-004	-3.27687E+002	7	...........
	53	54	3.93290E+000	2.88576E-007	0.00000E+000	1.13494E-006	0.00000E+000	7.83440E-004	-3.27687E+002	7	...........
	54	55	3.93295E+000	2.88985E-007	0.00000E+000	1.13657E-006	0.00000E+000	7.81474E-004	-3.27687E+002	7	...........
	55	56	3.93300E+000	2.89347E-007	0.00000E+000	1.13800E-006	0.00000E+000	7.80524E-004	-3.27687E+002	7	...........
	56	57	3.93305E+000	2.89639E-007	0.00000E+000	1.13916E-006	0.00000E+000	7.77190E-004	-3.27687E+002	7	...........
	57	58	3.93309E+000	2.90486E-007	0.00000E+000	1.14251E-006	0.00000E+000	7.74540E-004	-3.27687E+002	7	...........
	58	59	3.93314E+000	2.89918E-007	0.00000E+000	1.14029E-006	0.00000E+000	7.75224E-004	-3.27687E+002	7	...........
	59	60	3.93319E+000	2.90752E-007	0.00000E+000	1.14358E-006	0.00000E+000	7.72674E-004	-3.27687E+002	7	...........
	60	61	3.93323E+000	2.91343E-007	0.00000E+000	1.14592E-006	0.00000E+000	7.71574E-004	-3.27687E+002	7	...........
	61	62	3.93327E+000	2.90934E-007	0.00000E+000	1.14432E-006	0.00000E+000	7.67907E-004	-3.27687E+002	7	...........
	62	63	3.93332E+000	2.91251E-007	0.00000E+000	1.14558E-006	0.00000E+000	7.70607E-004	-3.27687E+002	7	...........
	63	64	3.93336E+000	2.91331E-007	0.00000E+000	1.14591E-006	0.00000E+000	7.68190E-004	-3.27687E+002	7	...........
	64	65	3.93340E+000	2.92035E-007	0.00000E+000	1.14869E-006	0.00000E+000	7.69624E-004	-3.27687E+002	7	...........
	65	66	3.93344E+000	2.92538E-007	0.00000E+000	1.15068E-006	0.00000E+000	7.66924E-004	-3.27687E+002	7	...........
	66	67	3.93348E+000	2.92128E-007	0.00000E+000	1.14908E-006	0.00000E+000	7.69374E-004	-3.27687E+002	7	...........
	67	68	3.93352E+000	2.92681E-007	0.00000E+000	1.15127E-006	0.00000E+000	7.67724E-004	-3.27687E+002	7	...........
	68	69	3.93356E+000	2.93709E-007	0.00000E+000	1.15532E-006	0.00000E+000	7.67440E-004	-3.27687E+002	7	...........
	69	70	3.93360E+000	2.94612E-007	0.00000E+000	1.15889E-006	0.00000E+000	7.67590E-004	-3.27687E+002	7	...........
	70	71	3.93363E+000	2.93822E-007	0.00000E+000	1.15579E-006	0.00000E+000	7.69640E-004	-3.27687E+002	7	...........
	71	72	3.93367E+000	2.95314E-007	0.00000E+000	1.16167E-006	0.00000E+000	7.68840E-004	-3.27687E+002	7	...........
	72	73	3.93371E+000	2.95420E-007	0.00000E+000	1.16210E-006	0.00000E+000	7.68974E-004	-3.27687E+002	7	...........
	73	74	3.93373E+000	2.95480E-007	0.00000E+000	1.16234E-006	0.00000E+000	7.69674E-004	-3.27687E+002	7	...........
	74	75	3.93377E+000	2.96066E-007	0.00000E+000	1.16466E-006	0.00000E+000	7.72024E-004	-3.27687E+002	7	...........
	75	76	3.93381E+000	2.95952E-007	0.00000E+000	1.16422E-006	0.00000E+000	7.71990E-004	-3.27687E+002	7	...........
	76	77	3.93383E+000	2.95523E-007	0.00000E+000	1.16254E-006	0.00000E+000	7.70440E-004	-3.27687E+002	7	...........
	77	78	3.93387E+000	2.95783E-007	0.00000E+000	1.16357E-006	0.00000E+000	7.70457E-004	-3.27687E+002	7	...........
	78	79	3.93390E+000	2.95593E-007	0.00000E+000	1.16283E-006	0.00000E+000	7.74424E-004	-3.27687E+002	7	...........
	79	80	3.93393E+000	2.95720E-007	0.00000E+000	1.16334E-006	0.00000E+000	7.73890E-004	-3.27687E+002	7	...........
	80	81	3.93397E+000	2.95950E-007	0.00000E+000	1.16426E-006	0.00000E+000	7.76724E-004	-3.27687E+002	7	...........
	81	82	3.93399E+000	2.96813E-007	0.00000E+000	1.16766E-006	0.00000E+000	7.73624E-004	-3.27687E+002	7	...........
	82	83	3.93403E+000	2.95920E-007	0.00000E+000	1.16416E-006	0.00000E+000	7.76907E-004	-3.27687E+002	7	...........
	83	84	3.93406E+000	2.96186E-007	0.00000E+000	1.16521E-006	0.00000E+000	7.79107E-004	-3.27687E+002	7	...........
	84	85	3.93409E+000	2.97224E-007	0.00000E+000	1.16931E-006	0.00000E+000	7.81240E-004	-3.27687E+002	7	...........
	85	86	3.93412E+000	2.97384E-007	0.00000E+000	1.16994E-006	0.00000E+000	7.80290E-004	-3.27687E+002	7	...........
	86	87	3.93415E+000	2.98121E-007	0.00000E+000	1.17285E-006	0.00000E+000	7.79557E-004	-3.27687E+002	7	...........
	87	88	3.93418E+000	2.99026E-007	0.00000E+000	1.17642E-006	0.00000E+000	7.79740E-004	-3.27687E+002	7	...........
	88	89	3.93419E+000	2.98841E-007	0.00000E+000	1.17570E-006	0.00000E+000	7.79474E-004	-3.27687E+002	7	...........
	89	90	3.93423E+000	2.98194E-007	0.00000E+000	1.17316E-006	0.00000E+000	7.80807E-004	-3.27687E+002	7	...........
	90	91	3.93426E+000	2.98291E-007	0.00000E+000	1.17356E-006	0.00000E+000	7.79124E-004	-3.27687E+002	7	...........
	91	92	3.93429E+000	2.98501E-007	0.00000E+000	1.17439E-006	0.00000E+000	7.78557E-004	-3.27687E+002	7	...........
	92	93	3.93432E+000	2.99444E-007	0.00000E+000	1.17811E-006	0.00000E+000	7.82974E-004	-3.27687E+002	7	...........
	93	94	3.93435E+000	3.00288E-007	0.00000E+000	1.18144E-006	0.00000E+000	7.78107E-004	-3.27687E+002	7	...........
	94	95	3.93438E+000	3.00789E-007	0.00000E+000	1.18342E-006	0.00000E+000	7.80957E-004	-3.27687E+002	7	...........
	95	96	3.93441E+000	3.00336E-007	0.00000E+000	1.18164E-006	0.00000E+000	7.79790E-004	-3.27687E+002	7	...........
	96	97	3.93443E+000	3.00509E-007	0.00000E+000	1.18233E-006	0.00000E+000	7.80824E-004	-3.27687E+002	7	...........
	97	98	3.93445E+000	3.00826E-007	0.00000E+000	1.18359E-006	0.00000E+000	7.78924E-004	-3.27687E+002	7	...........
	98	99	3.93448E+000	3.01408E-007	0.00000E+000	1.18589E-006	0.00000E+000	7.78824E-004	-3.27687E+002	7	...........
	99	100	3.93452E+000	3.01667E-007	0.00000E+000	1.18692E-006	0.00000E+000	7.81207E-004	-3.27687E+002	7	...........
	100	101	3.93453E+000	3.01458E-007	0.00000E+000	1.18610E-006	0.00000E+000	7.80174E-004	-3.27687E+002	7	...........
	101	102	3.93455E+000	3.01299E-007	0.00000E+000	1.18548E-006	0.00000E+000	7.77207E-004	-3.27687E+002	7	...........
	102	103	3.93459E+000	3.01316E-007	0.00000E+000	1.18555E-006	0.00000E+000	7.79040E-004	-3.27687E+002	7	...........
	103	104	3.93460E+000	3.01015E-007	0.00000E+000	1.18437E-006	0.00000E+000	7.77707E-004	-3.27687E+002	7	...........
	104	105	3.93463E+000	3.00986E-007	0.00000E+000	1.18427E-006	0.00000E+000	7.80557E-004	-3.27687E+002	7	...........
	105	106	3.93465E+000	3.01470E-007	0.00000E+000	1.18618E-006	0.00000E+000	7.76457E-004	-3.27687E+002	7	...........
	106	107	3.93467E+000	3.03020E-007	0.00000E+000	1.19228E-006	0.00000E+000	7.77207E-004	-3.27687E+002	7	...........
	107	108	3.93470E+000	3.01937E-007	0.00000E+000	1.18803E-006	0.00000E+000	7.75590E-004	-3.27687E+002	7	...........
	108	109	3.93473E+000	3.02304E-007	0.00000E+000	1.18948E-006	0.00000E+000	7.75940E-004	-3.27687E+002	7	...........
	109	110	3.93474E+000	3.02444E-007	0.00000E+000	1.19004E-006	0.00000E+000	7.75440E-004	-3.27687E+002	7	...........
	110	111	3.93476E+000	3.01825E-007	0.00000E+000	1.18761E-006	0.00000E+000	7.76907E-004	-3.27687E+002	7	...........
	111	112	3.93479E+000	3.02361E-007	0.00000E+000	1.18972E-006	0.00000E+000	7.76207E-004	-3.27687E+002	7	...........
	112	113	3.93480E+000	3.02765E-007	0.00000E+000	1.19132E-006	0.00000E+000	7.76124E-004	-3.27687E+002	7	...........
	113	114	3.93482E+000	3.02902E-007	0.00000E+000	1.19186E-006	0.00000E+000	7.75757E-004	-3.27687E+002	7	...........
	114	115	3.93484E+000	3.02817E-007	0.00000E+000	1.19154E-006	0.00000E+000	7.77824E-004	-3.27687E+002	7	...........
	115	116	3.93485E+000	3.02645E-007	0.00000E+000	1.19086E-006	0.00000E+000	7.76257E-004	-3.27687E+002	7	...........
	116	117	3.93487E+000	3.03282E-007	0.00000E+000	1.19338E-006	0.00000E+000	7.77374E-004	-3.27687E+002	7	...........
	117	118	3.93489E+000	3.03653E-007	0.00000E+000	1.19484E-006	0.00000E+000	7.73940E-004	-3.27687E+002	7	...........
	118	119	3.93492E+000	3.03987E-007	0.00000E+000	1.19617E-006	0.00000E+000	7.76074E-004	-3.27687E+002	7	...........
	119	120	3.93493E+000	3.03913E-007	0.00000E+000	1.19588E-006	0.00000E+000	7.78457E-004	-3.27687E+002	7	...........
	120	121	3.93495E+000	3.03733E-007	0.00000E+000	1.19517E-006	0.00000E+000	7.75940E-004	-3.27687E+002	7	...........
	121	122	3.93497E+000	3.04278E-007	0.00000E+000	1.19733E-006	0.00000E+000	7.77057E-004	-3.27687E+002	7	...........
	122	123	3.93498E+000	3.04030E-007	0.00000E+000	1.19635E-006	0.00000E+000	7.79524E-004	-3.27687E+002	7	...........
	123	124	3.93499E+000	3.03821E-007	0.00000E+000	1.19553E-006	0.00000E+000	7.79957E-004	-3.27687E+002	7	...........
	124	125	3.93501E+000	3.03381E-007	0.00000E+000	1.19381E-006	0.00000E+000	7.77474E-004	-3.27687E+002	7	...........
	125	126	3.93503E+000	3.02852E-007	0.00000E+000	1.19173E-006	0.00000E+000	7.78307E-004	-3.27687E+002	7	...........
	126	127	3.93504E+000	3.04100E-007	0.00000E+000	1.19665E-006	0.00000E+000	7.79274E-004	-3.27687E+002	7	...........
	127	128	3.93506E+000	3.03340E-007	0.00000E+000	1.19366E-006	0.00000E+000	7.76140E-004	-3.27687E+002	7	...........
	128	129	3.93506E+000	3.03202E-007	0.00000E+000	1.19312E-006	0.00000E+000	7.79240E-004	-3.27687E+002	7	...........
	129	130	3.93508E+000	3.04187E-007	0.00000E+000	1.19700E-006	0.00000E+000	7.79807E-004	-3.27687E+002	7	...........
	130	131	3.93510E+000	3.05052E-007	0.00000E+000	1.20041E-006	0.00000E+000	7.79474E-004	-3.27687E+002	7	...........
	131	132	3.93511E+000	3.04711E-007	0.00000E+000	1.19907E-006	0.00000E+000	7.80324E-004	-3.27687E+002	7	...........
	132	133	3.93512E+000	3.04290E-007	0.00000E+000	1.19742E-006	0.00000E+000	7.80524E-004	-3.27687E+002	7	...........
	133	134	3.93514E+000	3.04289E-007	0.00000E+000	1.19742E-006	0.00000E+000	7.78490E-004	-3.27687E+002	7	...........
	134	135	3.93516E+000	3.04810E-007	0.00000E+000	1.19947E-006	0.00000E+000	7.78924E-004	-3.27687E+002	7	...........
	135	136	3.93517E+000	3.05077E-007	0.00000E+000	1.20053E-006	0.00000E+000	7.82490E-004	-3.27687E+002	7	...........
	136	137	3.93519E+000	3.04655E-007	0.00000E+000	1.19887E-006	0.00000E+000	7.82040E-004	-3.27687E+002	7	...........
	137	138	3.93521E+000	3.04912E-007	0.00000E+000	1.19989E-006	0.00000E+000	7.78874E-004	-3.27687E+002	7	...........
	138	139	3.93521E+000	3.05004E-007	0.00000E+000	1.20025E-006	0.00000E+000	7.81074E-004	-3.27687E+002	7	...........
	139	140	3.93524E+000	3.05036E-007	0.00000E+000	1.20039E-006	0.00000E+000	7.82424E-004	-3.27687E+002	7	...........
	140	141	3.93525E+000	3.04915E-007	0.00000E+000	1.19991E-006	0.00000E+000	7.81040E-004	-3.27687E+002	7	...........
	141	142	3.93526E+000	3.05874E-007	0.00000E+000	1.20369E-006	0.00000E+000	7.83024E-004	-3.27687E+002	7	...........
	142	143	3.93527E+000	3.06258E-007	0.00000E+000	1.20521E-006	0.00000E+000	7.85690E-004	-3.27687E+002	7	...........
	143	144	3.93529E+000	3.06551E-007	0.00000E+000	1.20637E-006	0.00000E+000	7.84907E-004	-3.27687E+002	7	...........
	144	145	3.93530E+000	3.06259E-007	0.00000E+000	1.20522E-006	0.00000E+000	7.83474E-004	-3.27687E+002	7	...........
	145	146	3.93531E+000	3.06422E-007	0.00000E+000	1.20587E-006	0.00000E+000	7.84374E-004	-3.27687E+002	7	...........
	146	147	3.93533E+000	3.06580E-007	0.00000E+000	1.20649E-006	0.00000E+000	7.83890E-004	-3.27687E+002	7	...........
	147	148	3.93535E+000	3.06382E-007	0.00000E+000	1.20572E-006	0.00000E+000	7.84990E-004	-3.27687E+002	7	...........
	148	149	3.93536E+000	3.05886E-007	0.00000E+000	1.20377E-006	0.00000E+000	7.84174E-004	-3.27687E+002	7	...........
	149	150	3.93537E+000	3.05835E-007	0.00000E+000	1.20357E-006	0.00000E+000	7.81940E-004	-3.27687E+002	7	...........
	150	151	3.93539E+000	3.06592E-007	0.00000E+000	1.20656E-006	0.00000E+000	7.84457E-004	-3.27687E+002	7	...........
	151	152	3.93541E+000	3.06166E-007	0.00000E+000	1.20489E-006	0.00000E+000	7.84540E-004	-3.27687E+002	7	...........
	152	153	3.93542E+000	3.05397E-007	0.00000E+000	1.20187E-006	0.00000E+000	7.85724E-004	-3.27687E+002	7	...........
	153	154	3.93544E+000	3.05723E-007	0.00000E+000	1.20316E-006	0.00000E+000	7.86224E-004	-3.27687E+002	7	...........
	154	155	3.93544E+000	3.06242E-007	0.00000E+000	1.20520E-006	0.00000E+000	7.87690E-004	-3.27687E+002	7	...........
	155	156	3.93545E+000	3.07351E-007	0.00000E+000	1.20957E-006	0.00000E+000	7.84640E-004	-3.27687E+002	7	...........
	156	157	3.93548E+000	3.06937E-007	0.00000E+000	1.20794E-006	0.00000E+000	7.84040E-004	-3.27687E+002	7	...........
	157	158	3.93548E+000	3.06618E-007	0.00000E+000	1.20669E-006	0.00000E+000	7.85540E-004	-3.27687E+002	7	...........
	158	159	3.93550E+000	3.06754E-007	0.00000E+000	1.20723E-006	0.00000E+000	7.86824E-004	-3.27687E+002	7	...........
	159	160	3.93553E+000	3.07350E-007	0.00000E+000	1.20958E-006	0.00000E+000	7.85924E-004	-3.27687E+002	7	...........
	160	161	3.93554E+000	3.07505E-007	0.00000E+000	1.21020E-006	0.00000E+000	7.86540E-004	-3.27687E+002	7	...........
	161	162	3.93554E+000	3.07096E-007	0.00000E+000	1.20859E-006	0.00000E+000	7.85790E-004	-3.27687E+002	7	...........
	162	163	3.93556E+000	3.07413E-007	0.00000E+000	1.20984E-006	0.00000E+000	7.83540E-004	-3.27687E+002	7	...........
	163	164	3.93558E+000	3.07856E-007	0.00000E+000	1.21159E-006	0.00000E+000	7.87257E-004	-3.27687E+002	7	...........
	164	165	3.93560E+000	3.08156E-007	0.00000E+000	1.21278E-006	0.00000E+000	7.86890E-004	-3.27687E+002	7	...........
	165	166	3.93561E+000	3.07982E-007	0.00000E+000	1.21210E-006	0.00000E+000	7.87074E-004	-3.27687E+002	7	...........
	166	167	3.93563E+000	3.07803E-007	0.00000E+000	1.21140E-006	0.00000E+000	7.86407E-004	-3.27687E+002	7	...........
	167	168	3.93564E+000	3.08321E-007	0.00000E+000	1.21344E-006	0.00000E+000	7.85124E-004	-3.27687E+002	7	...........
	168	169	3.93565E+000	3.08448E-007	0.00000E+000	1.21394E-006	0.00000E+000	7.85640E-004	-3.27687E+002	7	...........
	169	170	3.93567E+000	3.08688E-007	0.00000E+000	1.21489E-006	0.00000E+000	7.86140E-004	-3.27687E+002	7	...........
	170	171	3.93568E+000	3.08646E-007	0.00000E+000	1.21473E-006	0.00000E+000	7.86157E-004	-3.27687E+002	7	...........
	171	172	3.93570E+000	3.08673E-007	0.00000E+000	1.21484E-006	0.00000E+000	7.88140E-004	-3.27687E+002	7	...........
	172	173	3.93571E+000	3.08887E-007	0.00000E+000	1.21569E-006	0.00000E+000	7.89490E-004	-3.27687E+002	7	...........
	173	174	3.93572E+000	3.09073E-007	0.00000E+000	1.21643E-006	0.00000E+000	7.86040E-004	-3.27687E+002	7	...........
	174	175	3.93574E+000	3.08780E-007	0.00000E+000	1.21528E-006	0.00000E+000	7.84124E-004	-3.27687E+002	7	...........
	175	176	3.93575E+000	3.08625E-007	0.00000E+000	1.21467E-006	0.00000E+000	7.85557E-004	-3.27687E+002	7	...........
	176	177	3.93578E+000	3.09366E-007	0.00000E+000	1.21760E-006	0.00000E+000	7.87090E-004	-3.27687E+002	7	...........
	177	178	3.93580E+000	3.09024E-007	0.00000E+000	1.21626E-006	0.00000E+000	7.87307E-004	-3.27687E+002	7	...........
	178	179	3.93580E+000	3.09594E-007	0.00000E+000	1.21850E-006	0.00000E+000	7.86257E-004	-3.27687E+002	7	...........
	179	180	3.93582E+000	3.09869E-007	0.00000E+000	1.21959E-006	0.00000E+000	7.85890E-004	-3.27687E+002	7	...........
	180	181	3.93583E+000	3.11025E-007	0.00000E+000	1.22414E-006	0.00000E+000	7.89190E-004	-3.27687E+002	7	...........
	181	182	3.93586E+000	3.11410E-007	0.00000E+000	1.22566E-006	0.00000E+000	7.85040E-004	-3.27687E+002	7	...........
	182	183	3.93586E+000	3.11598E-007	0.00000E+000	1.22641E-006	0.00000E+000	7.83624E-004	-3.27687E+002	7	...........
	183	184	3.93588E+000	3.11207E-007	0.00000E+000	1.22487E-006	0.00000E+000	7.83924E-004	-3.27687E+002	7	...........
	184	185	3.93589E+000	3.11613E-007	0.00000E+000	1.22648E-006	0.00000E+000	7.83907E-004	-3.27687E+002	7	...........
	185	186	3.93591E+000	3.11924E-007	0.00000E+000	1.22770E-006	0.00000E+000	7.84490E-004	-3.27687E+002	7	...........
	186	187	3.93592E+000	3.11344E-007	0.00000E+000	1.22543E-006	0.00000E+000	7.87624E-004	-3.27687E+002	7	...........
	187	188	3.93594E+000	3.11749E-007	0.00000E+000	1.22702E-006	0.00000E+000	7.84340E-004	-3.27687E+002	7	...........
	188	189	3.93594E+000	3.11570E-007	0.00000E+000	1.22632E-006	0.00000E+000	7.86057E-004	-3.27687E+002	7	...........
	189	190	3.93595E+000	3.10968E-007	0.00000E+000	1.22395E-006	0.00000E+000	7.84974E-004	-3.27687E+002	7	...........
	190	191	3.93597E+000	3.11208E-007	0.00000E+000	1.22491E-006	0.00000E+000	7.83607E-004	-3.27687E+002	7	...........
	191	192	3.93598E+000	3.11365E-007	0.00000E+000	1.22553E-006	0.00000E+000	7.82774E-004	-3.27687E+002	7	...........
	192	193	3.93599E+000	3.11839E-007	0.00000E+000	1.22740E-006	0.00000E+000	7.86540E-004	-3.27687E+002	7	...........
	193	194	3.93601E+000	3.11193E-007	0.00000E+000	1.22486E-006	0.00000E+000	7.83724E-004	-3.27687E+002	7	...........
	194	195	3.93601E+000	3.11538E-007	0.00000E+000	1.22622E-006	0.00000E+000	7.85407E-004	-3.27687E+002	7	...........
	195	196	3.93602E+000	3.11918E-007	0.00000E+000	1.22771E-006	0.00000E+000	7.82474E-004	-3.27687E+002	7	...........
	196	197	3.93604E+000	3.11642E-007	0.00000E+000	1.22663E-006	0.00000E+000	7.82940E-004	-3.27687E+002	7	...........
	197	198	3.93605E+000	3.12148E-007	0.00000E+000	1.22863E-006	0.00000E+000	7.81890E-004	-3.27687E+002	7	...........
	198	199	3.93607E+000	3.11855E-007	0.00000E+000	1.22748E-006	0.00000E+000	7.83090E-004	-3.27687E+002	7	...........
	199	200	3.93608E+000	3.12081E-007	0.00000E+000	1.22838E-006	0.00000E+000	7.82874E-004	-3.27687E+002	7	...........
	200	201	3.93608E+000	3.12132E-007	0.00000E+000	1.22858E-006	0.00000E+000	7.82224E-004	-3.27687E+002	7	...........
	201	202	3.93609E+000	3.12086E-007	0.00000E+000	1.22840E-006	0.00000E+000	7.81607E-004	-3.27687E+002	7	...........
	202	203	3.93611E+000	3.13183E-007	0.00000E+000	1.23272E-006	0.00000E+000	7.80274E-004	-3.27687E+002	7	...........
	203	204	3.93613E+000	3.13088E-007	0.00000E+000	1.23235E-006	0.00000E+000	7.83990E-004	-3.27687E+002	7	...........
	204	205	3.93614E+000	3.12635E-007	0.00000E+000	1.23057E-006	0.00000E+000	7.84890E-004	-3.27687E+002	7	...........
	205	206	3.93615E+000	3.12575E-007	0.00000E+000	1.23034E-006	0.00000E+000	7.80057E-004	-3.27687E+002	7	...........
	206	207	3.93617E+000	3.12481E-007	0.00000E+000	1.22998E-006	0.00000E+000	7.81307E-004	-3.27687E+002	7	...........
	207	208	3.93617E+000	3.12778E-007	0.00000E+000	1.23115E-006	0.00000E+000	7.80774E-004	-3.27687E+002	7	...........
	208	209	3.93618E+000	3.12789E-007	0.00000E+000	1.23119E-006	0.00000E+000	7.79257E-004	-3.27687E+002	7	...........
	209	210	3.93619E+000	3.12722E-007	0.00000E+000	1.23093E-006	0.00000E+000	7.79590E-004	-3.27687E+002	7	...........
	210	211	3.93619E+000	3.11934E-007	0.00000E+000	1.22783E-006	0.00000E+000	7.82990E-004	-3.27687E+002	7	...........
	211	212	3.93621E+000	3.12360E-007	0.00000E+000	1.22951E-006	0.00000E+000	7.80990E-004	-3.27687E+002	7	...........
	212	213	3.93622E+000	3.12474E-007	0.00000E+000	1.22997E-006	0.00000E+000	7.83340E-004	-3.27687E+002	7	...........
	213	214	3.93623E+000	3.12412E-007	0.00000E+000	1.22973E-006	0.00000E+000	7.79457E-004	-3.27687E+002	7	...........
	214	215	3.93625E+000	3.12637E-007	0.00000E+000	1.23062E-006	0.00000E+000	7.82007E-004	-3.27687E+002	7	...........
	215	216	3.93626E+000	3.12038E-007	0.00000E+000	1.22826E-006	0.00000E+000	7.79274E-004	-3.27687E+002	7	...........
	216	217	3.93625E+000	3.13187E-007	0.00000E+000	1.23278E-006	0.00000E+000	7.82107E-004	-3.27687E+002	7	...........
	217	218	3.93628E+000	3.13462E-007	0.00000E+000	1.23387E-006	0.00000E+000	7.79940E-004	-3.27687E+002	7	...........
	218	219	3.93628E+000	3.12845E-007	0.00000E+000	1.23144E-006	0.00000E+000	7.78640E-004	-3.27687E+002	7	...........
	219	220	3.93630E+000	3.13313E-007	0.00000E+000	1.23330E-006	0.00000E+000	7.79174E-004	-3.27687E+002	7	...........
	220	221	3.93631E+000	3.13498E-007	0.00000E+000	1.23403E-006	0.00000E+000	7.78590E-004	-3.27687E+002	7	...........
	221	222	3.93631E+000	3.13467E-007	0.00000E+000	1.23390E-006	0.00000E+000	7.80424E-004	-3.27687E+002	7	...........
	222	223	3.93632E+000	3.13470E-007	0.00000E+000	1.23392E-006	0.00000E+000	7.77074E-004	-3.27687E+002	7	...........
	223	224	3.93634E+000	3.13407E-007	0.00000E+000	1.23368E-006	0.00000E+000	7.77690E-004	-3.27687E+002	7	...........
	224	225	3.93634E+000	3.13796E-007	0.00000E+000	1.23521E-006	0.00000E+000	7.79057E-004	-3.27687E+002	7	...........
	225	226	3.93636E+000	3.13853E-007	0.00000E+000	1.23544E-006	0.00000E+000	7.78390E-004	-3.27687E+002	7	...........
	226	227	3.93636E+000	3.12989E-007	0.00000E+000	1.23204E-006	0.00000E+000	7.79307E-004	-3.27687E+002	7	...........
	227	228	3.93637E+000	3.14238E-007	0.00000E+000	1.23696E-006	0.00000E+000	7.76940E-004	-3.27687E+002	7	...........
	228	229	3.93638E+000	3.13707E-007	0.00000E+000	1.23487E-006	0.00000E+000	7.77707E-004	-3.27687E+002	7	...........
	229	230	3.93639E+000	3.14625E-007	0.00000E+000	1.23849E-006	0.00000E+000	7.76857E-004	-3.27687E+002	7	...........
	230	231	3.93639E+000	3.14339E-007	0.00000E+000	1.23736E-006	0.00000E+000	7.75690E-004	-3.27687E+002	7	...........
	231	232	3.93640E+000	3.15240E-007	0.00000E+000	1.24091E-006	0.00000E+000	7.78207E-004	-3.27687E+002	7	...........
	232	233	3.93641E+000	3.14427E-007	0.00000E+000	1.23771E-006	0.00000E+000	7.78907E-004	-3.27687E+002	7	...........
	233	234	3.93642E+000	3.14630E-007	0.00000E+000	1.23851E-006	0.00000E+000	7.76740E-004	-3.27687E+002	7	...........
	234	235	3.93642E+000	3.14953E-007	0.00000E+000	1.23979E-006	0.00000E+000	7.78274E-004	-3.27687E+002	7	...........
	235	236	3.93643E+000	3.14876E-007	0.00000E+000	1.23949E-006	0.00000E+000	7.78657E-004	-3.27687E+002	7	...........
	236	237	3.93644E+000	3.14645E-007	0.00000E+000	1.23858E-006	0.00000E+000	7.81007E-004	-3.27687E+002	7	...........
	237	238	3.93645E+000	3.14852E-007	0.00000E+000	1.23940E-006	0.00000E+000	7.75590E-004	-3.27687E+002	7	...........
	238	239	3.93645E+000	3.15423E-007	0.00000E+000	1.24165E-006	0.00000E+000	7.75990E-004	-3.27687E+002	7	...........
	239	240	3.93645E+000	3.14866E-007	0.00000E+000	1.23946E-006	0.00000E+000	7.77457E-004	-3.27687E+002	7	...........
	240	241	3.93646E+000	3.16074E-007	0.00000E+000	1.24421E-006	0.00000E+000	7.76740E-004	-3.27687E+002	7	...........
	241	242	3.93647E+000	3.16153E-007	0.00000E+000	1.24453E-006	0.00000E+000	7.74640E-004	-3.27687E+002	7	...........
	242	243	3.93648E+000	3.15183E-007	0.00000E+000	1.24071E-006	0.00000E+000	7.76940E-004	-3.27687E+002	7	...........
	243	244	3.93650E+000	3.15534E-007	0.00000E+000	1.24210E-006	0.00000E+000	7.75590E-004	-3.27687E+002	7	...........
	244	245	3.93650E+000	3.15759E-007	0.00000E+000	1.24298E-006	0.00000E+000	7.77057E-004	-3.27687E+002	7	...........
	245	246	3.93651E+000	3.16503E-007	0.00000E+000	1.24592E-006	0.00000E+000	7.74790E-004	-3.27687E+002	7	...........
	246	247	3.93651E+000	3.15728E-007	0.00000E+000	1.24287E-006	0.00000E+000	7.74207E-004	-3.27687E+002	7	...........
	247	248	3.93653E+000	3.14968E-007	0.00000E+000	1.23988E-006	0.00000E+000	7.72740E-004	-3.27687E+002	7	...........
	248	249	3.93654E+000	3.16455E-007	0.00000E+000	1.24574E-006	0.00000E+000	7.75957E-004	-3.27687E+002	7	...........
	249	250	3.93654E+000	3.16100E-007	0.00000E+000	1.24434E-006	0.00000E+000	7.75857E-004	-3.27687E+002	7	...........
	250	251	3.93655E+000	3.15812E-007	0.00000E+000	1.24321E-006	0.00000E+000	7.73590E-004	-3.27687E+002	7	...........
	251	252	3.93656E+000	3.15977E-007	0.00000E+000	1.24386E-006	0.00000E+000	7.75957E-004	-3.27687E+002	7	...........
	252	253	3.93656E+000	3.15668E-007	0.00000E+000	1.24265E-006	0.00000E+000	7.73357E-004	-3.27687E+002	7	...........
	253	254	3.93657E+000	3.16711E-007	0.00000E+000	1.24675E-006	0.00000E+000	7.74624E-004	-3.27687E+002	7	...........
	254	255	3.93657E+000	3.16674E-007	0.00000E+000	1.24661E-006	0.00000E+000	7.73190E-004	-3.27687E+002	7	...........
	255	256	3.93658E+000	3.16317E-007	0.00000E+000	1.24521E-006	0.00000E+000	7.72224E-004	-3.27687E+002	7	...........
	256	257	3.93659E+000	3.16277E-007	0.00000E+000	1.24505E-006	0.00000E+000	7.73007E-004	-3.27687E+002	7	...........
	257	258	3.93660E+000	3.16501E-007	0.00000E+000	1.24594E-006	0.00000E+000	7.70740E-004	-3.27687E+002	7	...........
	258	259	3.93660E+000	3.16610E-007	0.00000E+000	1.24637E-006	0.00000E+000	7.71557E-004	-3.27687E+002	7	...........
	259	260	3.93661E+000	3.17027E-007	0.00000E+000	1.24801E-006	0.00000E+000	7.71924E-004	-3.27687E+002	7	...........
	260	261	3.93662E+000	3.16435E-007	0.00000E+000	1.24568E-006	0.00000E+000	7.75324E-004	-3.27687E+002	7	...........
	261	262	3.93663E+000	3.16754E-007	0.00000E+000	1.24694E-006	0.00000E+000	7.73374E-004	-3.27687E+002	7	...........
	262	263	3.93664E+000	3.16743E-007	0.00000E+000	1.24690E-006	0.00000E+000	7.74257E-004	-3.27687E+002	7	...........
	263	264	3.93664E+000	3.17102E-007	0.00000E+000	1.24832E-006	0.00000E+000	7.73340E-004	-3.27687E+002	7	...........
	264	265	3.93665E+000	3.17377E-007	0.00000E+000	1.24940E-006	0.00000E+000	7.72657E-004	-3.27687E+002	7	...........
	265	266	3.93666E+000	3.17841E-007	0.00000E+000	1.25123E-006	0.00000E+000	7.76307E-004	-3.27687E+002	7	...........
	266	267	3.93666E+000	3.17862E-007	0.00000E+000	1.25131E-006	0.00000E+000	7.74390E-004	-3.27687E+002	7	...........
	267	268	3.93667E+000	3.17538E-007	0.00000E+000	1.25004E-006	0.00000E+000	7.73540E-004	-3.27687E+002	7	...........
	268	269	3.93667E+000	3.18001E-007	0.00000E+000	1.25187E-006	0.00000E+000	7.73057E-004	-3.27687E+002	7	...........
	269	270	3.93668E+000	3.18428E-007	0.00000E+000	1.25355E-006	0.00000E+000	7.72807E-004	-3.27687E+002	7	...........
	270	271	3.93669E+000	3.18422E-007	0.00000E+000	1.25353E-006	0.00000E+000	7.73190E-004	-3.27687E+002	7	...........
	271	272	3.93670E+000	3.18630E-007	0.00000E+000	1.25435E-006	0.00000E+000	7.73057E-004	-3.27687E+002	7	...........
	272	273	3.93670E+000	3.18951E-007	0.00000E+000	1.25561E-006	0.00000E+000	7.73107E-004	-3.27687E+002	7	...........
	273	274	3.93670E+000	3.18905E-007	0.00000E+000	1.25543E-006	0.00000E+000	7.71424E-004	-3.27687E+002	7	...........
	274	275	3.93672E+000	3.18694E-007	0.00000E+000	1.25461E-006	0.00000E+000	7.73424E-004	-3.27687E+002	7	...........
	275	276	3.93672E+000	3.18380E-007	0.00000E+000	1.25337E-006	0.00000E+000	7.74557E-004	-3.27687E+002	7	...........
	276	277	3.93672E+000	3.18595E-007	0.00000E+000	1.25422E-006	0.00000E+000	7.74457E-004	-3.27687E+002	7	...........
	277	278	3.93673E+000	3.18657E-007	0.00000E+000	1.25447E-006	0.00000E+000	7.74157E-004	-3.27687E+002	7	...........
	278	279	3.93673E+000	3.19279E-007	0.00000E+000	1.25692E-006	0.00000E+000	7.74624E-004	-3.27687E+002	7	...........
	279	280	3.93674E+000	3.18952E-007	0.00000E+000	1.25563E-006	0.00000E+000	7.73757E-004	-3.27687E+002	7	...........
	280	281	3.93675E+000	3.18560E-007	0.00000E+000	1.25409E-006	0.00000E+000	7.71840E-004	-3.27687E+002	7	...........
	281	282	3.93675E+000	3.18533E-007	0.00000E+000	1.25398E-006	0.00000E+000	7.72190E-004	-3.27687E+002	7	...........
	282	283	3.93676E+000	3.18409E-007	0.00000E+000	1.25350E-006	0.00000E+000	7.73840E-004	-3.27687E+002	7	...........
	283	284	3.93676E+000	3.18201E-007	0.00000E+000	1.25268E-006	0.00000E+000	7.73524E-004	-3.27687E+002	7	...........
	284	285	3.93677E+000	3.18886E-007	0.00000E+000	1.25538E-006	0.00000E+000	7.75024E-004	-3.27687E+002	7	...........
	285	286	3.93677E+000	3.18172E-007	0.00000E+000	1.25257E-006	0.00000E+000	7.75390E-004	-3.27687E+002	7	...........
	286	287	3.93678E+000	3.18812E-007	0.00000E+000	1.25510E-006	0.00000E+000	7.75624E-004	-3.27687E+002	7	...........
	287	288	3.93679E+000	3.18671E-007	0.00000E+000	1.25454E-006	0.00000E+000	7.76140E-004	-3.27687E+002	7	...........
	288	289	3.93680E+000	3.18653E-007	0.00000E+000	1.25447E-006	0.00000E+000	7.74924E-004	-3.27687E+002	7	...........
	289	290	3.93680E+000	3.18743E-007	0.00000E+000	1.25483E-006	0.00000E+000	7.74774E-004	-3.27687E+002	7	...........
	290	291	3.93680E+000	3.19390E-007	0.00000E+000	1.25738E-006	0.00000E+000	7.77807E-004	-3.27687E+002	7	...........
	291	292	3.93681E+000	3.18429E-007	0.00000E+000	1.25360E-006	0.00000E+000	7.74874E-004	-3.27687E+002	7	...........
	292	293	3.93682E+000	3.18227E-007	0.00000E+000	1.25280E-006	0.00000E+000	7.77857E-004	-3.27687E+002	7	...........
	293	294	3.93682E+000	3.19608E-007	0.00000E+000	1.25824E-006	0.00000E+000	7.75890E-004	-3.27687E+002	7	...........
	294	295	3.93682E+000	3.19159E-007	0.00000E+000	1.25647E-006	0.00000E+000	7.73290E-004	-3.27687E+002	7	...........
	295	296	3.93684E+000	3.18485E-007	0.00000E+000	1.25382E-006	0.00000E+000	7.74974E-004	-3.27687E+002	7	...........
	296	297	3.93684E+000	3.18577E-007	0.00000E+000	1.25418E-006	0.00000E+000	7.76507E-004	-3.27687E+002	7	...........
	297	298	3.93685E+000	3.19310E-007	0.00000E+000	1.25708E-006	0.00000E+000	7.74457E-004	-3.27687E+002	7	...........
	298	299	3.93685E+000	3.18883E-007	0.00000E+000	1.25539E-006	0.00000E+000	7.75340E-004	-3.27687E+002	7	...........
	299	300	3.93685E+000	3.19667E-007	0.00000E+000	1.25848E-006	0.00000E+000	7.77140E-004	-3.27687E+002	7	...........
	300	301	3.93685E+000	3.19232E-007	0.00000E+000	1.25677E-006	0.00000E+000	7.76890E-004	-3.27687E+002	7	...........
	301	302	3.93687E+000	3.20529E-007	0.00000E+000	1.26188E-006	0.00000E+000	7.77174E-004	-3.27687E+002	7	...........
	302	303	3.93687E+000	3.21218E-007	0.00000E+000	1.26459E-006	0.00000E+000	7.78340E-004	-3.27687E+002	7	...........
	303	304	3.93689E+000	3.20347E-007	0.00000E+000	1.26117E-006	0.00000E+000	7.77574E-004	-3.27687E+002	7	...........
	304	305	3.93689E+000	3.20208E-007	0.00000E+000	1.26063E-006	0.00000E+000	7.76640E-004	-3.27687E+002	7	...........
	305	306	3.93690E+000	3.21077E-007	0.00000E+000	1.26404E-006	0.00000E+000	7.75307E-004	-3.27687E+002	7	...........
	306	307	3.93690E+000	3.20480E-007	0.00000E+000	1.26170E-006	0.00000E+000	7.76257E-004	-3.27687E+002	7	...........
	307	308	3.93690E+000	3.21337E-007	0.00000E+000	1.26507E-006	0.00000E+000	7.73857E-004	-3.27687E+002	7	...........
	308	309	3.93691E+000	3.21140E-007	0.00000E+000	1.26430E-006	0.00000E+000	7.73657E-004	-3.27687E+002	7	...........
	309	310	3.93692E+000	3.20551E-007	0.00000E+000	1.26198E-006	0.00000E+000	7.74174E-004	-3.27687E+002	7	...........
	310	311	3.93692E+000	3.20274E-007	0.00000E+000	1.26089E-006	0.00000E+000	7.76340E-004	-3.27687E+002	7	...........
	311	312	3.93693E+000	3.20083E-007	0.00000E+000	1.26014E-006	0.00000E+000	7.76757E-004	-3.27687E+002	7	...........
	312	313	3.93693E+000	3.18870E-007	0.00000E+000	1.25537E-006	0.00000E+000	7.77640E-004	-3.27687E+002	7	...........
	313	314	3.93693E+000	3.19345E-007	0.00000E+000	1.25724E-006	0.00000E+000	7.74690E-004	-3.27687E+002	7	...........
	314	315	3.93694E+000	3.20331E-007	0.00000E+000	1.26113E-006	0.00000E+000	7.77190E-004	-3.27687E+002	7	...........
	315	316	3.93695E+000	3.20442E-007	0.00000E+000	1.26156E-006	0.00000E+000	7.78340E-004	-3.27687E+002	7	...........
	316	317	3.93696E+000	3.20680E-007	0.00000E+000	1.26250E-006	0.00000E+000	7.78290E-004	-3.27687E+002	7	...........
	317	318	3.93696E+000	3.21092E-007	0.00000E+000	1.26413E-006	0.00000E+000	7.75324E-004	-3.27687E+002	7	...........
	318	319	3.93697E+000	3.21114E-007	0.00000E+000	1.26421E-006	0.00000E+000	7.73457E-004	-3.27687E+002	7	...........
	319	320	3.93697E+000	3.21358E-007	0.00000E+000	1.26518E-006	0.00000E+000	7.74574E-004	-3.27687E+002	7	...........
	320	321	3.93698E+000	3.21344E-007	0.00000E+000	1.26512E-006	0.00000E+000	7.77307E-004	-3.27687E+002	7	...........
	321	322	3.93698E+000	3.21313E-007	0.00000E+000	1.26500E-006	0.00000E+000	7.73440E-004	-3.27687E+002	7	...........
	322	323	3.93699E+000	3.20714E-007	0.00000E+000	1.26265E-006	0.00000E+000	7.77040E-004	-3.27687E+002	7	...........
	323	324	3.93699E+000	3.21172E-007	0.00000E+000	1.26445E-006	0.00000E+000	7.76807E-004	-3.27687E+002	7	...........
	324	325	3.93699E+000	3.21694E-007	0.00000E+000	1.26651E-006	0.00000E+000	7.77057E-004	-3.27687E+002	7	...........
	325	326	3.93700E+000	3.21671E-007	0.00000E+000	1.26642E-006	0.00000E+000	7.76174E-004	-3.27687E+002	7	...........
	326	327	3.93700E+000	3.21588E-007	0.00000E+000	1.26609E-006	0.00000E+000	7.76324E-004	-3.27687E+002	7	...........
	327	328	3.93700E+000	3.21854E-007	0.00000E+000	1.26714E-006	0.00000E+000	7.74824E-004	-3.27687E+002	7	...........
	328	329	3.93702E+000	3.21600E-007	0.00000E+000	1.26615E-006	0.00000E+000	7.76090E-004	-3.27687E+002	7	...........
	329	330	3.93703E+000	3.22593E-007	0.00000E+000	1.27006E-006	0.00000E+000	7.75890E-004	-3.27687E+002	7	...........
	330	331	3.93703E+000	3.22580E-007	0.00000E+000	1.27001E-006	0.00000E+000	7.74640E-004	-3.27687E+002	7	...........
	331	332	3.93703E+000	3.22659E-007	0.00000E+000	1.27032E-006	0.00000E+000	7.74374E-004	-3.27687E+002	7	...........
	332	333	3.93704E+000	3.23187E-007	0.00000E+000	1.27240E-006	0.00000E+000	7.73307E-004	-3.27687E+002	7	...........
	333	334	3.93704E+000	3.22820E-007	0.00000E+000	1.27095E-006	0.00000E+000	7.76207E-004	-3.27687E+002	7	...........
	334	335	3.93705E+000	3.22500E-007	0.00000E+000	1.26970E-006	0.00000E+000	7.78490E-004	-3.27687E+002	7	...........
	335	336	3.93706E+000	3.22581E-007	0.00000E+000	1.27002E-006	0.00000E+000	7.75407E-004	-3.27687E+002	7	...........
	336	337	3.93706E+000	3.22972E-007	0.00000E+000	1.27156E-006	0.00000E+000	7.74474E-004	-3.27687E+002	7	...........
	337	338	3.93707E+000	3.22513E-007	0.00000E+000	1.26976E-006	0.00000E+000	7.76940E-004	-3.27687E+002	7	...........
	338	339	3.93706E+000	3.22256E-007	0.00000E+000	1.26874E-006	0.00000E+000	7.76840E-004	-3.27687E+002	7	...........
	339	340	3.93707E+000	3.23828E-007	0.00000E+000	1.27493E-006	0.00000E+000	7.77774E-004	-3.27687E+002	7	...........
	340	341	3.93708E+000	3.23018E-007	0.00000E+000	1.27175E-006	0.00000E+000	7.76374E-004	-3.27687E+002	7	...........
	341	342	3.93708E+000	3.23610E-007	0.00000E+000	1.27408E-006	0.00000E+000	7.75890E-004	-3.27687E+002	7	...........
	342	343	3.93708E+000	3.23263E-007	0.00000E+000	1.27271E-006	0.00000E+000	7.73440E-004	-3.27687E+002	7	...........
	343	344	3.93709E+000	3.23832E-007	0.00000E+000	1.27495E-006	0.00000E+000	7.77090E-004	-3.27687E+002	7	...........
	344	345	3.93709E+000	3.23751E-007	0.00000E+000	1.27464E-006	0.00000E+000	7.76307E-004	-3.27687E+002	7	...........
	345	346	3.93709E+000	3.23508E-007	0.00000E+000	1.27368E-006	0.00000E+000	7.77207E-004	-3.27687E+002	7	...........
	346	347	3.93710E+000	3.24010E-007	0.00000E+000	1.27566E-006	0.00000E+000	7.76307E-004	-3.27687E+002	7	...........
	347	348	3.93710E+000	3.23606E-007	0.00000E+000	1.27407E-006	0.00000E+000	7.77674E-004	-3.27687E+002	7	...........
	348	349	3.93711E+000	3.24200E-007	0.00000E+000	1.27641E-006	0.00000E+000	7.76857E-004	-3.27687E+002	7	...........
	349	350	3.93712E+000	3.24252E-007	0.00000E+000	1.27662E-006	0.00000E+000	7.77407E-004	-3.27687E+002	7	...........
	350	351	3.93712E+000	3.23981E-007	0.00000E+000	1.27555E-006	0.00000E+000	7.80340E-004	-3.27687E+002	7	...........
	351	352	3.93711E+000	3.24599E-007	0.00000E+000	1.27798E-006	0.00000E+000	7.78024E-004	-3.27687E+002	7	...........
	352	353	3.93713E+000	3.24690E-007	0.00000E+000	1.27834E-006	0.00000E+000	7.77440E-004	-3.27687E+002	7	...........
	353	354	3.93713E+000	3.24535E-007	0.00000E+000	1.27773E-006	0.00000E+000	7.77324E-004	-3.27687E+002	7	...........
	354	355	3.93714E+000	3.23776E-007	0.00000E+000	1.27475E-006	0.00000E+000	7.78574E-004	-3.27687E+002	7	...........
	355	356	3.93714E+000	3.23436E-007	0.00000E+000	1.27341E-006	0.00000E+000	7.77057E-004	-3.27687E+002	7	...........
	356	357	3.93715E+000	3.24329E-007	0.00000E+000	1.27693E-006	0.00000E+000	7.80790E-004	-3.27687E+002	7	...........
	357	358	3.93715E+000	3.23839E-007	0.00000E+000	1.27500E-006	0.00000E+000	7.76407E-004	-3.27687E+002	7	...........
	358	359	3.93716E+000	3.23990E-007	0.00000E+000	1.27560E-006	0.00000E+000	7.77424E-004	-3.27687E+002	7	...........
	359	360	3.93716E+000	3.23727E-007	0.00000E+000	1.27456E-006	0.00000E+000	7.76857E-004	-3.27687E+002	7	...........
	360	361	3.93715E+000	3.23419E-007	0.00000E+000	1.27335E-006	0.00000E+000	7.78290E-004	-3.27687E+002	7	...........
	361	362	3.93716E+000	3.23803E-007	0.00000E+000	1.27486E-006	0.00000E+000	7.80924E-004	-3.27687E+002	7	...........
	362	363	3.93717E+000	3.23762E-007	0.00000E+000	1.27471E-006	0.00000E+000	7.78624E-004	-3.27687E+002	7	...........
	363	364	3.93717E+000	3.23533E-007	0.00000E+000	1.27380E-006	0.00000E+000	7.75707E-004	-3.27687E+002	7	...........
	364	365	3.93717E+000	3.24209E-007	0.00000E+000	1.27647E-006	0.00000E+000	7.79890E-004	-3.27687E+002	7	...........
	365	366	3.93717E+000	3.24805E-007	0.00000E+000	1.27881E-006	0.00000E+000	7.78107E-004	-3.27687E+002	7	...........
	366	367	3.93718E+000	3.24055E-007	0.00000E+000	1.27586E-006	0.00000E+000	7.78474E-004	-3.27687E+002	7	...........
	367	368	3.93718E+000	3.23353E-007	0.00000E+000	1.27310E-006	0.00000E+000	7.76607E-004	-3.27687E+002	7	...........
	368	369	3.93719E+000	3.23808E-007	0.00000E+000	1.27489E-006	0.00000E+000	7.77440E-004	-3.27687E+002	7	...........
	369	370	3.93720E+000	3.24504E-007	0.00000E+000	1.27764E-006	0.00000E+000	7.76724E-004	-3.27687E+002	7	...........
	370	371	3.93720E+000	3.23737E-007	0.00000E+000	1.27462E-006	0.00000E+000	7.77840E-004	-3.27687E+002	7	...........
	371	372	3.93720E+000	3.24409E-007	0.00000E+000	1.27726E-006	0.00000E+000	7.79574E-004	-3.27687E+002	7	...........
	372	373	3.93720E+000	3.24168E-007	0.00000E+000	1.27631E-006	0.00000E+000	7.77040E-004	-3.27687E+002	7	...........
	373	374	3.93720E+000	3.23663E-007	0.00000E+000	1.27433E-006	0.00000E+000	7.81674E-004	-3.27687E+002	7	...........
	374	375	3.93721E+000	3.23655E-007	0.00000E+000	1.27430E-006	0.00000E+000	7.79024E-004	-3.27687E+002	7	...........
	375	376	3.93722E+000	3.23767E-007	0.00000E+000	1.27474E-006	0.00000E+000	7.80940E-004	-3.27687E+002	7	...........
	376	377	3.93722E+000	3.25338E-007	0.00000E+000	1.28093E-006	0.00000E+000	7.80574E-004	-3.27687E+002	7	...........
	377	378	3.93722E+000	3.24717E-007	0.00000E+000	1.27848E-006	0.00000E+000	7.78540E-004	-3.27687E+002	7	...........
	378	379	3.93723E+000	3.24789E-007	0.00000E+000	1.27877E-006	0.00000E+000	7.79357E-004	-3.27687E+002	7	...........
	379	380	3.93722E+000	3.24697E-007	0.00000E+000	1.27841E-006	0.00000E+000	7.80607E-004	-3.27687E+002	7	...........
	380	381	3.93723E+000	3.24625E-007	0.00000E+000	1.27812E-006	0.00000E+000	7.79124E-004	-3.27687E+002	7	...........
	381	382	3.93723E+000	3.23873E-007	0.00000E+000	1.27516E-006	0.00000E+000	7.80274E-004	-3.27687E+002	7	...........
	382	383	3.93724E+000	3.23815E-007	0.00000E+000	1.27494E-006	0.00000E+000	7.78374E-004	-3.27687E+002	7	...........
	383	384	3.93725E+000	3.24013E-007	0.00000E+000	1.27572E-006	0.00000E+000	7.80840E-004	-3.27687E+002	7	...........
	384	385	3.93725E+000	3.24045E-007	0.00000E+000	1.27585E-006	0.00000E+000	7.79824E-004	-3.27687E+002	7	...........
	385	386	3.93725E+000	3.23267E-007	0.00000E+000	1.27278E-006	0.00000E+000	7.81024E-004	-3.27687E+002	7	...........
	386	387	3.93726E+000	3.23959E-007	0.00000E+000	1.27551E-006	0.00000E+000	7.77657E-004	-3.27687E+002	7	...........
	387	388	3.93727E+000	3.24054E-007	0.00000E+000	1.27589E-006	0.00000E+000	7.79124E-004	-3.27687E+002	7	...........
	388	389	3.93727E+000	3.25464E-007	0.00000E+000	1.28144E-006	0.00000E+000	7.80490E-004	-3.27687E+002	7	...........
	389	390	3.93727E+000	3.24906E-007	0.00000E+000	1.27924E-006	0.00000E+000	7.80157E-004	-3.27687E+002	7	...........
	390	391	3.93727E+000	3.24781E-007	0.00000E+000	1.27875E-006	0.00000E+000	7.79874E-004	-3.27687E+002	7	...........
	391	392	3.93728E+000	3.24282E-007	0.00000E+000	1.27679E-006	0.00000E+000	7.77707E-004	-3.27687E+002	7	...........
	392	393	3.93729E+000	3.25463E-007	0.00000E+000	1.28144E-006	0.00000E+000	7.79940E-004	-3.27687E+002	7	...........
	393	394	3.93729E+000	3.25292E-007	0.00000E+000	1.28077E-006	0.00000E+000	7.79907E-004	-3.27687E+002	7	...........
	394	395	3.93728E+000	3.24697E-007	0.00000E+000	1.27842E-006	0.00000E+000	7.79890E-004	-3.27687E+002	7	...........
	395	396	3.93729E+000	3.23903E-007	0.00000E+000	1.27530E-006	0.00000E+000	7.78590E-004	-3.27687E+002	7	...........
	396	397	3.93729E+000	3.24373E-007	0.00000E+000	1.27715E-006	0.00000E+000	7.77974E-004	-3.27687E+002	7	...........
	397	398	3.93729E+000	3.24451E-007	0.00000E+000	1.27746E-006	0.00000E+000	7.80190E-004	-3.27687E+002	7	...........
	398	399	3.93730E+000	3.24402E-007	0.00000E+000	1.27727E-006	0.00000E+000	7.80674E-004	-3.27687E+002	7	...........
	399	400	3.93730E+000	3.24679E-007	0.00000E+000	1.27836E-006	0.00000E+000	7.79657E-004	-3.27687E+002	7	...........
	400	401	3.93731E+000	3.24773E-007	0.00000E+000	1.27873E-006	0.00000E+000	7.80290E-004	-3.27687E+002	7	...........
	401	402	3.93730E+000	3.24769E-007	0.00000E+000	1.27871E-006	0.00000E+000	7.79690E-004	-3.27687E+002	7	...........
	402	403	3.93731E+000	3.23731E-007	0.00000E+000	1.27463E-006	0.00000E+000	7.79724E-004	-3.27687E+002	7	...........
	403	404	3.93731E+000	3.25022E-007	0.00000E+000	1.27971E-006	0.00000E+000	7.78224E-004	-3.27687E+002	7	...........
	404	405	3.93731E+000	3.24617E-007	0.00000E+000	1.27812E-006	0.00000E+000	7.77940E-004	-3.27687E+002	7	...........
	405	406	3.93732E+000	3.24792E-007	0.00000E+000	1.27881E-006	0.00000E+000	7.76140E-004	-3.27687E+002	7	...........
	406	407	3.93732E+000	3.24824E-007	0.00000E+000	1.27894E-006	0.00000E+000	7.79907E-004	-3.27687E+002	7	...........
	407	408	3.93733E+000	3.24523E-007	0.00000E+000	1.27775E-006	0.00000E+000	7.77990E-004	-3.27687E+002	7	...........
	408	409	3.93734E+000	3.24944E-007	0.00000E+000	1.27941E-006	0.00000E+000	7.79307E-004	-3.27687E+002	7	...........
	409	410	3.93734E+000	3.24133E-007	0.00000E+000	1.27622E-006	0.00000E+000	7.79957E-004	-3.27687E+002	7	...........
	410	411	3.93734E+000	3.23848E-007	0.00000E+000	1.27510E-006	0.00000E+000	7.80090E-004	-3.27687E+002	7	...........
	411	412	3.93734E+000	3.24803E-007	0.00000E+000	1.27886E-006	0.00000E+000	7.80157E-004	-3.27687E+002	7	...........
	412	413	3.93734E+000	3.25533E-007	0.00000E+000	1.28174E-006	0.00000E+000	7.81557E-004	-3.27687E+002	7	...........
	413	414	3.93734E+000	3.26485E-007	0.00000E+000	1.28548E-006	0.00000E+000	7.81974E-004	-3.27687E+002	7	...........
	414	415	3.93735E+000	3.25904E-007	0.00000E+000	1.28320E-006	0.00000E+000	7.78940E-004	-3.27687E+002	7	...........
	415	416	3.93734E+000	3.25415E-007	0.00000E+000	1.28127E-006	0.00000E+000	7.82774E-004	-3.27687E+002	7	...........
	416	417	3.93735E+000	3.25740E-007	0.00000E+000	1.28255E-006	0.00000E+000	7.79990E-004	-3.27687E+002	7	...........
	417	418	3.93735E+000	3.25712E-007	0.00000E+000	1.28244E-006	0.00000E+000	7.79424E-004	-3.27687E+002	7	...........
	418	419	3.93736E+000	3.24952E-007	0.00000E+000	1.27945E-006	0.00000E+000	7.81157E-004	-3.27687E+002	7	...........
	419	420	3.93736E+000	3.24122E-007	0.00000E+000	1.27619E-006	0.00000E+000	7.81257E-004	-3.27687E+002	7	...........
	420	421	3.93736E+000	3.24044E-007	0.00000E+000	1.27588E-006	0.00000E+000	7.81140E-004	-3.27687E+002	7	...........
	421	422	3.93736E+000	3.24476E-007	0.00000E+000	1.27758E-006	0.00000E+000	7.79740E-004	-3.27687E+002	7	...........
	422	423	3.93737E+000	3.25017E-007	0.00000E+000	1.27971E-006	0.00000E+000	7.80990E-004	-3.27687E+002	7	...........
	423	424	3.93737E+000	3.25197E-007	0.00000E+000	1.28042E-006	0.00000E+000	7.82707E-004	-3.27687E+002	7	...........
	424	425	3.93737E+000	3.25793E-007	0.00000E+000	1.28277E-006	0.00000E+000	7.82090E-004	-3.27687E+002	7	...........
	425	426	3.93738E+000	3.26136E-007	0.00000E+000	1.28412E-006	0.00000E+000	7.81957E-004	-3.27687E+002	7	...........
	426	427	3.93738E+000	3.24749E-007	0.00000E+000	1.27866E-006	0.00000E+000	7.80457E-004	-3.27687E+002	7	...........
	427	428	3.93739E+000	3.25569E-007	0.00000E+000	1.28189E-006	0.00000E+000	7.78707E-004	-3.27687E+002	7	...........
	428	429	3.93739E+000	3.25310E-007	0.00000E+000	1.28087E-006	0.00000E+000	7.78357E-004	-3.27687E+002	7	...........
	429	430	3.93739E+000	3.24860E-007	0.00000E+000	1.27910E-006	0.00000E+000	7.78940E-004	-3.27687E+002	7	...........
	430	431	3.93739E+000	3.25919E-007	0.00000E+000	1.28327E-006	0.00000E+000	7.79124E-004	-3.27687E+002	7	...........
	431	432	3.93740E+000	3.26014E-007	0.00000E+000	1.28365E-006	0.00000E+000	7.77624E-004	-3.27687E+002	7	...........
	432	433	3.93741E+000	3.26715E-007	0.00000E+000	1.28641E-006	0.00000E+000	7.78890E-004	-3.27687E+002	7	...........
	433	434	3.93740E+000	3.25679E-007	0.00000E+000	1.28233E-006	0.00000E+000	7.81924E-004	-3.27687E+002	7	...........
	434	435	3.93740E+000	3.25727E-007	0.00000E+000	1.28252E-006	0.00000E+000	7.80940E-004	-3.27687E+002	7	...........
	435	436	3.93741E+000	3.25847E-007	0.00000E+000	1.28299E-006	0.00000E+000	7.80040E-004	-3.27687E+002	7	...........
	436	437	3.93741E+000	3.26275E-007	0.00000E+000	1.28468E-006	0.00000E+000	7.79624E-004	-3.27687E+002	7	...........
	437	438	3.93741E+000	3.27241E-007	0.00000E+000	1.28848E-006	0.00000E+000	7.80774E-004	-3.27687E+002	7	...........
	438	439	3.93742E+000	3.26435E-007	0.00000E+000	1.28531E-006	0.00000E+000	7.78657E-004	-3.27687E+002	7	...........
	439	440	3.93742E+000	3.26097E-007	0.00000E+000	1.28398E-006	0.00000E+000	7.79607E-004	-3.27687E+002	7	...........
	440	441	3.93742E+000	3.26167E-007	0.00000E+000	1.28426E-006	0.00000E+000	7.79907E-004	-3.27687E+002	7	...........
	441	442	3.93743E+000	3.26406E-007	0.00000E+000	1.28520E-006	0.00000E+000	7.80324E-004	-3.27687E+002	7	...........
	442	443	3.93742E+000	3.26937E-007	0.00000E+000	1.28729E-006	0.00000E+000	7.80524E-004	-3.27687E+002	7	...........
	443	444	3.93742E+000	3.27232E-007	0.00000E+000	1.28845E-006	0.00000E+000	7.79840E-004	-3.27687E+002	7	...........
	444	445	3.93743E+000	3.27487E-007	0.00000E+000	1.28946E-006	0.00000E+000	7.79440E-004	-3.27687E+002	7	...........
	445	446	3.93744E+000	3.27318E-007	0.00000E+000	1.28879E-006	0.00000E+000	7.80807E-004	-3.27687E+002	7	...........
	446	447	3.93744E+000	3.27674E-007	0.00000E+000	1.29019E-006	0.00000E+000	7.79090E-004	-3.27687E+002	7	...........
	447	448	3.93744E+000	3.27232E-007	0.00000E+000	1.28845E-006	0.00000E+000	7.80074E-004	-3.27687E+002	7	...........
	448	449	3.93745E+000	3.27742E-007	0.00000E+000	1.29047E-006	0.00000E+000	7.80690E-004	-3.27687E+002	7	...........
	449	450	3.93745E+000	3.27880E-007	0.00000E+000	1.29101E-006	0.00000E+000	7.79324E-004	-3.27687E+002	7	...........
	450	451	3.93745E+000	3.28305E-007	0.00000E+000	1.29269E-006	0.00000E+000	7.80857E-004	-3.27687E+002	7	...........
	451	452	3.93746E+000	3.27606E-007	0.00000E+000	1.28993E-006	0.00000E+000	7.79524E-004	-3.27687E+002	7	...........
	452	453	3.93747E+000	3.27298E-007	0.00000E+000	1.28873E-006	0.00000E+000	7.78074E-004	-3.27687E+002	7	...........
	453	454	3.93746E+000	3.27679E-007	0.00000E+000	1.29023E-006	0.00000E+000	7.77124E-004	-3.27687E+002	7	...........
	454	455	3.93747E+000	3.26803E-007	0.00000E+000	1.28678E-006	0.00000E+000	7.78857E-004	-3.27687E+002	7	...........
	455	456	3.93748E+000	3.27819E-007	0.00000E+000	1.29078E-006	0.00000E+000	7.78990E-004	-3.27687E+002	7	...........
	456	457	3.93747E+000	3.27633E-007	0.00000E+000	1.29005E-006	0.00000E+000	7.77240E-004	-3.27687E+002	7	...........
	457	458	3.93747E+000	3.28076E-007	0.00000E+000	1.29179E-006	0.00000E+000	7.78924E-004	-3.27687E+002	7	...........
	458	459	3.93748E+000	3.27378E-007	0.00000E+000	1.28904E-006	0.00000E+000	7.78124E-004	-3.27687E+002	7	...........
	459	460	3.93749E+000	3.27433E-007	0.00000E+000	1.28926E-006	0.00000E+000	7.78607E-004	-3.27687E+002	7	...........
	460	461	3.93749E+000	3.27451E-007	0.00000E+000	1.28934E-006	0.00000E+000	7.79140E-004	-3.27687E+002	7	...........
	461	462	3.93749E+000	3.27343E-007	0.00000E+000	1.28891E-006	0.00000E+000	7.80274E-004	-3.27687E+002	7	...........
	462	463	3.93748E+000	3.27097E-007	0.00000E+000	1.28794E-006	0.00000E+000	7.78890E-004	-3.27687E+002	7	...........
	463	464	3.93749E+000	3.26907E-007	0.00000E+000	1.28720E-006	0.00000E+000	7.79490E-004	-3.27687E+002	7	...........
	464	465	3.93750E+000	3.27373E-007	0.00000E+000	1.28903E-006	0.00000E+000	7.79090E-004	-3.27687E+002	7	...........
	465	466	3.93750E+000	3.27028E-007	0.00000E+000	1.28767E-006	0.00000E+000	7.78774E-004	-3.27687E+002	7	...........
	466	467	3.93750E+000	3.28250E-007	0.00000E+000	1.29249E-006	0.00000E+000	7.79174E-004	-3.27687E+002	7	...........
	467	468	3.93751E+000	3.27393E-007	0.00000E+000	1.28911E-006	0.00000E+000	7.75724E-004	-3.27687E+002	7	...........
	468	469	3.93750E+000	3.27827E-007	0.00000E+000	1.29082E-006	0.00000E+000	7.80174E-004	-3.27687E+002	7	...........
	469	470	3.93752E+000	3.26600E-007	0.00000E+000	1.28599E-006	0.00000E+000	7.79457E-004	-3.27687E+002	7	...........
	470	471	3.93752E+000	3.27043E-007	0.00000E+000	1.28774E-006	0.00000E+000	7.79424E-004	-3.27687E+002	7	...........
	471	472	3.93753E+000	3.26963E-007	0.00000E+000	1.28742E-006	0.00000E+000	7.78857E-004	-3.27687E+002	7	...........
	472	473	3.93752E+000	3.27134E-007	0.00000E+000	1.28810E-006	0.00000E+000	7.80207E-004	-3.27687E+002	7	...........
	473	474	3.93752E+000	3.27250E-007	0.00000E+000	1.28855E-006	0.00000E+000	7.80090E-004	-3.27687E+002	7	...........
	474	475	3.93753E+000	3.28424E-007	0.00000E+000	1.29318E-006	0.00000E+000	7.79157E-004	-3.27687E+002	7	...........
	475	476	3.93753E+000	3.28718E-007	0.00000E+000	1.29434E-006	0.00000E+000	7.78524E-004	-3.27687E+002	7	...........
	476	477	3.93754E+000	3.27457E-007	0.00000E+000	1.28938E-006	0.00000E+000	7.77907E-004	-3.27687E+002	7	...........
	477	478	3.93753E+000	3.28000E-007	0.00000E+000	1.29151E-006	0.00000E+000	7.77440E-004	-3.27687E+002	7	...........
	478	479	3.93754E+000	3.28180E-007	0.00000E+000	1.29222E-006	0.00000E+000	7.80490E-004	-3.27687E+002	7	...........
	479	480	3.93754E+000	3.28224E-007	0.00000E+000	1.29240E-006	0.00000E+000	7.80040E-004	-3.27687E+002	7	...........
	480	481	3.93755E+000	3.28174E-007	0.00000E+000	1.29220E-006	0.00000E+000	7.78474E-004	-3.27687E+002	7	...........
	481	482	3.93755E+000	3.27815E-007	0.00000E+000	1.29079E-006	0.00000E+000	7.78457E-004	-3.27687E+002	7	...........
	482	483	3.93755E+000	3.27818E-007	0.00000E+000	1.29080E-006	0.00000E+000	7.78757E-004	-3.27687E+002	7	...........
	483	484	3.93755E+000	3.27340E-007	0.00000E+000	1.28892E-006	0.00000E+000	7.78974E-004	-3.27687E+002	7	...........
	484	485	3.93755E+000	3.27320E-007	0.00000E+000	1.28884E-006	0.00000E+000	7.75574E-004	-3.27687E+002	7	...........
	485	486	3.93756E+000	3.27172E-007	0.00000E+000	1.28826E-006	0.00000E+000	7.77724E-004	-3.27687E+002	7	...........
	486	487	3.93756E+000	3.28027E-007	0.00000E+000	1.29162E-006	0.00000E+000	7.78574E-004	-3.27687E+002	7	...........
	487	488	3.93757E+000	3.28027E-007	0.00000E+000	1.29163E-006	0.00000E+000	7.75424E-004	-3.27687E+002	7	...........
	488	489	3.93757E+000	3.27974E-007	0.00000E+000	1.29142E-006	0.00000E+000	7.78290E-004	-3.27687E+002	7	...........
	489	490	3.93756E+000	3.27796E-007	0.00000E+000	1.29072E-006	0.00000E+000	7.79374E-004	-3.27687E+002	7	...........
	490	491	3.93758E+000	3.27761E-007	0.00000E+000	1.29058E-006	0.00000E+000	7.79490E-004	-3.27687E+002	7	...........
	491	492	3.93758E+000	3.27387E-007	0.00000E+000	1.28911E-006	0.00000E+000	7.80174E-004	-3.27687E+002	7	...........
	492	493	3.93759E+000	3.28553E-007	0.00000E+000	1.29370E-006	0.00000E+000	7.76757E-004	-3.27687E+002	7	...........
	493	494	3.93758E+000	3.27995E-007	0.00000E+000	1.29150E-006	0.00000E+000	7.77574E-004	-3.27687E+002	7	...........
	494	495	3.93758E+000	3.28131E-007	0.00000E+000	1.29204E-006	0.00000E+000	7.77824E-004	-3.27687E+002	7	...........
	495	496	3.93759E+000	3.27948E-007	0.00000E+000	1.29132E-006	0.00000E+000	7.79890E-004	-3.27687E+002	7	...........
	496	497	3.93759E+000	3.27170E-007	0.00000E+000	1.28826E-006	0.00000E+000	7.77507E-004	-3.27687E+002	7	...........
	497	498	3.93759E+000	3.27233E-007	0.00000E+000	1.28851E-006	0.00000E+000	7.78757E-004	-3.27687E+002	7	...........
	498	499	3.93760E+000	3.27629E-007	0.00000E+000	1.29007E-006	0.00000E+000	7.80840E-004	-3.27687E+002	7	...........
	499	500	3.93759E+000	3.28006E-007	0.00000E+000	1.29155E-006	0.00000E+000	7.77274E-004	-3.27687E+002	7	...........
	500	501	3.93760E+000	3.27073E-007	0.00000E+000	1.28788E-006	0.00000E+000	7.78440E-004	-3.27687E+002	7	...........
	501	502	3.93760E+000	3.26801E-007	0.00000E+000	1.28681E-006	0.00000E+000	7.76607E-004	-3.27687E+002	7	...........
	502	503	3.93761E+000	3.27175E-007	0.00000E+000	1.28829E-006	0.00000E+000	7.78990E-004	-3.27687E+002	7	...........
	503	504	3.93761E+000	3.27166E-007	0.00000E+000	1.28825E-006	0.00000E+000	7.78657E-004	-3.27687E+002	7	...........
	504	505	3.93761E+000	3.28312E-007	0.00000E+000	1.29277E-006	0.00000E+000	7.77274E-004	-3.27687E+002	7	...........
	505	506	3.93760E+000	3.28570E-007	0.00000E+000	1.29378E-006	0.00000E+000	7.77274E-004	-3.27687E+002	7	...........
	506	507	3.93762E+000	3.28391E-007	0.00000E+000	1.29308E-006	0.00000E+000	7.76624E-004	-3.27687E+002	7	...........
	507	508	3.93762E+000	3.28588E-007	0.00000E+000	1.29385E-006	0.00000E+000	7.78707E-004	-3.27687E+002	7	...........
	508	509	3.93762E+000	3.28324E-007	0.00000E+000	1.29281E-006	0.00000E+000	7.77824E-004	-3.27687E+002	7	...........
	509	510	3.93762E+000	3.28394E-007	0.00000E+000	1.29309E-006	0.00000E+000	7.77640E-004	-3.27687E+002	7	...........
	510	511	3.93762E+000	3.28999E-007	0.00000E+000	1.29548E-006	0.00000E+000	7.77040E-004	-3.27687E+002	7	...........
	511	512	3.93762E+000	3.29058E-007	0.00000E+000	1.29571E-006	0.00000E+000	7.77324E-004	-3.27687E+002	7	...........
	512	513	3.93762E+000	3.28426E-007	0.00000E+000	1.29322E-006	0.00000E+000	7.75374E-004	-3.27687E+002	7	...........
	513	514	3.93763E+000	3.29275E-007	0.00000E+000	1.29656E-006	0.00000E+000	7.76207E-004	-3.27687E+002	7	...........
	514	515	3.93763E+000	3.28461E-007	0.00000E+000	1.29336E-006	0.00000E+000	7.77207E-004	-3.27687E+002	7	...........
	515	516	3.93764E+000	3.28242E-007	0.00000E+000	1.29250E-006	0.00000E+000	7.76024E-004	-3.27687E+002	7	...........
	516	517	3.93764E+000	3.29135E-007	0.00000E+000	1.29601E-006	0.00000E+000	7.77424E-004	-3.27687E+002	7	...........
	517	518	3.93765E+000	3.29148E-007	0.00000E+000	1.29607E-006	0.00000E+000	7.77490E-004	-3.27687E+002	7	...........
	518	519	3.93765E+000	3.29962E-007	0.00000E+000	1.29928E-006	0.00000E+000	7.75940E-004	-3.27687E+002	7	...........
	519	520	3.93765E+000	3.28878E-007	0.00000E+000	1.29500E-006	0.00000E+000	7.76874E-004	-3.27687E+002	7	...........
	520	521	3.93766E+000	3.29074E-007	0.00000E+000	1.29578E-006	0.00000E+000	7.76107E-004	-3.27687E+002	7	...........
	521	522	3.93766E+000	3.28991E-007	0.00000E+000	1.29545E-006	0.00000E+000	7.77107E-004	-3.27687E+002	7	...........
	522	523	3.93765E+000	3.29427E-007	0.00000E+000	1.29717E-006	0.00000E+000	7.75407E-004	-3.27687E+002	7	...........
	523	524	3.93765E+000	3.30736E-007	0.00000E+000	1.30232E-006	0.00000E+000	7.75524E-004	-3.27687E+002	7	...........
	524	525	3.93766E+000	3.29785E-007	0.00000E+000	1.29858E-006	0.00000E+000	7.74940E-004	-3.27687E+002	7	...........
	525	526	3.93766E+000	3.30131E-007	0.00000E+000	1.29994E-006	0.00000E+000	7.74790E-004	-3.27687E+002	7	...........
	526	527	3.93766E+000	3.29341E-007	0.00000E+000	1.29683E-006	0.00000E+000	7.76757E-004	-3.27687E+002	7	...........
	527	528	3.93766E+000	3.29010E-007	0.00000E+000	1.29553E-006	0.00000E+000	7.77574E-004	-3.27687E+002	7	...........
	528	529	3.93767E+000	3.29079E-007	0.00000E+000	1.29581E-006	0.00000E+000	7.76857E-004	-3.27687E+002	7	...........
	529	530	3.93767E+000	3.28719E-007	0.00000E+000	1.29439E-006	0.00000E+000	7.75840E-004	-3.27687E+002	7	...........
	530	531	3.93768E+000	3.29330E-007	0.00000E+000	1.29679E-006	0.00000E+000	7.76707E-004	-3.27687E+002	7	...........
	531	532	3.93768E+000	3.28650E-007	0.00000E+000	1.29412E-006	0.00000E+000	7.75490E-004	-3.27687E+002	7	...........
	532	533	3.93769E+000	3.28210E-007	0.00000E+000	1.29239E-006	0.00000E+000	7.78190E-004	-3.27687E+002	7	...........
	533	534	3.93769E+000	3.28671E-007	0.00000E+000	1.29420E-006	0.00000E+000	7.74824E-004	-3.27687E+002	7	...........
	534	535	3.93769E+000	3.28854E-007	0.00000E+000	1.29493E-006	0.00000E+000	7.77007E-004	-3.27687E+002	7	...........
	535	536	3.93769E+000	3.29458E-007	0.00000E+000	1.29731E-006	0.00000E+000	7.76857E-004	-3.27687E+002	7	...........
	536	537	3.93770E+000	3.30492E-007	0.00000E+000	1.30138E-006	0.00000E+000	7.75207E-004	-3.27687E+002	7	...........
	537	538	3.93770E+000	3.29008E-007	0.00000E+000	1.29554E-006	0.00000E+000	7.75624E-004	-3.27687E+002	7	...........
	538	539	3.93771E+000	3.29404E-007	0.00000E+000	1.29710E-006	0.00000E+000	7.77890E-004	-3.27687E+002	7	...........
	539	540	3.93771E+000	3.29645E-007	0.00000E+000	1.29805E-006	0.00000E+000	7.77140E-004	-3.27687E+002	7	...........
	540	541	3.93771E+000	3.29232E-007	0.00000E+000	1.29642E-006	0.00000E+000	7.76407E-004	-3.27687E+002	7	...........
	541	542	3.93771E+000	3.29356E-007	0.00000E+000	1.29691E-006	0.00000E+000	7.76274E-004	-3.27687E+002	7	...........
	542	543	3.93771E+000	3.29719E-007	0.00000E+000	1.29834E-006	0.00000E+000	7.75624E-004	-3.27687E+002	7	...........
	543	544	3.93772E+000	3.29881E-007	0.00000E+000	1.29898E-006	0.00000E+000	7.76674E-004	-3.27687E+002	7	...........
	544	545	3.93772E+000	3.28612E-007	0.00000E+000	1.29398E-006	0.00000E+000	7.79157E-004	-3.27687E+002	7	...........
	545	546	3.93772E+000	3.28612E-007	0.00000E+000	1.29398E-006	0.00000E+000	7.76424E-004	-3.27687E+002	7	...........
	546	547	3.93773E+000	3.29479E-007	0.00000E+000	1.29740E-006	0.00000E+000	7.74140E-004	-3.27687E+002	7	...........
	547	548	3.93773E+000	3.29850E-007	0.00000E+000	1.29886E-006	0.00000E+000	7.75774E-004	-3.27687E+002	7	...........
	548	549	3.93773E+000	3.30722E-007	0.00000E+000	1.30229E-006	0.00000E+000	7.77307E-004	-3.27687E+002	7	...........
	549	550	3.93774E+000	3.30529E-007	0.00000E+000	1.30154E-006	0.00000E+000	7.75874E-004	-3.27687E+002	7	...........
	550	551	3.93774E+000	3.30248E-007	0.00000E+000	1.30043E-006	0.00000E+000	7.73574E-004	-3.27687E+002	7	...........
	551	552	3.93774E+000	3.29945E-007	0.00000E+000	1.29924E-006	0.00000E+000	7.76124E-004	-3.27687E+002	7	...........
	552	553	3.93775E+000	3.30843E-007	0.00000E+000	1.30277E-006	0.00000E+000	7.73724E-004	-3.27687E+002	7	...........
	553	554	3.93775E+000	3.30791E-007	0.00000E+000	1.30257E-006	0.00000E+000	7.76807E-004	-3.27687E+002	7	...........
	554	555	3.93774E+000	3.30370E-007	0.00000E+000	1.30091E-006	0.00000E+000	7.76640E-004	-3.27687E+002	7	...........
	555	556	3.93774E+000	3.30493E-007	0.00000E+000	1.30140E-006	0.00000E+000	7.74407E-004	-3.27687E+002	7	...........
	556	557	3.93775E+000	3.30062E-007	0.00000E+000	1.29970E-006	0.00000E+000	7.76207E-004	-3.27687E+002	7	...........
	557	558	3.93775E+000	3.30500E-007	0.00000E+000	1.30142E-006	0.00000E+000	7.74590E-004	-3.27687E+002	7	...........
	558	559	3.93774E+000	3.30784E-007	0.00000E+000	1.30254E-006	0.00000E+000	7.74707E-004	-3.27687E+002	7	...........
	559	560	3.93774E+000	3.30710E-007	0.00000E+000	1.30225E-006	0.00000E+000	7.75424E-004	-3.27687E+002	7	...........
	560	561	3.93775E+000	3.30618E-007	0.00000E+000	1.30189E-006	0.00000E+000	7.73207E-004	-3.27687E+002	7	...........
	561	562	3.93776E+000	3.31068E-007	0.00000E+000	1.30366E-006	0.00000E+000	7.72507E-004	-3.27687E+002	7	...........
	562	563	3.93776E+000	3.29888E-007	0.00000E+000	1.29902E-006	0.00000E+000	7.74440E-004	-3.27687E+002	7	...........
	563	564	3.93776E+000	3.30355E-007	0.00000E+000	1.30086E-006	0.00000E+000	7.74807E-004	-3.27687E+002	7	...........
	564	565	3.93777E+000	3.31542E-007	0.00000E+000	1.30554E-006	0.00000E+000	7.74607E-004	-3.27687E+002	7	...........
	565	566	3.93777E+000	3.30179E-007	0.00000E+000	1.30017E-006	0.00000E+000	7.74190E-004	-3.27687E+002	7	...........
	566	567	3.93776E+000	3.29286E-007	0.00000E+000	1.29665E-006	0.00000E+000	7.73874E-004	-3.27687E+002	7	...........
	567	568	3.93777E+000	3.29716E-007	0.00000E+000	1.29834E-006	0.00000E+000	7.74040E-004	-3.27687E+002	7	...........
	568	569	3.93777E+000	3.30045E-007	0.00000E+000	1.29964E-006	0.00000E+000	7.76057E-004	-3.27687E+002	7	...........
	569	570	3.93777E+000	3.29502E-007	0.00000E+000	1.29750E-006	0.00000E+000	7.73657E-004	-3.27687E+002	7	...........
	570	571	3.93777E+000	3.29035E-007	0.00000E+000	1.29566E-006	0.00000E+000	7.75874E-004	-3.27687E+002	7	...........
	571	572	3.93778E+000	3.29399E-007	0.00000E+000	1.29710E-006	0.00000E+000	7.74074E-004	-3.27687E+002	7	...........
	572	573	3.93778E+000	3.29932E-007	0.00000E+000	1.29920E-006	0.00000E+000	7.75907E-004	-3.27687E+002	7	...........
	573	574	3.93779E+000	3.30597E-007	0.00000E+000	1.30182E-006	0.00000E+000	7.72424E-004	-3.27687E+002	7	...........
	574	575	3.93779E+000	3.30151E-007	0.00000E+000	1.30007E-006	0.00000E+000	7.72774E-004	-3.27687E+002	7	...........
	575	576	3.93779E+000	3.30306E-007	0.00000E+000	1.30068E-006	0.00000E+000	7.74940E-004	-3.27687E+002	7	...........
	576	577	3.93779E+000	3.30371E-007	0.00000E+000	1.30093E-006	0.00000E+000	7.76207E-004	-3.27687E+002	7	...........
	577	578	3.93780E+000	3.30125E-007	0.00000E+000	1.29996E-006	0.00000E+000	7.72340E-004	-3.27687E+002	7	...........
	578	579	3.93779E+000	3.30256E-007	0.00000E+000	1.30048E-006	0.00000E+000	7.74874E-004	-3.27687E+002	7	...........
	579	580	3.93780E+000	3.31039E-007	0.00000E+000	1.30356E-006	0.00000E+000	7.74607E-004	-3.27687E+002	7	...........
	580	581	3.93780E+000	3.30092E-007	0.00000E+000	1.29983E-006	0.00000E+000	7.73624E-004	-3.27687E+002	7	...........
	581	582	3.93779E+000	3.29620E-007	0.00000E+000	1.29797E-006	0.00000E+000	7.73240E-004	-3.27687E+002	7	...........
	582	583	3.93780E+000	3.29835E-007	0.00000E+000	1.29883E-006	0.00000E+000	7.73640E-004	-3.27687E+002	7	...........
	583	584	3.93781E+000	3.29627E-007	0.00000E+000	1.29801E-006	0.00000E+000	7.76474E-004	-3.27687E+002	7	...........
	584	585	3.93781E+000	3.29958E-007	0.00000E+000	1.29931E-006	0.00000E+000	7.74657E-004	-3.27687E+002	7	...........
	585	586	3.93781E+000	3.30785E-007	0.00000E+000	1.30257E-006	0.00000E+000	7.73374E-004	-3.27687E+002	7	...........
	586	587	3.93781E+000	3.30244E-007	0.00000E+000	1.30044E-006	0.00000E+000	7.74890E-004	-3.27687E+002	7	...........
	587	588	3.93782E+000	3.30422E-007	0.00000E+000	1.30114E-006	0.00000E+000	7.73940E-004	-3.27687E+002	7	...........
	588	589	3.93782E+000	3.29833E-007	0.00000E+000	1.29882E-006	0.00000E+000	7.75257E-004	-3.27687E+002	7	...........
	589	590	3.93782E+000	3.29403E-007	0.00000E+000	1.29713E-006	0.00000E+000	7.73407E-004	-3.27687E+002	7	...........
	590	591	3.93782E+000	3.30054E-007	0.00000E+000	1.29969E-006	0.00000E+000	7.74840E-004	-3.27687E+002	7	...........
	591	592	3.93781E+000	3.30014E-007	0.00000E+000	1.29953E-006	0.00000E+000	7.75924E-004	-3.27687E+002	7	...........
	592	593	3.93782E+000	3.29141E-007	0.00000E+000	1.29610E-006	0.00000E+000	7.75774E-004	-3.27687E+002	7	...........
	593	594	3.93783E+000	3.29278E-007	0.00000E+000	1.29664E-006	0.00000E+000	7.75607E-004	-3.27687E+002	7	...........
	594	595	3.93783E+000	3.28278E-007	0.00000E+000	1.29270E-006	0.00000E+000	7.75024E-004	-3.27687E+002	7	...........
	595	596	3.93782E+000	3.28821E-007	0.00000E+000	1.29484E-006	0.00000E+000	7.75040E-004	-3.27687E+002	7	...........
	596	597	3.93783E+000	3.29710E-007	0.00000E+000	1.29834E-006	0.00000E+000	7.75240E-004	-3.27687E+002	7	...........
	597	598	3.93783E+000	3.30489E-007	0.00000E+000	1.30141E-006	0.00000E+000	7.75374E-004	-3.27687E+002	7	...........
	598	599	3.93784E+000	3.29441E-007	0.00000E+000	1.29729E-006	0.00000E+000	7.73424E-004	-3.27687E+002	7	...........
	599	600	3.93783E+000	3.29652E-007	0.00000E+000	1.29812E-006	0.00000E+000	7.73174E-004	-3.27687E+002	7	...........
