EXPLAIN
TAG	PWR800_READVOLTAGE
TITLE	LABEL	PWR Read Voltage	Test Identifier
DATE	LABEL	22.6.2024	Date
TIME	LABEL	9:36:35	Time
NOTES	NOTES	1	Notes...
	
PSTAT	PSTAT	REF600-12055	Potentiostat
CAPACITY	QUANT	1.00000E+000	Capacity (A-hr)
CELLTYPE	SELECTOR	1	Cell Type
WORKINGCONNECTION	SELECTOR	0	Working Connection
MAXTIME	VARIABLEANDUNITS	6.00000E+002	s	6.00000E+002	second(s)	Max Time
SAMPLETIME	QUANT	1.00000E+000	Sample Period (s)
STOPAT1	MULTIPARAM	0	0.00000E+000	Stop At 1	None	N/A
STOPAT2	MULTIPARAM	0	0.00000E+000	Stop At 2	None	N/A
AESBHCSELECTOR	TOGGLE	F	Save Both Half Cells
EOC	QUANT	3.605266	Open Circuit (V)
SEQUENCER	TOGGLE	TRUE	Run as Sequence
PSTATMODEL	IQUANT	4	Pstat Model
PSTATSECTION	LABEL	REF600-12055	Pstat Section
PSTATSERIALNO	LABEL	12055	Pstat Serial Number
CTRLMODE	IQUANT	0	Control Mode
ELECTROMETER	IQUANT	0	RE=0 or CS=1
IESTAB	IQUANT	0	I/E Stability
CASPEED	IQUANT	4	Control Amp Speed
CONVENTION	IQUANT	1	Current Convention
ICHRANGE	IQUANT	2	Ich Range
ICHRANGEMODE	TOGGLE	T	Ich Auto Range
ICHOFFSETENABLE	TOGGLE	F	Ich Offset Enable
ICHOFFSET	QUANT	0	Ich Offset (V)
ICHFILTER	IQUANT	1	Ich Filter
VCHRANGE	IQUANT	3	Vch Range
VCHRANGEMODE	TOGGLE	T	Vch Auto Range
VCHOFFSETENABLE	TOGGLE	F	Vch Offset Enable
VCHOFFSET	QUANT	0	Vch Offset (V)
VCHFILTER	IQUANT	1	Vch Filter
ACHRANGE	IQUANT	2	Ach Range
ACHOFFSETENABLE	TOGGLE	F	Ach Offset Enable
ACHOFFSET	QUANT	0	Ach Offset (V)
ACHFILTER	IQUANT	1	Ach Filter
IERANGELOWERLIMIT	IQUANT	7	I/E Range Lower Limit
IERANGEMODE	TOGGLE	F	I/E AutoRange
IERANGE	IQUANT	11	I/E Range
POSFEEDENABLE	TOGGLE	F	Positive Feedback IR Comp
POSFEEDRESISTANCE	QUANT	0	Positive Feedback Resistance (ohm)
ACHSELECT	IQUANT	4	Ach Select
SENSECABLEID	IQUANT	14	Sense Cable ID
PWRCABLEID	IQUANT	14	Power Cable ID
DCCALDATE	LABEL	2/12/2024	DC Calibration Date
ACCALDATE	LABEL	2/12/2024	AC Calibration Date
THERMOSELECT	IQUANT	1	Thermo Select
FRAMEWORKVERSION	LABEL	7.10.3	Framework Version
INSTRUMENTVERSION	LABEL	4.91	Instrument Version
COMMVERSION	LABEL	2.24	Communications Version
CPUPLDVERSION	LABEL	0.00	CPU PLD Version
CTRLPLDVERSION	LABEL	0.00	CTRL PLD Version
PSTATPLDVERSION	LABEL	0.00	PSTAT PLD Version
CURVE	TABLE	600
	Pt	T	Vf	Im	Vu	Pwr	Sig	Ach	Temp	IERange	Over
	#	s	V	A	V	W	V	V	deg C	#	bits
	0	1	3.52461E+000	-1.91840E-006	0.00000E+000	-6.76161E-006	0.00000E+000	9.38090E-004	-3.27687E+002	7	...........
	1	2	3.52491E+000	-1.91756E-006	0.00000E+000	-6.75922E-006	0.00000E+000	9.37807E-004	-3.27687E+002	7	...........
	2	3	3.52513E+000	-1.91576E-006	0.00000E+000	-6.75329E-006	0.00000E+000	9.36507E-004	-3.27687E+002	7	...........
	3	4	3.52529E+000	-1.91628E-006	0.00000E+000	-6.75544E-006	0.00000E+000	9.37890E-004	-3.27687E+002	7	...........
	4	5	3.52542E+000	-1.91594E-006	0.00000E+000	-6.75451E-006	0.00000E+000	9.38940E-004	-3.27687E+002	7	...........
	5	6	3.52555E+000	-1.91532E-006	0.00000E+000	-6.75256E-006	0.00000E+000	9.40007E-004	-3.27687E+002	7	...........
	6	7	3.52565E+000	-1.91482E-006	0.00000E+000	-6.75097E-006	0.00000E+000	9.44274E-004	-3.27687E+002	7	...........
	7	8	3.52577E+000	-1.91500E-006	0.00000E+000	-6.75185E-006	0.00000E+000	9.44424E-004	-3.27687E+002	7	...........
	8	9	3.52588E+000	-1.91458E-006	0.00000E+000	-6.75056E-006	0.00000E+000	9.44807E-004	-3.27687E+002	7	...........
	9	10	3.52599E+000	-1.91460E-006	0.00000E+000	-6.75085E-006	0.00000E+000	9.48257E-004	-3.27687E+002	7	...........
	10	11	3.52610E+000	-1.91472E-006	0.00000E+000	-6.75149E-006	0.00000E+000	9.50074E-004	-3.27687E+002	7	...........
	11	12	3.52622E+000	-1.91335E-006	0.00000E+000	-6.74690E-006	0.00000E+000	9.50274E-004	-3.27687E+002	7	...........
	12	13	3.52634E+000	-1.91313E-006	0.00000E+000	-6.74633E-006	0.00000E+000	9.48057E-004	-3.27687E+002	7	...........
	13	14	3.52645E+000	-1.91271E-006	0.00000E+000	-6.74509E-006	0.00000E+000	9.47940E-004	-3.27687E+002	7	...........
	14	15	3.52656E+000	-1.91173E-006	0.00000E+000	-6.74182E-006	0.00000E+000	9.44257E-004	-3.27687E+002	7	...........
	15	16	3.52665E+000	-1.91229E-006	0.00000E+000	-6.74400E-006	0.00000E+000	9.43607E-004	-3.27687E+002	7	...........
	16	17	3.52674E+000	-1.91169E-006	0.00000E+000	-6.74204E-006	0.00000E+000	9.43557E-004	-3.27687E+002	7	...........
	17	18	3.52683E+000	-1.91158E-006	0.00000E+000	-6.74182E-006	0.00000E+000	9.42907E-004	-3.27687E+002	7	...........
	18	19	3.52691E+000	-1.91076E-006	0.00000E+000	-6.73906E-006	0.00000E+000	9.41074E-004	-3.27687E+002	7	...........
	19	20	3.52699E+000	-1.91090E-006	0.00000E+000	-6.73971E-006	0.00000E+000	9.40074E-004	-3.27687E+002	7	...........
	20	21	3.52706E+000	-1.91081E-006	0.00000E+000	-6.73956E-006	0.00000E+000	7.75590E-004	-3.27687E+002	7	...........
	21	22	3.52714E+000	-1.91062E-006	0.00000E+000	-6.73902E-006	0.00000E+000	7.00307E-004	-3.27687E+002	7	...........
	22	23	3.52722E+000	-1.91006E-006	0.00000E+000	-6.73719E-006	0.00000E+000	6.98740E-004	-3.27687E+002	7	...........
	23	24	3.52729E+000	-1.91046E-006	0.00000E+000	-6.73876E-006	0.00000E+000	6.99957E-004	-3.27687E+002	7	...........
	24	25	3.52735E+000	-1.90997E-006	0.00000E+000	-6.73712E-006	0.00000E+000	6.97357E-004	-3.27687E+002	7	...........
	25	26	3.52742E+000	-1.90940E-006	0.00000E+000	-6.73528E-006	0.00000E+000	7.00524E-004	-3.27687E+002	7	...........
	26	27	3.52749E+000	-1.90929E-006	0.00000E+000	-6.73502E-006	0.00000E+000	7.00290E-004	-3.27687E+002	7	...........
	27	28	3.52756E+000	-1.90953E-006	0.00000E+000	-6.73600E-006	0.00000E+000	7.00490E-004	-3.27687E+002	7	...........
	28	29	3.52762E+000	-1.90911E-006	0.00000E+000	-6.73463E-006	0.00000E+000	7.05574E-004	-3.27687E+002	7	...........
	29	30	3.52770E+000	-1.90862E-006	0.00000E+000	-6.73303E-006	0.00000E+000	7.02290E-004	-3.27687E+002	7	...........
	30	31	3.52777E+000	-1.90873E-006	0.00000E+000	-6.73354E-006	0.00000E+000	7.01474E-004	-3.27687E+002	7	...........
	31	32	3.52783E+000	-1.90816E-006	0.00000E+000	-6.73168E-006	0.00000E+000	7.03057E-004	-3.27687E+002	7	...........
	32	33	3.52789E+000	-1.90755E-006	0.00000E+000	-6.72965E-006	0.00000E+000	7.02374E-004	-3.27687E+002	7	...........
	33	34	3.52796E+000	-1.90750E-006	0.00000E+000	-6.72958E-006	0.00000E+000	7.02324E-004	-3.27687E+002	7	...........
	34	35	3.52802E+000	-1.90752E-006	0.00000E+000	-6.72978E-006	0.00000E+000	7.05357E-004	-3.27687E+002	7	...........
	35	36	3.52808E+000	-1.90739E-006	0.00000E+000	-6.72943E-006	0.00000E+000	7.03440E-004	-3.27687E+002	7	...........
	36	37	3.52815E+000	-1.90747E-006	0.00000E+000	-6.72984E-006	0.00000E+000	7.01574E-004	-3.27687E+002	7	...........
	37	38	3.52821E+000	-1.90722E-006	0.00000E+000	-6.72908E-006	0.00000E+000	7.01057E-004	-3.27687E+002	7	...........
	38	39	3.52826E+000	-1.90541E-006	0.00000E+000	-6.72277E-006	0.00000E+000	6.98307E-004	-3.27687E+002	7	...........
	39	40	3.52832E+000	-1.90604E-006	0.00000E+000	-6.72513E-006	0.00000E+000	7.00624E-004	-3.27687E+002	7	...........
	40	41	3.52838E+000	-1.90619E-006	0.00000E+000	-6.72575E-006	0.00000E+000	6.98124E-004	-3.27687E+002	7	...........
	41	42	3.52844E+000	-1.90589E-006	0.00000E+000	-6.72482E-006	0.00000E+000	6.97907E-004	-3.27687E+002	7	...........
	42	43	3.52849E+000	-1.90571E-006	0.00000E+000	-6.72428E-006	0.00000E+000	6.95440E-004	-3.27687E+002	7	...........
	43	44	3.52853E+000	-1.90576E-006	0.00000E+000	-6.72452E-006	0.00000E+000	6.92407E-004	-3.27687E+002	7	...........
	44	45	3.52859E+000	-1.90553E-006	0.00000E+000	-6.72383E-006	0.00000E+000	6.95374E-004	-3.27687E+002	7	...........
	45	46	3.52863E+000	-1.90629E-006	0.00000E+000	-6.72660E-006	0.00000E+000	6.95674E-004	-3.27687E+002	7	...........
	46	47	3.52868E+000	-1.90512E-006	0.00000E+000	-6.72253E-006	0.00000E+000	6.95307E-004	-3.27687E+002	7	...........
	47	48	3.52872E+000	-1.90597E-006	0.00000E+000	-6.72564E-006	0.00000E+000	6.95407E-004	-3.27687E+002	7	...........
	48	49	3.52877E+000	-1.90531E-006	0.00000E+000	-6.72341E-006	0.00000E+000	6.96874E-004	-3.27687E+002	7	...........
	49	50	3.52881E+000	-1.90512E-006	0.00000E+000	-6.72281E-006	0.00000E+000	6.97240E-004	-3.27687E+002	7	...........
	50	51	3.52885E+000	-1.90416E-006	0.00000E+000	-6.71948E-006	0.00000E+000	6.96924E-004	-3.27687E+002	7	...........
	51	52	3.52889E+000	-1.90512E-006	0.00000E+000	-6.72297E-006	0.00000E+000	6.99557E-004	-3.27687E+002	7	...........
	52	53	3.52893E+000	-1.90504E-006	0.00000E+000	-6.72276E-006	0.00000E+000	6.96690E-004	-3.27687E+002	7	...........
	53	54	3.52897E+000	-1.90452E-006	0.00000E+000	-6.72098E-006	0.00000E+000	6.97840E-004	-3.27687E+002	7	...........
	54	55	3.52901E+000	-1.90459E-006	0.00000E+000	-6.72132E-006	0.00000E+000	6.97007E-004	-3.27687E+002	7	...........
	55	56	3.52905E+000	-1.90433E-006	0.00000E+000	-6.72049E-006	0.00000E+000	6.98724E-004	-3.27687E+002	7	...........
	56	57	3.52909E+000	-1.90451E-006	0.00000E+000	-6.72117E-006	0.00000E+000	6.97790E-004	-3.27687E+002	7	...........
	57	58	3.52912E+000	-1.90494E-006	0.00000E+000	-6.72277E-006	0.00000E+000	6.95907E-004	-3.27687E+002	7	...........
	58	59	3.52918E+000	-1.90401E-006	0.00000E+000	-6.71959E-006	0.00000E+000	6.99074E-004	-3.27687E+002	7	...........
	59	60	3.52922E+000	-1.90332E-006	0.00000E+000	-6.71723E-006	0.00000E+000	7.01040E-004	-3.27687E+002	7	...........
	60	61	3.52927E+000	-1.90339E-006	0.00000E+000	-6.71759E-006	0.00000E+000	7.01790E-004	-3.27687E+002	7	...........
	61	62	3.52931E+000	-1.90294E-006	0.00000E+000	-6.71608E-006	0.00000E+000	7.04757E-004	-3.27687E+002	7	...........
	62	63	3.52935E+000	-1.90261E-006	0.00000E+000	-6.71499E-006	0.00000E+000	7.02024E-004	-3.27687E+002	7	...........
	63	64	3.52939E+000	-1.90284E-006	0.00000E+000	-6.71587E-006	0.00000E+000	7.00457E-004	-3.27687E+002	7	...........
	64	65	3.52943E+000	-1.90310E-006	0.00000E+000	-6.71687E-006	0.00000E+000	7.04190E-004	-3.27687E+002	7	...........
	65	66	3.52947E+000	-1.90260E-006	0.00000E+000	-6.71517E-006	0.00000E+000	7.00924E-004	-3.27687E+002	7	...........
	66	67	3.52952E+000	-1.90243E-006	0.00000E+000	-6.71466E-006	0.00000E+000	7.02290E-004	-3.27687E+002	7	...........
	67	68	3.52956E+000	-1.90193E-006	0.00000E+000	-6.71299E-006	0.00000E+000	7.00490E-004	-3.27687E+002	7	...........
	68	69	3.52961E+000	-1.90188E-006	0.00000E+000	-6.71289E-006	0.00000E+000	6.97424E-004	-3.27687E+002	7	...........
	69	70	3.52964E+000	-1.90255E-006	0.00000E+000	-6.71532E-006	0.00000E+000	7.00057E-004	-3.27687E+002	7	...........
	70	71	3.52969E+000	-1.90217E-006	0.00000E+000	-6.71407E-006	0.00000E+000	6.94990E-004	-3.27687E+002	7	...........
	71	72	3.52973E+000	-1.90212E-006	0.00000E+000	-6.71398E-006	0.00000E+000	6.96240E-004	-3.27687E+002	7	...........
	72	73	3.52976E+000	-1.90187E-006	0.00000E+000	-6.71313E-006	0.00000E+000	6.94474E-004	-3.27687E+002	7	...........
	73	74	3.52980E+000	-1.90057E-006	0.00000E+000	-6.70862E-006	0.00000E+000	6.94607E-004	-3.27687E+002	7	...........
	74	75	3.52983E+000	-1.90097E-006	0.00000E+000	-6.71008E-006	0.00000E+000	6.92774E-004	-3.27687E+002	7	...........
	75	76	3.52985E+000	-1.90136E-006	0.00000E+000	-6.71152E-006	0.00000E+000	6.90957E-004	-3.27687E+002	7	...........
	76	77	3.52990E+000	-1.90166E-006	0.00000E+000	-6.71267E-006	0.00000E+000	6.90924E-004	-3.27687E+002	7	...........
	77	78	3.52993E+000	-1.90143E-006	0.00000E+000	-6.71191E-006	0.00000E+000	6.89974E-004	-3.27687E+002	7	...........
	78	79	3.52997E+000	-1.90094E-006	0.00000E+000	-6.71025E-006	0.00000E+000	6.89324E-004	-3.27687E+002	7	...........
	79	80	3.52999E+000	-1.90101E-006	0.00000E+000	-6.71055E-006	0.00000E+000	6.89824E-004	-3.27687E+002	7	...........
	80	81	3.53003E+000	-1.90119E-006	0.00000E+000	-6.71125E-006	0.00000E+000	6.86990E-004	-3.27687E+002	7	...........
	81	82	3.53006E+000	-1.90112E-006	0.00000E+000	-6.71108E-006	0.00000E+000	6.86674E-004	-3.27687E+002	7	...........
	82	83	3.53010E+000	-1.90064E-006	0.00000E+000	-6.70946E-006	0.00000E+000	6.85907E-004	-3.27687E+002	7	...........
	83	84	3.53013E+000	-1.90016E-006	0.00000E+000	-6.70781E-006	0.00000E+000	6.88557E-004	-3.27687E+002	7	...........
	84	85	3.53017E+000	-1.90034E-006	0.00000E+000	-6.70851E-006	0.00000E+000	6.86590E-004	-3.27687E+002	7	...........
	85	86	3.53019E+000	-1.89924E-006	0.00000E+000	-6.70470E-006	0.00000E+000	6.87674E-004	-3.27687E+002	7	...........
	86	87	3.53022E+000	-1.89899E-006	0.00000E+000	-6.70385E-006	0.00000E+000	6.85007E-004	-3.27687E+002	7	...........
	87	88	3.53025E+000	-1.90006E-006	0.00000E+000	-6.70768E-006	0.00000E+000	6.85374E-004	-3.27687E+002	7	...........
	88	89	3.53027E+000	-1.90001E-006	0.00000E+000	-6.70756E-006	0.00000E+000	6.86707E-004	-3.27687E+002	7	...........
	89	90	3.53031E+000	-1.89928E-006	0.00000E+000	-6.70506E-006	0.00000E+000	6.85457E-004	-3.27687E+002	7	...........
	90	91	3.53034E+000	-1.90019E-006	0.00000E+000	-6.70831E-006	0.00000E+000	6.86024E-004	-3.27687E+002	7	...........
	91	92	3.53037E+000	-1.89966E-006	0.00000E+000	-6.70650E-006	0.00000E+000	6.85440E-004	-3.27687E+002	7	...........
	92	93	3.53041E+000	-1.89957E-006	0.00000E+000	-6.70626E-006	0.00000E+000	6.84624E-004	-3.27687E+002	7	...........
	93	94	3.53043E+000	-1.89961E-006	0.00000E+000	-6.70643E-006	0.00000E+000	6.87290E-004	-3.27687E+002	7	...........
	94	95	3.53046E+000	-1.89984E-006	0.00000E+000	-6.70732E-006	0.00000E+000	6.85974E-004	-3.27687E+002	7	...........
	95	96	3.53049E+000	-1.89957E-006	0.00000E+000	-6.70642E-006	0.00000E+000	6.87624E-004	-3.27687E+002	7	...........
	96	97	3.53050E+000	-1.89982E-006	0.00000E+000	-6.70731E-006	0.00000E+000	6.85707E-004	-3.27687E+002	7	...........
	97	98	3.53053E+000	-1.89842E-006	0.00000E+000	-6.70242E-006	0.00000E+000	6.90874E-004	-3.27687E+002	7	...........
	98	99	3.53055E+000	-1.89793E-006	0.00000E+000	-6.70074E-006	0.00000E+000	6.90124E-004	-3.27687E+002	7	...........
	99	100	3.53058E+000	-1.89895E-006	0.00000E+000	-6.70440E-006	0.00000E+000	6.88174E-004	-3.27687E+002	7	...........
	100	101	3.53060E+000	-1.89843E-006	0.00000E+000	-6.70262E-006	0.00000E+000	6.91474E-004	-3.27687E+002	7	...........
	101	102	3.53063E+000	-1.89757E-006	0.00000E+000	-6.69960E-006	0.00000E+000	6.91440E-004	-3.27687E+002	7	...........
	102	103	3.53065E+000	-1.89815E-006	0.00000E+000	-6.70170E-006	0.00000E+000	6.90557E-004	-3.27687E+002	7	...........
	103	104	3.53067E+000	-1.89827E-006	0.00000E+000	-6.70216E-006	0.00000E+000	6.89357E-004	-3.27687E+002	7	...........
	104	105	3.53069E+000	-1.89781E-006	0.00000E+000	-6.70059E-006	0.00000E+000	6.89224E-004	-3.27687E+002	7	...........
	105	106	3.53072E+000	-1.89766E-006	0.00000E+000	-6.70010E-006	0.00000E+000	6.90040E-004	-3.27687E+002	7	...........
	106	107	3.53074E+000	-1.89840E-006	0.00000E+000	-6.70275E-006	0.00000E+000	6.93524E-004	-3.27687E+002	7	...........
	107	108	3.53076E+000	-1.89859E-006	0.00000E+000	-6.70346E-006	0.00000E+000	6.93540E-004	-3.27687E+002	7	...........
	108	109	3.53079E+000	-1.89748E-006	0.00000E+000	-6.69963E-006	0.00000E+000	6.94657E-004	-3.27687E+002	7	...........
	109	110	3.53082E+000	-1.89676E-006	0.00000E+000	-6.69712E-006	0.00000E+000	6.95640E-004	-3.27687E+002	7	...........
	110	111	3.53085E+000	-1.89719E-006	0.00000E+000	-6.69869E-006	0.00000E+000	6.95857E-004	-3.27687E+002	7	...........
	111	112	3.53086E+000	-1.89762E-006	0.00000E+000	-6.70024E-006	0.00000E+000	6.94924E-004	-3.27687E+002	7	...........
	112	113	3.53089E+000	-1.89743E-006	0.00000E+000	-6.69961E-006	0.00000E+000	6.94840E-004	-3.27687E+002	7	...........
	113	114	3.53092E+000	-1.89757E-006	0.00000E+000	-6.70016E-006	0.00000E+000	6.95240E-004	-3.27687E+002	7	...........
	114	115	3.53095E+000	-1.89693E-006	0.00000E+000	-6.69797E-006	0.00000E+000	6.97540E-004	-3.27687E+002	7	...........
	115	116	3.53097E+000	-1.89689E-006	0.00000E+000	-6.69787E-006	0.00000E+000	6.97507E-004	-3.27687E+002	7	...........
	116	117	3.53099E+000	-1.89724E-006	0.00000E+000	-6.69914E-006	0.00000E+000	7.00340E-004	-3.27687E+002	7	...........
	117	118	3.53101E+000	-1.89684E-006	0.00000E+000	-6.69776E-006	0.00000E+000	6.96690E-004	-3.27687E+002	7	...........
	118	119	3.53105E+000	-1.89697E-006	0.00000E+000	-6.69828E-006	0.00000E+000	6.93757E-004	-3.27687E+002	7	...........
	119	120	3.53107E+000	-1.89664E-006	0.00000E+000	-6.69717E-006	0.00000E+000	6.97807E-004	-3.27687E+002	7	...........
	120	121	3.53109E+000	-1.89615E-006	0.00000E+000	-6.69548E-006	0.00000E+000	6.96290E-004	-3.27687E+002	7	...........
	121	122	3.53113E+000	-1.89571E-006	0.00000E+000	-6.69398E-006	0.00000E+000	6.96807E-004	-3.27687E+002	7	...........
	122	123	3.53114E+000	-1.89566E-006	0.00000E+000	-6.69385E-006	0.00000E+000	6.97224E-004	-3.27687E+002	7	...........
	123	124	3.53115E+000	-1.89587E-006	0.00000E+000	-6.69460E-006	0.00000E+000	6.95240E-004	-3.27687E+002	7	...........
	124	125	3.53118E+000	-1.89661E-006	0.00000E+000	-6.69728E-006	0.00000E+000	6.95290E-004	-3.27687E+002	7	...........
	125	126	3.53120E+000	-1.89585E-006	0.00000E+000	-6.69463E-006	0.00000E+000	6.97557E-004	-3.27687E+002	7	...........
	126	127	3.53124E+000	-1.89638E-006	0.00000E+000	-6.69656E-006	0.00000E+000	6.99490E-004	-3.27687E+002	7	...........
	127	128	3.53125E+000	-1.89590E-006	0.00000E+000	-6.69491E-006	0.00000E+000	6.96907E-004	-3.27687E+002	7	...........
	128	129	3.53127E+000	-1.89572E-006	0.00000E+000	-6.69430E-006	0.00000E+000	6.99440E-004	-3.27687E+002	7	...........
	129	130	3.53129E+000	-1.89631E-006	0.00000E+000	-6.69643E-006	0.00000E+000	6.97240E-004	-3.27687E+002	7	...........
	130	131	3.53132E+000	-1.89557E-006	0.00000E+000	-6.69388E-006	0.00000E+000	6.96840E-004	-3.27687E+002	7	...........
	131	132	3.53134E+000	-1.89627E-006	0.00000E+000	-6.69637E-006	0.00000E+000	6.97724E-004	-3.27687E+002	7	...........
	132	133	3.53136E+000	-1.89546E-006	0.00000E+000	-6.69355E-006	0.00000E+000	6.97357E-004	-3.27687E+002	7	...........
	133	134	3.53138E+000	-1.89565E-006	0.00000E+000	-6.69426E-006	0.00000E+000	6.96207E-004	-3.27687E+002	7	...........
	134	135	3.53140E+000	-1.89535E-006	0.00000E+000	-6.69324E-006	0.00000E+000	6.93807E-004	-3.27687E+002	7	...........
	135	136	3.53142E+000	-1.89574E-006	0.00000E+000	-6.69466E-006	0.00000E+000	6.95557E-004	-3.27687E+002	7	...........
	136	137	3.53144E+000	-1.89628E-006	0.00000E+000	-6.69659E-006	0.00000E+000	6.93040E-004	-3.27687E+002	7	...........
	137	138	3.53146E+000	-1.89517E-006	0.00000E+000	-6.69271E-006	0.00000E+000	6.94940E-004	-3.27687E+002	7	...........
	138	139	3.53146E+000	-1.89568E-006	0.00000E+000	-6.69454E-006	0.00000E+000	6.94590E-004	-3.27687E+002	7	...........
	139	140	3.53150E+000	-1.89496E-006	0.00000E+000	-6.69203E-006	0.00000E+000	6.95374E-004	-3.27687E+002	7	...........
	140	141	3.53152E+000	-1.89554E-006	0.00000E+000	-6.69412E-006	0.00000E+000	6.94207E-004	-3.27687E+002	7	...........
	141	142	3.53155E+000	-1.89543E-006	0.00000E+000	-6.69380E-006	0.00000E+000	6.96857E-004	-3.27687E+002	7	...........
	142	143	3.53155E+000	-1.89620E-006	0.00000E+000	-6.69651E-006	0.00000E+000	6.93957E-004	-3.27687E+002	7	...........
	143	144	3.53158E+000	-1.89542E-006	0.00000E+000	-6.69382E-006	0.00000E+000	6.94374E-004	-3.27687E+002	7	...........
	144	145	3.53159E+000	-1.89545E-006	0.00000E+000	-6.69396E-006	0.00000E+000	6.93140E-004	-3.27687E+002	7	...........
	145	146	3.53162E+000	-1.89424E-006	0.00000E+000	-6.68975E-006	0.00000E+000	6.96374E-004	-3.27687E+002	7	...........
	146	147	3.53163E+000	-1.89548E-006	0.00000E+000	-6.69414E-006	0.00000E+000	6.95840E-004	-3.27687E+002	7	...........
	147	148	3.53164E+000	-1.89472E-006	0.00000E+000	-6.69149E-006	0.00000E+000	6.93074E-004	-3.27687E+002	7	...........
	148	149	3.53167E+000	-1.89529E-006	0.00000E+000	-6.69355E-006	0.00000E+000	6.96507E-004	-3.27687E+002	7	...........
	149	150	3.53168E+000	-1.89450E-006	0.00000E+000	-6.69075E-006	0.00000E+000	6.96474E-004	-3.27687E+002	7	...........
	150	151	3.53171E+000	-1.89474E-006	0.00000E+000	-6.69167E-006	0.00000E+000	6.96074E-004	-3.27687E+002	7	...........
	151	152	3.53172E+000	-1.89511E-006	0.00000E+000	-6.69300E-006	0.00000E+000	6.95257E-004	-3.27687E+002	7	...........
	152	153	3.53174E+000	-1.89536E-006	0.00000E+000	-6.69392E-006	0.00000E+000	6.94257E-004	-3.27687E+002	7	...........
	153	154	3.53176E+000	-1.89435E-006	0.00000E+000	-6.69038E-006	0.00000E+000	6.92107E-004	-3.27687E+002	7	...........
	154	155	3.53177E+000	-1.89456E-006	0.00000E+000	-6.69115E-006	0.00000E+000	6.94807E-004	-3.27687E+002	7	...........
	155	156	3.53178E+000	-1.89495E-006	0.00000E+000	-6.69253E-006	0.00000E+000	6.92490E-004	-3.27687E+002	7	...........
	156	157	3.53181E+000	-1.89497E-006	0.00000E+000	-6.69267E-006	0.00000E+000	6.94274E-004	-3.27687E+002	7	...........
	157	158	3.53181E+000	-1.89430E-006	0.00000E+000	-6.69032E-006	0.00000E+000	6.93874E-004	-3.27687E+002	7	...........
	158	159	3.53183E+000	-1.89435E-006	0.00000E+000	-6.69052E-006	0.00000E+000	6.92840E-004	-3.27687E+002	7	...........
	159	160	3.53185E+000	-1.89447E-006	0.00000E+000	-6.69100E-006	0.00000E+000	6.98157E-004	-3.27687E+002	7	...........
	160	161	3.53186E+000	-1.89425E-006	0.00000E+000	-6.69024E-006	0.00000E+000	6.92590E-004	-3.27687E+002	7	...........
	161	162	3.53188E+000	-1.89438E-006	0.00000E+000	-6.69075E-006	0.00000E+000	6.95690E-004	-3.27687E+002	7	...........
	162	163	3.53190E+000	-1.89418E-006	0.00000E+000	-6.69004E-006	0.00000E+000	6.97540E-004	-3.27687E+002	7	...........
	163	164	3.53190E+000	-1.89368E-006	0.00000E+000	-6.68830E-006	0.00000E+000	6.94840E-004	-3.27687E+002	7	...........
	164	165	3.53192E+000	-1.89383E-006	0.00000E+000	-6.68887E-006	0.00000E+000	6.94207E-004	-3.27687E+002	7	...........
	165	166	3.53193E+000	-1.89409E-006	0.00000E+000	-6.68981E-006	0.00000E+000	6.94990E-004	-3.27687E+002	7	...........
	166	167	3.53196E+000	-1.89437E-006	0.00000E+000	-6.69084E-006	0.00000E+000	6.94740E-004	-3.27687E+002	7	...........
	167	168	3.53197E+000	-1.89410E-006	0.00000E+000	-6.68992E-006	0.00000E+000	6.95574E-004	-3.27687E+002	7	...........
	168	169	3.53199E+000	-1.89380E-006	0.00000E+000	-6.68887E-006	0.00000E+000	6.95774E-004	-3.27687E+002	7	...........
	169	170	3.53200E+000	-1.89315E-006	0.00000E+000	-6.68660E-006	0.00000E+000	6.94390E-004	-3.27687E+002	7	...........
	170	171	3.53201E+000	-1.89391E-006	0.00000E+000	-6.68932E-006	0.00000E+000	6.96674E-004	-3.27687E+002	7	...........
	171	172	3.53204E+000	-1.89428E-006	0.00000E+000	-6.69065E-006	0.00000E+000	6.97240E-004	-3.27687E+002	7	...........
	172	173	3.53205E+000	-1.89373E-006	0.00000E+000	-6.68876E-006	0.00000E+000	6.96690E-004	-3.27687E+002	7	...........
	173	174	3.53206E+000	-1.89330E-006	0.00000E+000	-6.68725E-006	0.00000E+000	6.97107E-004	-3.27687E+002	7	...........
	174	175	3.53208E+000	-1.89359E-006	0.00000E+000	-6.68832E-006	0.00000E+000	6.94007E-004	-3.27687E+002	7	...........
	175	176	3.53210E+000	-1.89338E-006	0.00000E+000	-6.68760E-006	0.00000E+000	6.93840E-004	-3.27687E+002	7	...........
	176	177	3.53211E+000	-1.89385E-006	0.00000E+000	-6.68929E-006	0.00000E+000	6.97824E-004	-3.27687E+002	7	...........
	177	178	3.53212E+000	-1.89340E-006	0.00000E+000	-6.68773E-006	0.00000E+000	6.97224E-004	-3.27687E+002	7	...........
	178	179	3.53214E+000	-1.89314E-006	0.00000E+000	-6.68683E-006	0.00000E+000	6.96974E-004	-3.27687E+002	7	...........
	179	180	3.53216E+000	-1.89344E-006	0.00000E+000	-6.68795E-006	0.00000E+000	6.97474E-004	-3.27687E+002	7	...........
	180	181	3.53218E+000	-1.89317E-006	0.00000E+000	-6.68700E-006	0.00000E+000	6.95057E-004	-3.27687E+002	7	...........
	181	182	3.53218E+000	-1.89216E-006	0.00000E+000	-6.68346E-006	0.00000E+000	6.96057E-004	-3.27687E+002	7	...........
	182	183	3.53221E+000	-1.89286E-006	0.00000E+000	-6.68600E-006	0.00000E+000	6.94424E-004	-3.27687E+002	7	...........
	183	184	3.53223E+000	-1.89348E-006	0.00000E+000	-6.68819E-006	0.00000E+000	6.97357E-004	-3.27687E+002	7	...........
	184	185	3.53223E+000	-1.89263E-006	0.00000E+000	-6.68520E-006	0.00000E+000	6.98557E-004	-3.27687E+002	7	...........
	185	186	3.53224E+000	-1.89167E-006	0.00000E+000	-6.68185E-006	0.00000E+000	6.95640E-004	-3.27687E+002	7	...........
	186	187	3.53226E+000	-1.89298E-006	0.00000E+000	-6.68651E-006	0.00000E+000	6.97007E-004	-3.27687E+002	7	...........
	187	188	3.53228E+000	-1.89326E-006	0.00000E+000	-6.68754E-006	0.00000E+000	6.99507E-004	-3.27687E+002	7	...........
	188	189	3.53229E+000	-1.89301E-006	0.00000E+000	-6.68668E-006	0.00000E+000	6.98507E-004	-3.27687E+002	7	...........
	189	190	3.53232E+000	-1.89330E-006	0.00000E+000	-6.68775E-006	0.00000E+000	6.98024E-004	-3.27687E+002	7	...........
	190	191	3.53233E+000	-1.89271E-006	0.00000E+000	-6.68567E-006	0.00000E+000	6.98874E-004	-3.27687E+002	7	...........
	191	192	3.53235E+000	-1.89231E-006	0.00000E+000	-6.68430E-006	0.00000E+000	6.97090E-004	-3.27687E+002	7	...........
	192	193	3.53237E+000	-1.89201E-006	0.00000E+000	-6.68330E-006	0.00000E+000	7.02807E-004	-3.27687E+002	7	...........
	193	194	3.53239E+000	-1.89104E-006	0.00000E+000	-6.67989E-006	0.00000E+000	7.02124E-004	-3.27687E+002	7	...........
	194	195	3.53241E+000	-1.89251E-006	0.00000E+000	-6.68511E-006	0.00000E+000	6.99324E-004	-3.27687E+002	7	...........
	195	196	3.53241E+000	-1.89206E-006	0.00000E+000	-6.68355E-006	0.00000E+000	7.00090E-004	-3.27687E+002	7	...........
	196	197	3.53244E+000	-1.89235E-006	0.00000E+000	-6.68461E-006	0.00000E+000	7.00140E-004	-3.27687E+002	7	...........
	197	198	3.53245E+000	-1.89152E-006	0.00000E+000	-6.68169E-006	0.00000E+000	6.99340E-004	-3.27687E+002	7	...........
	198	199	3.53247E+000	-1.89132E-006	0.00000E+000	-6.68104E-006	0.00000E+000	7.00190E-004	-3.27687E+002	7	...........
	199	200	3.53249E+000	-1.89225E-006	0.00000E+000	-6.68433E-006	0.00000E+000	6.95690E-004	-3.27687E+002	7	...........
	200	201	3.53249E+000	-1.89233E-006	0.00000E+000	-6.68463E-006	0.00000E+000	6.97307E-004	-3.27687E+002	7	...........
	201	202	3.53252E+000	-1.89244E-006	0.00000E+000	-6.68508E-006	0.00000E+000	6.99707E-004	-3.27687E+002	7	...........
	202	203	3.53253E+000	-1.89179E-006	0.00000E+000	-6.68280E-006	0.00000E+000	6.99540E-004	-3.27687E+002	7	...........
	203	204	3.53256E+000	-1.89273E-006	0.00000E+000	-6.68621E-006	0.00000E+000	7.00557E-004	-3.27687E+002	7	...........
	204	205	3.53257E+000	-1.89189E-006	0.00000E+000	-6.68323E-006	0.00000E+000	7.00557E-004	-3.27687E+002	7	...........
	205	206	3.53258E+000	-1.89086E-006	0.00000E+000	-6.67962E-006	0.00000E+000	6.99057E-004	-3.27687E+002	7	...........
	206	207	3.53260E+000	-1.89199E-006	0.00000E+000	-6.68366E-006	0.00000E+000	6.98807E-004	-3.27687E+002	7	...........
	207	208	3.53262E+000	-1.89170E-006	0.00000E+000	-6.68264E-006	0.00000E+000	6.97224E-004	-3.27687E+002	7	...........
	208	209	3.53264E+000	-1.89196E-006	0.00000E+000	-6.68362E-006	0.00000E+000	6.97490E-004	-3.27687E+002	7	...........
	209	210	3.53265E+000	-1.89180E-006	0.00000E+000	-6.68307E-006	0.00000E+000	6.98040E-004	-3.27687E+002	7	...........
	210	211	3.53266E+000	-1.89177E-006	0.00000E+000	-6.68296E-006	0.00000E+000	6.99257E-004	-3.27687E+002	7	...........
	211	212	3.53268E+000	-1.89155E-006	0.00000E+000	-6.68225E-006	0.00000E+000	7.01190E-004	-3.27687E+002	7	...........
	212	213	3.53271E+000	-1.89153E-006	0.00000E+000	-6.68223E-006	0.00000E+000	6.99124E-004	-3.27687E+002	7	...........
	213	214	3.53272E+000	-1.89182E-006	0.00000E+000	-6.68328E-006	0.00000E+000	6.97440E-004	-3.27687E+002	7	...........
	214	215	3.53273E+000	-1.89193E-006	0.00000E+000	-6.68369E-006	0.00000E+000	6.97390E-004	-3.27687E+002	7	...........
	215	216	3.53275E+000	-1.89216E-006	0.00000E+000	-6.68453E-006	0.00000E+000	6.98640E-004	-3.27687E+002	7	...........
	216	217	3.53277E+000	-1.89150E-006	0.00000E+000	-6.68222E-006	0.00000E+000	6.97790E-004	-3.27687E+002	7	...........
	217	218	3.53278E+000	-1.89014E-006	0.00000E+000	-6.67744E-006	0.00000E+000	6.97357E-004	-3.27687E+002	7	...........
	218	219	3.53279E+000	-1.89097E-006	0.00000E+000	-6.68038E-006	0.00000E+000	6.98907E-004	-3.27687E+002	7	...........
	219	220	3.53280E+000	-1.89119E-006	0.00000E+000	-6.68117E-006	0.00000E+000	6.98140E-004	-3.27687E+002	7	...........
	220	221	3.53281E+000	-1.89122E-006	0.00000E+000	-6.68133E-006	0.00000E+000	6.96974E-004	-3.27687E+002	7	...........
	221	222	3.53282E+000	-1.89107E-006	0.00000E+000	-6.68081E-006	0.00000E+000	6.96374E-004	-3.27687E+002	7	...........
	222	223	3.53285E+000	-1.89081E-006	0.00000E+000	-6.67995E-006	0.00000E+000	6.99207E-004	-3.27687E+002	7	...........
	223	224	3.53286E+000	-1.89110E-006	0.00000E+000	-6.68098E-006	0.00000E+000	6.97824E-004	-3.27687E+002	7	...........
	224	225	3.53288E+000	-1.89168E-006	0.00000E+000	-6.68310E-006	0.00000E+000	6.94624E-004	-3.27687E+002	7	...........
	225	226	3.53288E+000	-1.89118E-006	0.00000E+000	-6.68131E-006	0.00000E+000	6.94640E-004	-3.27687E+002	7	...........
	226	227	3.53291E+000	-1.89164E-006	0.00000E+000	-6.68298E-006	0.00000E+000	6.93707E-004	-3.27687E+002	7	...........
	227	228	3.53291E+000	-1.89130E-006	0.00000E+000	-6.68182E-006	0.00000E+000	6.93424E-004	-3.27687E+002	7	...........
	228	229	3.53293E+000	-1.89144E-006	0.00000E+000	-6.68232E-006	0.00000E+000	6.95374E-004	-3.27687E+002	7	...........
	229	230	3.53294E+000	-1.89126E-006	0.00000E+000	-6.68169E-006	0.00000E+000	6.94607E-004	-3.27687E+002	7	...........
	230	231	3.53296E+000	-1.89191E-006	0.00000E+000	-6.68406E-006	0.00000E+000	6.96240E-004	-3.27687E+002	7	...........
	231	232	3.53298E+000	-1.89067E-006	0.00000E+000	-6.67970E-006	0.00000E+000	6.95807E-004	-3.27687E+002	7	...........
	232	233	3.53299E+000	-1.89159E-006	0.00000E+000	-6.68297E-006	0.00000E+000	6.94540E-004	-3.27687E+002	7	...........
	233	234	3.53300E+000	-1.89111E-006	0.00000E+000	-6.68129E-006	0.00000E+000	6.95207E-004	-3.27687E+002	7	...........
	234	235	3.53301E+000	-1.89081E-006	0.00000E+000	-6.68025E-006	0.00000E+000	6.94890E-004	-3.27687E+002	7	...........
	235	236	3.53301E+000	-1.89125E-006	0.00000E+000	-6.68180E-006	0.00000E+000	6.94224E-004	-3.27687E+002	7	...........
	236	237	3.53304E+000	-1.89195E-006	0.00000E+000	-6.68432E-006	0.00000E+000	6.92974E-004	-3.27687E+002	7	...........
	237	238	3.53304E+000	-1.89188E-006	0.00000E+000	-6.68411E-006	0.00000E+000	6.95857E-004	-3.27687E+002	7	...........
	238	239	3.53305E+000	-1.89189E-006	0.00000E+000	-6.68415E-006	0.00000E+000	6.92324E-004	-3.27687E+002	7	...........
	239	240	3.53306E+000	-1.89158E-006	0.00000E+000	-6.68308E-006	0.00000E+000	6.92357E-004	-3.27687E+002	7	...........
	240	241	3.53307E+000	-1.89074E-006	0.00000E+000	-6.68012E-006	0.00000E+000	6.92774E-004	-3.27687E+002	7	...........
	241	242	3.53309E+000	-1.89058E-006	0.00000E+000	-6.67959E-006	0.00000E+000	6.90424E-004	-3.27687E+002	7	...........
	242	243	3.53309E+000	-1.89111E-006	0.00000E+000	-6.68147E-006	0.00000E+000	6.92524E-004	-3.27687E+002	7	...........
	243	244	3.53311E+000	-1.89119E-006	0.00000E+000	-6.68177E-006	0.00000E+000	6.93340E-004	-3.27687E+002	7	...........
	244	245	3.53312E+000	-1.89053E-006	0.00000E+000	-6.67948E-006	0.00000E+000	6.94057E-004	-3.27687E+002	7	...........
	245	246	3.53314E+000	-1.89011E-006	0.00000E+000	-6.67802E-006	0.00000E+000	6.90440E-004	-3.27687E+002	7	...........
	246	247	3.53315E+000	-1.89038E-006	0.00000E+000	-6.67900E-006	0.00000E+000	6.93257E-004	-3.27687E+002	7	...........
	247	248	3.53315E+000	-1.89056E-006	0.00000E+000	-6.67963E-006	0.00000E+000	6.91340E-004	-3.27687E+002	7	...........
	248	249	3.53317E+000	-1.89064E-006	0.00000E+000	-6.67996E-006	0.00000E+000	6.92357E-004	-3.27687E+002	7	...........
	249	250	3.53317E+000	-1.89118E-006	0.00000E+000	-6.68186E-006	0.00000E+000	6.93974E-004	-3.27687E+002	7	...........
	250	251	3.53318E+000	-1.89100E-006	0.00000E+000	-6.68126E-006	0.00000E+000	6.91457E-004	-3.27687E+002	7	...........
	251	252	3.53319E+000	-1.89093E-006	0.00000E+000	-6.68103E-006	0.00000E+000	6.91174E-004	-3.27687E+002	7	...........
	252	253	3.53319E+000	-1.89018E-006	0.00000E+000	-6.67835E-006	0.00000E+000	6.89140E-004	-3.27687E+002	7	...........
	253	254	3.53320E+000	-1.88896E-006	0.00000E+000	-6.67406E-006	0.00000E+000	6.93324E-004	-3.27687E+002	7	...........
	254	255	3.53322E+000	-1.89029E-006	0.00000E+000	-6.67880E-006	0.00000E+000	6.92824E-004	-3.27687E+002	7	...........
	255	256	3.53323E+000	-1.89100E-006	0.00000E+000	-6.68134E-006	0.00000E+000	6.92424E-004	-3.27687E+002	7	...........
	256	257	3.53324E+000	-1.89021E-006	0.00000E+000	-6.67859E-006	0.00000E+000	6.92624E-004	-3.27687E+002	7	...........
	257	258	3.53324E+000	-1.89012E-006	0.00000E+000	-6.67824E-006	0.00000E+000	6.90924E-004	-3.27687E+002	7	...........
	258	259	3.53325E+000	-1.88985E-006	0.00000E+000	-6.67732E-006	0.00000E+000	6.90807E-004	-3.27687E+002	7	...........
	259	260	3.53327E+000	-1.89131E-006	0.00000E+000	-6.68249E-006	0.00000E+000	6.91457E-004	-3.27687E+002	7	...........
	260	261	3.53328E+000	-1.89119E-006	0.00000E+000	-6.68212E-006	0.00000E+000	6.90607E-004	-3.27687E+002	7	...........
	261	262	3.53328E+000	-1.89104E-006	0.00000E+000	-6.68158E-006	0.00000E+000	6.92890E-004	-3.27687E+002	7	...........
	262	263	3.53329E+000	-1.89082E-006	0.00000E+000	-6.68082E-006	0.00000E+000	6.92207E-004	-3.27687E+002	7	...........
	263	264	3.53330E+000	-1.89054E-006	0.00000E+000	-6.67984E-006	0.00000E+000	6.91090E-004	-3.27687E+002	7	...........
	264	265	3.53331E+000	-1.89011E-006	0.00000E+000	-6.67835E-006	0.00000E+000	6.89624E-004	-3.27687E+002	7	...........
	265	266	3.53332E+000	-1.88895E-006	0.00000E+000	-6.67428E-006	0.00000E+000	6.90290E-004	-3.27687E+002	7	...........
	266	267	3.53334E+000	-1.88984E-006	0.00000E+000	-6.67745E-006	0.00000E+000	6.89724E-004	-3.27687E+002	7	...........
	267	268	3.53335E+000	-1.89068E-006	0.00000E+000	-6.68045E-006	0.00000E+000	6.88590E-004	-3.27687E+002	7	...........
	268	269	3.53335E+000	-1.89005E-006	0.00000E+000	-6.67821E-006	0.00000E+000	6.86574E-004	-3.27687E+002	7	...........
	269	270	3.53335E+000	-1.88997E-006	0.00000E+000	-6.67794E-006	0.00000E+000	6.89307E-004	-3.27687E+002	7	...........
	270	271	3.53337E+000	-1.88967E-006	0.00000E+000	-6.67691E-006	0.00000E+000	6.87874E-004	-3.27687E+002	7	...........
	271	272	3.53337E+000	-1.89014E-006	0.00000E+000	-6.67856E-006	0.00000E+000	6.87540E-004	-3.27687E+002	7	...........
	272	273	3.53339E+000	-1.88992E-006	0.00000E+000	-6.67781E-006	0.00000E+000	6.90790E-004	-3.27687E+002	7	...........
	273	274	3.53339E+000	-1.88958E-006	0.00000E+000	-6.67661E-006	0.00000E+000	6.90690E-004	-3.27687E+002	7	...........
	274	275	3.53340E+000	-1.89079E-006	0.00000E+000	-6.68093E-006	0.00000E+000	6.91724E-004	-3.27687E+002	7	...........
	275	276	3.53341E+000	-1.89082E-006	0.00000E+000	-6.68106E-006	0.00000E+000	6.87940E-004	-3.27687E+002	7	...........
	276	277	3.53342E+000	-1.89014E-006	0.00000E+000	-6.67866E-006	0.00000E+000	6.92307E-004	-3.27687E+002	7	...........
	277	278	3.53343E+000	-1.88951E-006	0.00000E+000	-6.67645E-006	0.00000E+000	6.88007E-004	-3.27687E+002	7	...........
	278	279	3.53344E+000	-1.88985E-006	0.00000E+000	-6.67766E-006	0.00000E+000	6.89707E-004	-3.27687E+002	7	...........
	279	280	3.53345E+000	-1.88984E-006	0.00000E+000	-6.67764E-006	0.00000E+000	6.90274E-004	-3.27687E+002	7	...........
	280	281	3.53346E+000	-1.88939E-006	0.00000E+000	-6.67607E-006	0.00000E+000	6.91990E-004	-3.27687E+002	7	...........
	281	282	3.53347E+000	-1.88921E-006	0.00000E+000	-6.67545E-006	0.00000E+000	6.91824E-004	-3.27687E+002	7	...........
	282	283	3.53346E+000	-1.88938E-006	0.00000E+000	-6.67604E-006	0.00000E+000	6.86957E-004	-3.27687E+002	7	...........
	283	284	3.53347E+000	-1.89047E-006	0.00000E+000	-6.67992E-006	0.00000E+000	6.91340E-004	-3.27687E+002	7	...........
	284	285	3.53349E+000	-1.89019E-006	0.00000E+000	-6.67898E-006	0.00000E+000	6.90674E-004	-3.27687E+002	7	...........
	285	286	3.53350E+000	-1.89010E-006	0.00000E+000	-6.67865E-006	0.00000E+000	6.90657E-004	-3.27687E+002	7	...........
	286	287	3.53351E+000	-1.88972E-006	0.00000E+000	-6.67734E-006	0.00000E+000	6.89740E-004	-3.27687E+002	7	...........
	287	288	3.53350E+000	-1.88959E-006	0.00000E+000	-6.67688E-006	0.00000E+000	6.89040E-004	-3.27687E+002	7	...........
	288	289	3.53352E+000	-1.88958E-006	0.00000E+000	-6.67687E-006	0.00000E+000	6.88857E-004	-3.27687E+002	7	...........
	289	290	3.53353E+000	-1.88915E-006	0.00000E+000	-6.67537E-006	0.00000E+000	6.89657E-004	-3.27687E+002	7	...........
	290	291	3.53355E+000	-1.88929E-006	0.00000E+000	-6.67589E-006	0.00000E+000	6.93324E-004	-3.27687E+002	7	...........
	291	292	3.53354E+000	-1.88958E-006	0.00000E+000	-6.67693E-006	0.00000E+000	6.92507E-004	-3.27687E+002	7	...........
	292	293	3.53356E+000	-1.88960E-006	0.00000E+000	-6.67703E-006	0.00000E+000	6.91790E-004	-3.27687E+002	7	...........
	293	294	3.53357E+000	-1.88940E-006	0.00000E+000	-6.67631E-006	0.00000E+000	6.86340E-004	-3.27687E+002	7	...........
	294	295	3.53357E+000	-1.88914E-006	0.00000E+000	-6.67542E-006	0.00000E+000	6.94324E-004	-3.27687E+002	7	...........
	295	296	3.53357E+000	-1.88946E-006	0.00000E+000	-6.67656E-006	0.00000E+000	6.89107E-004	-3.27687E+002	7	...........
	296	297	3.53359E+000	-1.88967E-006	0.00000E+000	-6.67733E-006	0.00000E+000	6.91274E-004	-3.27687E+002	7	...........
	297	298	3.53359E+000	-1.89022E-006	0.00000E+000	-6.67928E-006	0.00000E+000	6.91874E-004	-3.27687E+002	7	...........
	298	299	3.53360E+000	-1.88944E-006	0.00000E+000	-6.67652E-006	0.00000E+000	6.91890E-004	-3.27687E+002	7	...........
	299	300	3.53361E+000	-1.88972E-006	0.00000E+000	-6.67754E-006	0.00000E+000	6.90924E-004	-3.27687E+002	7	...........
	300	301	3.53361E+000	-1.88913E-006	0.00000E+000	-6.67546E-006	0.00000E+000	6.92540E-004	-3.27687E+002	7	...........
	301	302	3.53362E+000	-1.88843E-006	0.00000E+000	-6.67300E-006	0.00000E+000	6.90174E-004	-3.27687E+002	7	...........
	302	303	3.53362E+000	-1.88900E-006	0.00000E+000	-6.67502E-006	0.00000E+000	6.93357E-004	-3.27687E+002	7	...........
	303	304	3.53363E+000	-1.88939E-006	0.00000E+000	-6.67640E-006	0.00000E+000	6.89240E-004	-3.27687E+002	7	...........
	304	305	3.53364E+000	-1.88989E-006	0.00000E+000	-6.67818E-006	0.00000E+000	6.89474E-004	-3.27687E+002	7	...........
	305	306	3.53365E+000	-1.88899E-006	0.00000E+000	-6.67501E-006	0.00000E+000	6.89257E-004	-3.27687E+002	7	...........
	306	307	3.53365E+000	-1.88927E-006	0.00000E+000	-6.67602E-006	0.00000E+000	6.89774E-004	-3.27687E+002	7	...........
	307	308	3.53366E+000	-1.88955E-006	0.00000E+000	-6.67704E-006	0.00000E+000	6.93224E-004	-3.27687E+002	7	...........
	308	309	3.53367E+000	-1.88948E-006	0.00000E+000	-6.67679E-006	0.00000E+000	6.91740E-004	-3.27687E+002	7	...........
	309	310	3.53368E+000	-1.88958E-006	0.00000E+000	-6.67716E-006	0.00000E+000	6.87657E-004	-3.27687E+002	7	...........
	310	311	3.53368E+000	-1.88995E-006	0.00000E+000	-6.67850E-006	0.00000E+000	6.89224E-004	-3.27687E+002	7	...........
	311	312	3.53369E+000	-1.88949E-006	0.00000E+000	-6.67686E-006	0.00000E+000	6.91374E-004	-3.27687E+002	7	...........
	312	313	3.53370E+000	-1.88921E-006	0.00000E+000	-6.67589E-006	0.00000E+000	6.90157E-004	-3.27687E+002	7	...........
	313	314	3.53370E+000	-1.88831E-006	0.00000E+000	-6.67271E-006	0.00000E+000	6.89474E-004	-3.27687E+002	7	...........
	314	315	3.53371E+000	-1.88894E-006	0.00000E+000	-6.67498E-006	0.00000E+000	6.89774E-004	-3.27687E+002	7	...........
	315	316	3.53371E+000	-1.89008E-006	0.00000E+000	-6.67901E-006	0.00000E+000	6.88757E-004	-3.27687E+002	7	...........
	316	317	3.53372E+000	-1.88904E-006	0.00000E+000	-6.67536E-006	0.00000E+000	6.93057E-004	-3.27687E+002	7	...........
	317	318	3.53374E+000	-1.88876E-006	0.00000E+000	-6.67439E-006	0.00000E+000	6.91640E-004	-3.27687E+002	7	...........
	318	319	3.53373E+000	-1.88892E-006	0.00000E+000	-6.67492E-006	0.00000E+000	6.90757E-004	-3.27687E+002	7	...........
	319	320	3.53375E+000	-1.88922E-006	0.00000E+000	-6.67603E-006	0.00000E+000	6.90057E-004	-3.27687E+002	7	...........
	320	321	3.53376E+000	-1.88930E-006	0.00000E+000	-6.67632E-006	0.00000E+000	6.92057E-004	-3.27687E+002	7	...........
	321	322	3.53376E+000	-1.88920E-006	0.00000E+000	-6.67598E-006	0.00000E+000	6.91940E-004	-3.27687E+002	7	...........
	322	323	3.53377E+000	-1.88972E-006	0.00000E+000	-6.67782E-006	0.00000E+000	6.89157E-004	-3.27687E+002	7	...........
	323	324	3.53377E+000	-1.88875E-006	0.00000E+000	-6.67439E-006	0.00000E+000	6.92490E-004	-3.27687E+002	7	...........
	324	325	3.53378E+000	-1.88890E-006	0.00000E+000	-6.67494E-006	0.00000E+000	6.89290E-004	-3.27687E+002	7	...........
	325	326	3.53378E+000	-1.88779E-006	0.00000E+000	-6.67105E-006	0.00000E+000	6.91307E-004	-3.27687E+002	7	...........
	326	327	3.53379E+000	-1.88842E-006	0.00000E+000	-6.67329E-006	0.00000E+000	6.94190E-004	-3.27687E+002	7	...........
	327	328	3.53380E+000	-1.88847E-006	0.00000E+000	-6.67346E-006	0.00000E+000	6.92257E-004	-3.27687E+002	7	...........
	328	329	3.53380E+000	-1.88838E-006	0.00000E+000	-6.67317E-006	0.00000E+000	6.94740E-004	-3.27687E+002	7	...........
	329	330	3.53381E+000	-1.88850E-006	0.00000E+000	-6.67359E-006	0.00000E+000	6.95790E-004	-3.27687E+002	7	...........
	330	331	3.53381E+000	-1.88857E-006	0.00000E+000	-6.67384E-006	0.00000E+000	6.96940E-004	-3.27687E+002	7	...........
	331	332	3.53382E+000	-1.88835E-006	0.00000E+000	-6.67309E-006	0.00000E+000	6.93674E-004	-3.27687E+002	7	...........
	332	333	3.53382E+000	-1.88896E-006	0.00000E+000	-6.67526E-006	0.00000E+000	6.93124E-004	-3.27687E+002	7	...........
	333	334	3.53382E+000	-1.88821E-006	0.00000E+000	-6.67260E-006	0.00000E+000	6.92440E-004	-3.27687E+002	7	...........
	334	335	3.53383E+000	-1.88866E-006	0.00000E+000	-6.67421E-006	0.00000E+000	6.91890E-004	-3.27687E+002	7	...........
	335	336	3.53384E+000	-1.88863E-006	0.00000E+000	-6.67412E-006	0.00000E+000	6.94357E-004	-3.27687E+002	7	...........
	336	337	3.53384E+000	-1.88814E-006	0.00000E+000	-6.67238E-006	0.00000E+000	6.93357E-004	-3.27687E+002	7	...........
	337	338	3.53385E+000	-1.88777E-006	0.00000E+000	-6.67109E-006	0.00000E+000	6.90590E-004	-3.27687E+002	7	...........
	338	339	3.53385E+000	-1.88827E-006	0.00000E+000	-6.67287E-006	0.00000E+000	6.94440E-004	-3.27687E+002	7	...........
	339	340	3.53386E+000	-1.88815E-006	0.00000E+000	-6.67246E-006	0.00000E+000	6.91707E-004	-3.27687E+002	7	...........
	340	341	3.53387E+000	-1.88784E-006	0.00000E+000	-6.67138E-006	0.00000E+000	6.91124E-004	-3.27687E+002	7	...........
	341	342	3.53386E+000	-1.88770E-006	0.00000E+000	-6.67088E-006	0.00000E+000	6.91307E-004	-3.27687E+002	7	...........
	342	343	3.53387E+000	-1.88781E-006	0.00000E+000	-6.67127E-006	0.00000E+000	6.91957E-004	-3.27687E+002	7	...........
	343	344	3.53388E+000	-1.88805E-006	0.00000E+000	-6.67214E-006	0.00000E+000	6.90524E-004	-3.27687E+002	7	...........
	344	345	3.53388E+000	-1.88876E-006	0.00000E+000	-6.67466E-006	0.00000E+000	6.91990E-004	-3.27687E+002	7	...........
	345	346	3.53389E+000	-1.88817E-006	0.00000E+000	-6.67260E-006	0.00000E+000	6.93540E-004	-3.27687E+002	7	...........
	346	347	3.53389E+000	-1.88843E-006	0.00000E+000	-6.67351E-006	0.00000E+000	6.90357E-004	-3.27687E+002	7	...........
	347	348	3.53390E+000	-1.88837E-006	0.00000E+000	-6.67332E-006	0.00000E+000	6.89190E-004	-3.27687E+002	7	...........
	348	349	3.53391E+000	-1.88743E-006	0.00000E+000	-6.67002E-006	0.00000E+000	6.90990E-004	-3.27687E+002	7	...........
	349	350	3.53391E+000	-1.88708E-006	0.00000E+000	-6.66876E-006	0.00000E+000	6.93857E-004	-3.27687E+002	7	...........
	350	351	3.53391E+000	-1.88771E-006	0.00000E+000	-6.67100E-006	0.00000E+000	6.90207E-004	-3.27687E+002	7	...........
	351	352	3.53392E+000	-1.88854E-006	0.00000E+000	-6.67395E-006	0.00000E+000	6.92157E-004	-3.27687E+002	7	...........
	352	353	3.53392E+000	-1.88788E-006	0.00000E+000	-6.67161E-006	0.00000E+000	6.92474E-004	-3.27687E+002	7	...........
	353	354	3.53393E+000	-1.88782E-006	0.00000E+000	-6.67143E-006	0.00000E+000	6.91457E-004	-3.27687E+002	7	...........
	354	355	3.53393E+000	-1.88731E-006	0.00000E+000	-6.66964E-006	0.00000E+000	6.95024E-004	-3.27687E+002	7	...........
	355	356	3.53394E+000	-1.88696E-006	0.00000E+000	-6.66840E-006	0.00000E+000	6.95957E-004	-3.27687E+002	7	...........
	356	357	3.53395E+000	-1.88739E-006	0.00000E+000	-6.66994E-006	0.00000E+000	6.93957E-004	-3.27687E+002	7	...........
	357	358	3.53395E+000	-1.88857E-006	0.00000E+000	-6.67411E-006	0.00000E+000	6.92807E-004	-3.27687E+002	7	...........
	358	359	3.53396E+000	-1.88866E-006	0.00000E+000	-6.67444E-006	0.00000E+000	6.90107E-004	-3.27687E+002	7	...........
	359	360	3.53396E+000	-1.88752E-006	0.00000E+000	-6.67042E-006	0.00000E+000	6.92590E-004	-3.27687E+002	7	...........
	360	361	3.53397E+000	-1.88759E-006	0.00000E+000	-6.67070E-006	0.00000E+000	6.91107E-004	-3.27687E+002	7	...........
	361	362	3.53397E+000	-1.88727E-006	0.00000E+000	-6.66957E-006	0.00000E+000	6.91424E-004	-3.27687E+002	7	...........
	362	363	3.53398E+000	-1.88743E-006	0.00000E+000	-6.67015E-006	0.00000E+000	6.90174E-004	-3.27687E+002	7	...........
	363	364	3.53398E+000	-1.88815E-006	0.00000E+000	-6.67270E-006	0.00000E+000	6.91240E-004	-3.27687E+002	7	...........
	364	365	3.53399E+000	-1.88841E-006	0.00000E+000	-6.67362E-006	0.00000E+000	6.91424E-004	-3.27687E+002	7	...........
	365	366	3.53400E+000	-1.88803E-006	0.00000E+000	-6.67229E-006	0.00000E+000	6.92824E-004	-3.27687E+002	7	...........
	366	367	3.53400E+000	-1.88787E-006	0.00000E+000	-6.67171E-006	0.00000E+000	6.93207E-004	-3.27687E+002	7	...........
	367	368	3.53401E+000	-1.88807E-006	0.00000E+000	-6.67247E-006	0.00000E+000	6.93440E-004	-3.27687E+002	7	...........
	368	369	3.53400E+000	-1.88743E-006	0.00000E+000	-6.67017E-006	0.00000E+000	6.91724E-004	-3.27687E+002	7	...........
	369	370	3.53401E+000	-1.88782E-006	0.00000E+000	-6.67158E-006	0.00000E+000	6.89840E-004	-3.27687E+002	7	...........
	370	371	3.53403E+000	-1.88772E-006	0.00000E+000	-6.67124E-006	0.00000E+000	6.94324E-004	-3.27687E+002	7	...........
	371	372	3.53402E+000	-1.88759E-006	0.00000E+000	-6.67079E-006	0.00000E+000	6.91590E-004	-3.27687E+002	7	...........
	372	373	3.53402E+000	-1.88783E-006	0.00000E+000	-6.67165E-006	0.00000E+000	6.93957E-004	-3.27687E+002	7	...........
	373	374	3.53403E+000	-1.88709E-006	0.00000E+000	-6.66903E-006	0.00000E+000	6.92140E-004	-3.27687E+002	7	...........
	374	375	3.53404E+000	-1.88760E-006	0.00000E+000	-6.67086E-006	0.00000E+000	6.94307E-004	-3.27687E+002	7	...........
	375	376	3.53404E+000	-1.88807E-006	0.00000E+000	-6.67253E-006	0.00000E+000	6.94890E-004	-3.27687E+002	7	...........
	376	377	3.53405E+000	-1.88833E-006	0.00000E+000	-6.67346E-006	0.00000E+000	6.90024E-004	-3.27687E+002	7	...........
	377	378	3.53405E+000	-1.88779E-006	0.00000E+000	-6.67154E-006	0.00000E+000	6.90524E-004	-3.27687E+002	7	...........
	378	379	3.53405E+000	-1.88794E-006	0.00000E+000	-6.67209E-006	0.00000E+000	6.91890E-004	-3.27687E+002	7	...........
	379	380	3.53407E+000	-1.88786E-006	0.00000E+000	-6.67181E-006	0.00000E+000	6.90624E-004	-3.27687E+002	7	...........
	380	381	3.53406E+000	-1.88804E-006	0.00000E+000	-6.67247E-006	0.00000E+000	6.90040E-004	-3.27687E+002	7	...........
	381	382	3.53407E+000	-1.88798E-006	0.00000E+000	-6.67227E-006	0.00000E+000	6.91840E-004	-3.27687E+002	7	...........
	382	383	3.53408E+000	-1.88766E-006	0.00000E+000	-6.67112E-006	0.00000E+000	6.89990E-004	-3.27687E+002	7	...........
	383	384	3.53409E+000	-1.88859E-006	0.00000E+000	-6.67442E-006	0.00000E+000	6.90657E-004	-3.27687E+002	7	...........
	384	385	3.53409E+000	-1.88786E-006	0.00000E+000	-6.67188E-006	0.00000E+000	6.92074E-004	-3.27687E+002	7	...........
	385	386	3.53410E+000	-1.88748E-006	0.00000E+000	-6.67055E-006	0.00000E+000	6.92240E-004	-3.27687E+002	7	...........
	386	387	3.53410E+000	-1.88801E-006	0.00000E+000	-6.67241E-006	0.00000E+000	6.93274E-004	-3.27687E+002	7	...........
	387	388	3.53411E+000	-1.88824E-006	0.00000E+000	-6.67327E-006	0.00000E+000	6.93624E-004	-3.27687E+002	7	...........
	388	389	3.53412E+000	-1.88821E-006	0.00000E+000	-6.67317E-006	0.00000E+000	6.94140E-004	-3.27687E+002	7	...........
	389	390	3.53414E+000	-1.88801E-006	0.00000E+000	-6.67248E-006	0.00000E+000	6.93690E-004	-3.27687E+002	7	...........
	390	391	3.53413E+000	-1.88790E-006	0.00000E+000	-6.67209E-006	0.00000E+000	6.91657E-004	-3.27687E+002	7	...........
	391	392	3.53413E+000	-1.88871E-006	0.00000E+000	-6.67496E-006	0.00000E+000	6.93624E-004	-3.27687E+002	7	...........
	392	393	3.53413E+000	-1.88870E-006	0.00000E+000	-6.67491E-006	0.00000E+000	6.91607E-004	-3.27687E+002	7	...........
	393	394	3.53415E+000	-1.88871E-006	0.00000E+000	-6.67499E-006	0.00000E+000	6.91740E-004	-3.27687E+002	7	...........
	394	395	3.53414E+000	-1.88852E-006	0.00000E+000	-6.67429E-006	0.00000E+000	6.91540E-004	-3.27687E+002	7	...........
	395	396	3.53416E+000	-1.88844E-006	0.00000E+000	-6.67405E-006	0.00000E+000	6.93207E-004	-3.27687E+002	7	...........
	396	397	3.53416E+000	-1.88829E-006	0.00000E+000	-6.67350E-006	0.00000E+000	6.93590E-004	-3.27687E+002	7	...........
	397	398	3.53416E+000	-1.88753E-006	0.00000E+000	-6.67086E-006	0.00000E+000	6.93090E-004	-3.27687E+002	7	...........
	398	399	3.53417E+000	-1.88765E-006	0.00000E+000	-6.67128E-006	0.00000E+000	6.92674E-004	-3.27687E+002	7	...........
	399	400	3.53418E+000	-1.88794E-006	0.00000E+000	-6.67232E-006	0.00000E+000	6.92990E-004	-3.27687E+002	7	...........
	400	401	3.53419E+000	-1.88810E-006	0.00000E+000	-6.67290E-006	0.00000E+000	6.92490E-004	-3.27687E+002	7	...........
	401	402	3.53420E+000	-1.88770E-006	0.00000E+000	-6.67151E-006	0.00000E+000	6.89090E-004	-3.27687E+002	7	...........
	402	403	3.53420E+000	-1.88771E-006	0.00000E+000	-6.67153E-006	0.00000E+000	6.91474E-004	-3.27687E+002	7	...........
	403	404	3.53420E+000	-1.88770E-006	0.00000E+000	-6.67151E-006	0.00000E+000	6.91340E-004	-3.27687E+002	7	...........
	404	405	3.53421E+000	-1.88838E-006	0.00000E+000	-6.67394E-006	0.00000E+000	6.89357E-004	-3.27687E+002	7	...........
	405	406	3.53422E+000	-1.88832E-006	0.00000E+000	-6.67374E-006	0.00000E+000	6.91857E-004	-3.27687E+002	7	...........
	406	407	3.53423E+000	-1.88873E-006	0.00000E+000	-6.67520E-006	0.00000E+000	6.92940E-004	-3.27687E+002	7	...........
	407	408	3.53422E+000	-1.88871E-006	0.00000E+000	-6.67511E-006	0.00000E+000	6.92040E-004	-3.27687E+002	7	...........
	408	409	3.53423E+000	-1.88863E-006	0.00000E+000	-6.67485E-006	0.00000E+000	6.92190E-004	-3.27687E+002	7	...........
	409	410	3.53424E+000	-1.88762E-006	0.00000E+000	-6.67129E-006	0.00000E+000	6.90424E-004	-3.27687E+002	7	...........
	410	411	3.53423E+000	-1.88759E-006	0.00000E+000	-6.67118E-006	0.00000E+000	6.90540E-004	-3.27687E+002	7	...........
	411	412	3.53424E+000	-1.88879E-006	0.00000E+000	-6.67543E-006	0.00000E+000	6.89607E-004	-3.27687E+002	7	...........
	412	413	3.53424E+000	-1.88808E-006	0.00000E+000	-6.67292E-006	0.00000E+000	6.91840E-004	-3.27687E+002	7	...........
	413	414	3.53425E+000	-1.88779E-006	0.00000E+000	-6.67194E-006	0.00000E+000	6.91990E-004	-3.27687E+002	7	...........
	414	415	3.53427E+000	-1.88780E-006	0.00000E+000	-6.67201E-006	0.00000E+000	6.92207E-004	-3.27687E+002	7	...........
	415	416	3.53427E+000	-1.88783E-006	0.00000E+000	-6.67211E-006	0.00000E+000	6.90007E-004	-3.27687E+002	7	...........
	416	417	3.53428E+000	-1.88806E-006	0.00000E+000	-6.67292E-006	0.00000E+000	6.92624E-004	-3.27687E+002	7	...........
	417	418	3.53428E+000	-1.88868E-006	0.00000E+000	-6.67511E-006	0.00000E+000	6.90374E-004	-3.27687E+002	7	...........
	418	419	3.53430E+000	-1.88813E-006	0.00000E+000	-6.67322E-006	0.00000E+000	6.91857E-004	-3.27687E+002	7	...........
	419	420	3.53430E+000	-1.88831E-006	0.00000E+000	-6.67385E-006	0.00000E+000	6.92640E-004	-3.27687E+002	7	...........
	420	421	3.53430E+000	-1.88820E-006	0.00000E+000	-6.67346E-006	0.00000E+000	6.91490E-004	-3.27687E+002	7	...........
	421	422	3.53430E+000	-1.88742E-006	0.00000E+000	-6.67069E-006	0.00000E+000	6.89757E-004	-3.27687E+002	7	...........
	422	423	3.53431E+000	-1.88757E-006	0.00000E+000	-6.67126E-006	0.00000E+000	6.88174E-004	-3.27687E+002	7	...........
	423	424	3.53432E+000	-1.88763E-006	0.00000E+000	-6.67150E-006	0.00000E+000	6.90974E-004	-3.27687E+002	7	...........
	424	425	3.53433E+000	-1.88740E-006	0.00000E+000	-6.67068E-006	0.00000E+000	6.89590E-004	-3.27687E+002	7	...........
	425	426	3.53433E+000	-1.88702E-006	0.00000E+000	-6.66936E-006	0.00000E+000	6.87874E-004	-3.27687E+002	7	...........
	426	427	3.53433E+000	-1.88701E-006	0.00000E+000	-6.66933E-006	0.00000E+000	6.89107E-004	-3.27687E+002	7	...........
	427	428	3.53433E+000	-1.88781E-006	0.00000E+000	-6.67215E-006	0.00000E+000	6.90190E-004	-3.27687E+002	7	...........
	428	429	3.53434E+000	-1.88787E-006	0.00000E+000	-6.67237E-006	0.00000E+000	6.91440E-004	-3.27687E+002	7	...........
	429	430	3.53435E+000	-1.88743E-006	0.00000E+000	-6.67082E-006	0.00000E+000	6.90957E-004	-3.27687E+002	7	...........
	430	431	3.53434E+000	-1.88736E-006	0.00000E+000	-6.67059E-006	0.00000E+000	6.92224E-004	-3.27687E+002	7	...........
	431	432	3.53435E+000	-1.88813E-006	0.00000E+000	-6.67330E-006	0.00000E+000	6.88090E-004	-3.27687E+002	7	...........
	432	433	3.53436E+000	-1.88726E-006	0.00000E+000	-6.67023E-006	0.00000E+000	6.91890E-004	-3.27687E+002	7	...........
	433	434	3.53436E+000	-1.88696E-006	0.00000E+000	-6.66919E-006	0.00000E+000	6.90974E-004	-3.27687E+002	7	...........
	434	435	3.53438E+000	-1.88666E-006	0.00000E+000	-6.66818E-006	0.00000E+000	6.89674E-004	-3.27687E+002	7	...........
	435	436	3.53438E+000	-1.88772E-006	0.00000E+000	-6.67193E-006	0.00000E+000	6.89174E-004	-3.27687E+002	7	...........
	436	437	3.53439E+000	-1.88776E-006	0.00000E+000	-6.67207E-006	0.00000E+000	6.87790E-004	-3.27687E+002	7	...........
	437	438	3.53439E+000	-1.88784E-006	0.00000E+000	-6.67235E-006	0.00000E+000	6.88090E-004	-3.27687E+002	7	...........
	438	439	3.53440E+000	-1.88764E-006	0.00000E+000	-6.67166E-006	0.00000E+000	6.88240E-004	-3.27687E+002	7	...........
	439	440	3.53441E+000	-1.88747E-006	0.00000E+000	-6.67110E-006	0.00000E+000	6.89690E-004	-3.27687E+002	7	...........
	440	441	3.53442E+000	-1.88728E-006	0.00000E+000	-6.67042E-006	0.00000E+000	6.90157E-004	-3.27687E+002	7	...........
	441	442	3.53442E+000	-1.88759E-006	0.00000E+000	-6.67154E-006	0.00000E+000	6.89690E-004	-3.27687E+002	7	...........
	442	443	3.53443E+000	-1.88692E-006	0.00000E+000	-6.66919E-006	0.00000E+000	6.87757E-004	-3.27687E+002	7	...........
	443	444	3.53443E+000	-1.88773E-006	0.00000E+000	-6.67204E-006	0.00000E+000	6.87774E-004	-3.27687E+002	7	...........
	444	445	3.53443E+000	-1.88726E-006	0.00000E+000	-6.67038E-006	0.00000E+000	6.89990E-004	-3.27687E+002	7	...........
	445	446	3.53445E+000	-1.88711E-006	0.00000E+000	-6.66990E-006	0.00000E+000	6.88924E-004	-3.27687E+002	7	...........
	446	447	3.53445E+000	-1.88720E-006	0.00000E+000	-6.67021E-006	0.00000E+000	6.86274E-004	-3.27687E+002	7	...........
	447	448	3.53445E+000	-1.88753E-006	0.00000E+000	-6.67138E-006	0.00000E+000	6.89424E-004	-3.27687E+002	7	...........
	448	449	3.53445E+000	-1.88757E-006	0.00000E+000	-6.67151E-006	0.00000E+000	6.86057E-004	-3.27687E+002	7	...........
	449	450	3.53446E+000	-1.88684E-006	0.00000E+000	-6.66898E-006	0.00000E+000	6.89257E-004	-3.27687E+002	7	...........
	450	451	3.53446E+000	-1.88779E-006	0.00000E+000	-6.67230E-006	0.00000E+000	6.89440E-004	-3.27687E+002	7	...........
	451	452	3.53449E+000	-1.88763E-006	0.00000E+000	-6.67180E-006	0.00000E+000	6.88657E-004	-3.27687E+002	7	...........
	452	453	3.53448E+000	-1.88774E-006	0.00000E+000	-6.67219E-006	0.00000E+000	6.90290E-004	-3.27687E+002	7	...........
	453	454	3.53449E+000	-1.88852E-006	0.00000E+000	-6.67496E-006	0.00000E+000	6.86457E-004	-3.27687E+002	7	...........
	454	455	3.53450E+000	-1.88805E-006	0.00000E+000	-6.67333E-006	0.00000E+000	6.89007E-004	-3.27687E+002	7	...........
	455	456	3.53450E+000	-1.88873E-006	0.00000E+000	-6.67573E-006	0.00000E+000	6.88974E-004	-3.27687E+002	7	...........
	456	457	3.53452E+000	-1.88801E-006	0.00000E+000	-6.67319E-006	0.00000E+000	6.89024E-004	-3.27687E+002	7	...........
	457	458	3.53452E+000	-1.88743E-006	0.00000E+000	-6.67116E-006	0.00000E+000	6.88874E-004	-3.27687E+002	7	...........
	458	459	3.53453E+000	-1.88761E-006	0.00000E+000	-6.67181E-006	0.00000E+000	6.88140E-004	-3.27687E+002	7	...........
	459	460	3.53453E+000	-1.88816E-006	0.00000E+000	-6.67376E-006	0.00000E+000	6.84824E-004	-3.27687E+002	7	...........
	460	461	3.53453E+000	-1.88754E-006	0.00000E+000	-6.67156E-006	0.00000E+000	6.91190E-004	-3.27687E+002	7	...........
	461	462	3.53454E+000	-1.88745E-006	0.00000E+000	-6.67124E-006	0.00000E+000	6.86457E-004	-3.27687E+002	7	...........
	462	463	3.53454E+000	-1.88768E-006	0.00000E+000	-6.67208E-006	0.00000E+000	6.89257E-004	-3.27687E+002	7	...........
	463	464	3.53454E+000	-1.88737E-006	0.00000E+000	-6.67099E-006	0.00000E+000	6.86274E-004	-3.27687E+002	7	...........
	464	465	3.53456E+000	-1.88729E-006	0.00000E+000	-6.67075E-006	0.00000E+000	6.87657E-004	-3.27687E+002	7	...........
	465	466	3.53456E+000	-1.88797E-006	0.00000E+000	-6.67316E-006	0.00000E+000	6.87307E-004	-3.27687E+002	7	...........
	466	467	3.53456E+000	-1.88833E-006	0.00000E+000	-6.67442E-006	0.00000E+000	6.87224E-004	-3.27687E+002	7	...........
	467	468	3.53457E+000	-1.88851E-006	0.00000E+000	-6.67505E-006	0.00000E+000	6.88624E-004	-3.27687E+002	7	...........
	468	469	3.53458E+000	-1.88773E-006	0.00000E+000	-6.67234E-006	0.00000E+000	6.89507E-004	-3.27687E+002	7	...........
	469	470	3.53458E+000	-1.88740E-006	0.00000E+000	-6.67114E-006	0.00000E+000	6.87824E-004	-3.27687E+002	7	...........
	470	471	3.53459E+000	-1.88697E-006	0.00000E+000	-6.66966E-006	0.00000E+000	6.85874E-004	-3.27687E+002	7	...........
	471	472	3.53459E+000	-1.88715E-006	0.00000E+000	-6.67031E-006	0.00000E+000	6.88874E-004	-3.27687E+002	7	...........
	472	473	3.53458E+000	-1.88725E-006	0.00000E+000	-6.67065E-006	0.00000E+000	6.88990E-004	-3.27687E+002	7	...........
	473	474	3.53460E+000	-1.88772E-006	0.00000E+000	-6.67234E-006	0.00000E+000	6.89557E-004	-3.27687E+002	7	...........
	474	475	3.53461E+000	-1.88742E-006	0.00000E+000	-6.67128E-006	0.00000E+000	6.89207E-004	-3.27687E+002	7	...........
	475	476	3.53462E+000	-1.88734E-006	0.00000E+000	-6.67102E-006	0.00000E+000	6.89657E-004	-3.27687E+002	7	...........
	476	477	3.53462E+000	-1.88781E-006	0.00000E+000	-6.67269E-006	0.00000E+000	6.85407E-004	-3.27687E+002	7	...........
	477	478	3.53463E+000	-1.88767E-006	0.00000E+000	-6.67222E-006	0.00000E+000	6.85957E-004	-3.27687E+002	7	...........
	478	479	3.53464E+000	-1.88701E-006	0.00000E+000	-6.66991E-006	0.00000E+000	6.88224E-004	-3.27687E+002	7	...........
	479	480	3.53465E+000	-1.88765E-006	0.00000E+000	-6.67218E-006	0.00000E+000	6.88707E-004	-3.27687E+002	7	...........
	480	481	3.53464E+000	-1.88709E-006	0.00000E+000	-6.67018E-006	0.00000E+000	6.89807E-004	-3.27687E+002	7	...........
	481	482	3.53465E+000	-1.88685E-006	0.00000E+000	-6.66936E-006	0.00000E+000	6.84674E-004	-3.27687E+002	7	...........
	482	483	3.53466E+000	-1.88640E-006	0.00000E+000	-6.66780E-006	0.00000E+000	6.85824E-004	-3.27687E+002	7	...........
	483	484	3.53465E+000	-1.88755E-006	0.00000E+000	-6.67185E-006	0.00000E+000	6.86274E-004	-3.27687E+002	7	...........
	484	485	3.53467E+000	-1.88741E-006	0.00000E+000	-6.67136E-006	0.00000E+000	6.87007E-004	-3.27687E+002	7	...........
	485	486	3.53468E+000	-1.88722E-006	0.00000E+000	-6.67069E-006	0.00000E+000	6.89157E-004	-3.27687E+002	7	...........
	486	487	3.53468E+000	-1.88733E-006	0.00000E+000	-6.67112E-006	0.00000E+000	6.86740E-004	-3.27687E+002	7	...........
	487	488	3.53470E+000	-1.88771E-006	0.00000E+000	-6.67247E-006	0.00000E+000	6.88540E-004	-3.27687E+002	7	...........
	488	489	3.53469E+000	-1.88726E-006	0.00000E+000	-6.67088E-006	0.00000E+000	6.85807E-004	-3.27687E+002	7	...........
	489	490	3.53470E+000	-1.88814E-006	0.00000E+000	-6.67400E-006	0.00000E+000	6.87557E-004	-3.27687E+002	7	...........
	490	491	3.53470E+000	-1.88797E-006	0.00000E+000	-6.67340E-006	0.00000E+000	6.86757E-004	-3.27687E+002	7	...........
	491	492	3.53472E+000	-1.88710E-006	0.00000E+000	-6.67036E-006	0.00000E+000	6.86674E-004	-3.27687E+002	7	...........
	492	493	3.53472E+000	-1.88766E-006	0.00000E+000	-6.67233E-006	0.00000E+000	6.87007E-004	-3.27687E+002	7	...........
	493	494	3.53472E+000	-1.88654E-006	0.00000E+000	-6.66839E-006	0.00000E+000	6.87807E-004	-3.27687E+002	7	...........
	494	495	3.53473E+000	-1.88670E-006	0.00000E+000	-6.66899E-006	0.00000E+000	6.87140E-004	-3.27687E+002	7	...........
	495	496	3.53472E+000	-1.88709E-006	0.00000E+000	-6.67036E-006	0.00000E+000	6.89490E-004	-3.27687E+002	7	...........
	496	497	3.53475E+000	-1.88697E-006	0.00000E+000	-6.66998E-006	0.00000E+000	6.88007E-004	-3.27687E+002	7	...........
	497	498	3.53476E+000	-1.88682E-006	0.00000E+000	-6.66947E-006	0.00000E+000	6.87424E-004	-3.27687E+002	7	...........
	498	499	3.53476E+000	-1.88701E-006	0.00000E+000	-6.67014E-006	0.00000E+000	6.87357E-004	-3.27687E+002	7	...........
	499	500	3.53476E+000	-1.88726E-006	0.00000E+000	-6.67102E-006	0.00000E+000	6.85107E-004	-3.27687E+002	7	...........
	500	501	3.53477E+000	-1.88739E-006	0.00000E+000	-6.67147E-006	0.00000E+000	6.86057E-004	-3.27687E+002	7	...........
	501	502	3.53476E+000	-1.88772E-006	0.00000E+000	-6.67264E-006	0.00000E+000	6.87490E-004	-3.27687E+002	7	...........
	502	503	3.53477E+000	-1.88713E-006	0.00000E+000	-6.67059E-006	0.00000E+000	6.88040E-004	-3.27687E+002	7	...........
	503	504	3.53477E+000	-1.88689E-006	0.00000E+000	-6.66971E-006	0.00000E+000	6.87724E-004	-3.27687E+002	7	...........
	504	505	3.53478E+000	-1.88771E-006	0.00000E+000	-6.67266E-006	0.00000E+000	6.87307E-004	-3.27687E+002	7	...........
	505	506	3.53479E+000	-1.88657E-006	0.00000E+000	-6.66863E-006	0.00000E+000	6.86090E-004	-3.27687E+002	7	...........
	506	507	3.53479E+000	-1.88566E-006	0.00000E+000	-6.66542E-006	0.00000E+000	6.86540E-004	-3.27687E+002	7	...........
	507	508	3.53481E+000	-1.88668E-006	0.00000E+000	-6.66904E-006	0.00000E+000	6.88157E-004	-3.27687E+002	7	...........
	508	509	3.53481E+000	-1.88784E-006	0.00000E+000	-6.67314E-006	0.00000E+000	6.88290E-004	-3.27687E+002	7	...........
	509	510	3.53482E+000	-1.88750E-006	0.00000E+000	-6.67198E-006	0.00000E+000	6.85124E-004	-3.27687E+002	7	...........
	510	511	3.53482E+000	-1.88774E-006	0.00000E+000	-6.67283E-006	0.00000E+000	6.85740E-004	-3.27687E+002	7	...........
	511	512	3.53482E+000	-1.88804E-006	0.00000E+000	-6.67387E-006	0.00000E+000	6.87540E-004	-3.27687E+002	7	...........
	512	513	3.53484E+000	-1.88704E-006	0.00000E+000	-6.67037E-006	0.00000E+000	6.88507E-004	-3.27687E+002	7	...........
	513	514	3.53485E+000	-1.88746E-006	0.00000E+000	-6.67188E-006	0.00000E+000	6.86924E-004	-3.27687E+002	7	...........
	514	515	3.53485E+000	-1.88785E-006	0.00000E+000	-6.67327E-006	0.00000E+000	6.86640E-004	-3.27687E+002	7	...........
	515	516	3.53485E+000	-1.88707E-006	0.00000E+000	-6.67051E-006	0.00000E+000	6.84207E-004	-3.27687E+002	7	...........
	516	517	3.53487E+000	-1.88794E-006	0.00000E+000	-6.67363E-006	0.00000E+000	6.85174E-004	-3.27687E+002	7	...........
	517	518	3.53487E+000	-1.88781E-006	0.00000E+000	-6.67317E-006	0.00000E+000	6.86807E-004	-3.27687E+002	7	...........
	518	519	3.53488E+000	-1.88677E-006	0.00000E+000	-6.66950E-006	0.00000E+000	6.82507E-004	-3.27687E+002	7	...........
	519	520	3.53487E+000	-1.88728E-006	0.00000E+000	-6.67129E-006	0.00000E+000	6.83824E-004	-3.27687E+002	7	...........
	520	521	3.53488E+000	-1.88736E-006	0.00000E+000	-6.67157E-006	0.00000E+000	6.86190E-004	-3.27687E+002	7	...........
	521	522	3.53488E+000	-1.88658E-006	0.00000E+000	-6.66882E-006	0.00000E+000	6.88257E-004	-3.27687E+002	7	...........
	522	523	3.53490E+000	-1.88667E-006	0.00000E+000	-6.66920E-006	0.00000E+000	6.85540E-004	-3.27687E+002	7	...........
	523	524	3.53490E+000	-1.88705E-006	0.00000E+000	-6.67053E-006	0.00000E+000	6.86824E-004	-3.27687E+002	7	...........
	524	525	3.53490E+000	-1.88722E-006	0.00000E+000	-6.67114E-006	0.00000E+000	6.87124E-004	-3.27687E+002	7	...........
	525	526	3.53492E+000	-1.88702E-006	0.00000E+000	-6.67046E-006	0.00000E+000	6.88707E-004	-3.27687E+002	7	...........
	526	527	3.53490E+000	-1.88696E-006	0.00000E+000	-6.67023E-006	0.00000E+000	6.86724E-004	-3.27687E+002	7	...........
	527	528	3.53492E+000	-1.88718E-006	0.00000E+000	-6.67104E-006	0.00000E+000	6.88640E-004	-3.27687E+002	7	...........
	528	529	3.53492E+000	-1.88698E-006	0.00000E+000	-6.67034E-006	0.00000E+000	6.86974E-004	-3.27687E+002	7	...........
	529	530	3.53494E+000	-1.88706E-006	0.00000E+000	-6.67066E-006	0.00000E+000	6.87824E-004	-3.27687E+002	7	...........
	530	531	3.53494E+000	-1.88600E-006	0.00000E+000	-6.66688E-006	0.00000E+000	6.85840E-004	-3.27687E+002	7	...........
	531	532	3.53494E+000	-1.88660E-006	0.00000E+000	-6.66902E-006	0.00000E+000	6.86307E-004	-3.27687E+002	7	...........
	532	533	3.53494E+000	-1.88730E-006	0.00000E+000	-6.67149E-006	0.00000E+000	6.89190E-004	-3.27687E+002	7	...........
	533	534	3.53495E+000	-1.88641E-006	0.00000E+000	-6.66836E-006	0.00000E+000	6.87490E-004	-3.27687E+002	7	...........
	534	535	3.53496E+000	-1.88627E-006	0.00000E+000	-6.66788E-006	0.00000E+000	6.86874E-004	-3.27687E+002	7	...........
	535	536	3.53496E+000	-1.88650E-006	0.00000E+000	-6.66871E-006	0.00000E+000	6.85940E-004	-3.27687E+002	7	...........
	536	537	3.53496E+000	-1.88657E-006	0.00000E+000	-6.66895E-006	0.00000E+000	6.84940E-004	-3.27687E+002	7	...........
	537	538	3.53497E+000	-1.88684E-006	0.00000E+000	-6.66992E-006	0.00000E+000	6.86274E-004	-3.27687E+002	7	...........
	538	539	3.53497E+000	-1.88650E-006	0.00000E+000	-6.66873E-006	0.00000E+000	6.83574E-004	-3.27687E+002	7	...........
	539	540	3.53498E+000	-1.88655E-006	0.00000E+000	-6.66891E-006	0.00000E+000	6.86690E-004	-3.27687E+002	7	...........
	540	541	3.53499E+000	-1.88665E-006	0.00000E+000	-6.66928E-006	0.00000E+000	6.86090E-004	-3.27687E+002	7	...........
	541	542	3.53499E+000	-1.88598E-006	0.00000E+000	-6.66691E-006	0.00000E+000	6.86207E-004	-3.27687E+002	7	...........
	542	543	3.53499E+000	-1.88468E-006	0.00000E+000	-6.66233E-006	0.00000E+000	6.87824E-004	-3.27687E+002	7	...........
	543	544	3.53500E+000	-1.88603E-006	0.00000E+000	-6.66712E-006	0.00000E+000	6.88057E-004	-3.27687E+002	7	...........
	544	545	3.53501E+000	-1.88600E-006	0.00000E+000	-6.66701E-006	0.00000E+000	6.87624E-004	-3.27687E+002	7	...........
	545	546	3.53501E+000	-1.88586E-006	0.00000E+000	-6.66652E-006	0.00000E+000	6.86190E-004	-3.27687E+002	7	...........
	546	547	3.53501E+000	-1.88525E-006	0.00000E+000	-6.66439E-006	0.00000E+000	6.85440E-004	-3.27687E+002	7	...........
	547	548	3.53501E+000	-1.88587E-006	0.00000E+000	-6.66656E-006	0.00000E+000	6.87424E-004	-3.27687E+002	7	...........
	548	549	3.53503E+000	-1.88653E-006	0.00000E+000	-6.66893E-006	0.00000E+000	6.86474E-004	-3.27687E+002	7	...........
	549	550	3.53503E+000	-1.88641E-006	0.00000E+000	-6.66852E-006	0.00000E+000	6.87357E-004	-3.27687E+002	7	...........
	550	551	3.53504E+000	-1.88652E-006	0.00000E+000	-6.66893E-006	0.00000E+000	6.86940E-004	-3.27687E+002	7	...........
	551	552	3.53504E+000	-1.88693E-006	0.00000E+000	-6.67036E-006	0.00000E+000	6.88174E-004	-3.27687E+002	7	...........
	552	553	3.53505E+000	-1.88661E-006	0.00000E+000	-6.66926E-006	0.00000E+000	6.88224E-004	-3.27687E+002	7	...........
	553	554	3.53504E+000	-1.88608E-006	0.00000E+000	-6.66738E-006	0.00000E+000	6.85574E-004	-3.27687E+002	7	...........
	554	555	3.53504E+000	-1.88532E-006	0.00000E+000	-6.66468E-006	0.00000E+000	6.87607E-004	-3.27687E+002	7	...........
	555	556	3.53504E+000	-1.88626E-006	0.00000E+000	-6.66801E-006	0.00000E+000	6.86940E-004	-3.27687E+002	7	...........
	556	557	3.53506E+000	-1.88624E-006	0.00000E+000	-6.66798E-006	0.00000E+000	6.92174E-004	-3.27687E+002	7	...........
	557	558	3.53507E+000	-1.88639E-006	0.00000E+000	-6.66851E-006	0.00000E+000	6.87474E-004	-3.27687E+002	7	...........
	558	559	3.53506E+000	-1.88668E-006	0.00000E+000	-6.66954E-006	0.00000E+000	6.85490E-004	-3.27687E+002	7	...........
	559	560	3.53506E+000	-1.88719E-006	0.00000E+000	-6.67132E-006	0.00000E+000	6.86624E-004	-3.27687E+002	7	...........
	560	561	3.53508E+000	-1.88659E-006	0.00000E+000	-6.66926E-006	0.00000E+000	6.88574E-004	-3.27687E+002	7	...........
	561	562	3.53508E+000	-1.88651E-006	0.00000E+000	-6.66896E-006	0.00000E+000	6.88357E-004	-3.27687E+002	7	...........
	562	563	3.53508E+000	-1.88658E-006	0.00000E+000	-6.66921E-006	0.00000E+000	6.86607E-004	-3.27687E+002	7	...........
	563	564	3.53509E+000	-1.88717E-006	0.00000E+000	-6.67133E-006	0.00000E+000	6.86390E-004	-3.27687E+002	7	...........
	564	565	3.53509E+000	-1.88663E-006	0.00000E+000	-6.66940E-006	0.00000E+000	6.87374E-004	-3.27687E+002	7	...........
	565	566	3.53510E+000	-1.88647E-006	0.00000E+000	-6.66887E-006	0.00000E+000	6.88290E-004	-3.27687E+002	7	...........
	566	567	3.53510E+000	-1.88541E-006	0.00000E+000	-6.66513E-006	0.00000E+000	6.87824E-004	-3.27687E+002	7	...........
	567	568	3.53511E+000	-1.88657E-006	0.00000E+000	-6.66922E-006	0.00000E+000	6.89107E-004	-3.27687E+002	7	...........
	568	569	3.53511E+000	-1.88704E-006	0.00000E+000	-6.67091E-006	0.00000E+000	6.88824E-004	-3.27687E+002	7	...........
	569	570	3.53511E+000	-1.88620E-006	0.00000E+000	-6.66795E-006	0.00000E+000	6.87440E-004	-3.27687E+002	7	...........
	570	571	3.53512E+000	-1.88625E-006	0.00000E+000	-6.66811E-006	0.00000E+000	6.86107E-004	-3.27687E+002	7	...........
	571	572	3.53513E+000	-1.88573E-006	0.00000E+000	-6.66630E-006	0.00000E+000	6.86924E-004	-3.27687E+002	7	...........
	572	573	3.53513E+000	-1.88646E-006	0.00000E+000	-6.66887E-006	0.00000E+000	6.87907E-004	-3.27687E+002	7	...........
	573	574	3.53514E+000	-1.88637E-006	0.00000E+000	-6.66859E-006	0.00000E+000	6.88707E-004	-3.27687E+002	7	...........
	574	575	3.53515E+000	-1.88627E-006	0.00000E+000	-6.66826E-006	0.00000E+000	6.86124E-004	-3.27687E+002	7	...........
	575	576	3.53515E+000	-1.88604E-006	0.00000E+000	-6.66744E-006	0.00000E+000	6.89374E-004	-3.27687E+002	7	...........
	576	577	3.53516E+000	-1.88608E-006	0.00000E+000	-6.66760E-006	0.00000E+000	6.89207E-004	-3.27687E+002	7	...........
	577	578	3.53516E+000	-1.88625E-006	0.00000E+000	-6.66820E-006	0.00000E+000	6.90840E-004	-3.27687E+002	7	...........
	578	579	3.53517E+000	-1.88536E-006	0.00000E+000	-6.66507E-006	0.00000E+000	6.84724E-004	-3.27687E+002	7	...........
	579	580	3.53518E+000	-1.88572E-006	0.00000E+000	-6.66636E-006	0.00000E+000	6.89890E-004	-3.27687E+002	7	...........
	580	581	3.53517E+000	-1.88596E-006	0.00000E+000	-6.66718E-006	0.00000E+000	6.90774E-004	-3.27687E+002	7	...........
	581	582	3.53518E+000	-1.88611E-006	0.00000E+000	-6.66776E-006	0.00000E+000	6.85907E-004	-3.27687E+002	7	...........
	582	583	3.53519E+000	-1.88568E-006	0.00000E+000	-6.66622E-006	0.00000E+000	6.88107E-004	-3.27687E+002	7	...........
	583	584	3.53519E+000	-1.88638E-006	0.00000E+000	-6.66870E-006	0.00000E+000	6.86874E-004	-3.27687E+002	7	...........
	584	585	3.53519E+000	-1.88653E-006	0.00000E+000	-6.66924E-006	0.00000E+000	6.89774E-004	-3.27687E+002	7	...........
	585	586	3.53520E+000	-1.88680E-006	0.00000E+000	-6.67020E-006	0.00000E+000	6.88974E-004	-3.27687E+002	7	...........
	586	587	3.53520E+000	-1.88724E-006	0.00000E+000	-6.67178E-006	0.00000E+000	6.89340E-004	-3.27687E+002	7	...........
	587	588	3.53520E+000	-1.88647E-006	0.00000E+000	-6.66904E-006	0.00000E+000	6.86824E-004	-3.27687E+002	7	...........
	588	589	3.53519E+000	-1.88604E-006	0.00000E+000	-6.66752E-006	0.00000E+000	6.88924E-004	-3.27687E+002	7	...........
	589	590	3.53521E+000	-1.88649E-006	0.00000E+000	-6.66913E-006	0.00000E+000	6.91757E-004	-3.27687E+002	7	...........
	590	591	3.53521E+000	-1.88566E-006	0.00000E+000	-6.66618E-006	0.00000E+000	6.88657E-004	-3.27687E+002	7	...........
	591	592	3.53521E+000	-1.88609E-006	0.00000E+000	-6.66774E-006	0.00000E+000	6.88324E-004	-3.27687E+002	7	...........
	592	593	3.53521E+000	-1.88658E-006	0.00000E+000	-6.66946E-006	0.00000E+000	6.89274E-004	-3.27687E+002	7	...........
	593	594	3.53522E+000	-1.88631E-006	0.00000E+000	-6.66853E-006	0.00000E+000	6.88840E-004	-3.27687E+002	7	...........
	594	595	3.53523E+000	-1.88574E-006	0.00000E+000	-6.66653E-006	0.00000E+000	6.89474E-004	-3.27687E+002	7	...........
	595	596	3.53522E+000	-1.88541E-006	0.00000E+000	-6.66533E-006	0.00000E+000	6.87990E-004	-3.27687E+002	7	...........
	596	597	3.53523E+000	-1.88614E-006	0.00000E+000	-6.66793E-006	0.00000E+000	6.89124E-004	-3.27687E+002	7	...........
	597	598	3.53523E+000	-1.88601E-006	0.00000E+000	-6.66749E-006	0.00000E+000	6.87740E-004	-3.27687E+002	7	...........
	598	599	3.53523E+000	-1.88631E-006	0.00000E+000	-6.66854E-006	0.00000E+000	6.89490E-004	-3.27687E+002	7	...........
	599	600	3.53523E+000	-1.88673E-006	0.00000E+000	-6.67004E-006	0.00000E+000	6.86807E-004	-3.27687E+002	7	...........
