EXPLAIN
TAG	PWR800_READVOLTAGE
TITLE	LABEL	PWR Read Voltage	Test Identifier
DATE	LABEL	22.6.2024	Date
TIME	LABEL	5:33:47	Time
NOTES	NOTES	1	Notes...
	
PSTAT	PSTAT	REF600-12055	Potentiostat
CAPACITY	QUANT	1.00000E+000	Capacity (A-hr)
CELLTYPE	SELECTOR	1	Cell Type
WORKINGCONNECTION	SELECTOR	0	Working Connection
MAXTIME	VARIABLEANDUNITS	6.00000E+002	s	6.00000E+002	second(s)	Max Time
SAMPLETIME	QUANT	1.00000E+000	Sample Period (s)
STOPAT1	MULTIPARAM	0	0.00000E+000	Stop At 1	None	N/A
STOPAT2	MULTIPARAM	0	0.00000E+000	Stop At 2	None	N/A
AESBHCSELECTOR	TOGGLE	F	Save Both Half Cells
EOC	QUANT	3.858598	Open Circuit (V)
SEQUENCER	TOGGLE	TRUE	Run as Sequence
PSTATMODEL	IQUANT	4	Pstat Model
PSTATSECTION	LABEL	REF600-12055	Pstat Section
PSTATSERIALNO	LABEL	12055	Pstat Serial Number
CTRLMODE	IQUANT	0	Control Mode
ELECTROMETER	IQUANT	0	RE=0 or CS=1
IESTAB	IQUANT	0	I/E Stability
CASPEED	IQUANT	4	Control Amp Speed
CONVENTION	IQUANT	1	Current Convention
ICHRANGE	IQUANT	2	Ich Range
ICHRANGEMODE	TOGGLE	T	Ich Auto Range
ICHOFFSETENABLE	TOGGLE	F	Ich Offset Enable
ICHOFFSET	QUANT	0	Ich Offset (V)
ICHFILTER	IQUANT	1	Ich Filter
VCHRANGE	IQUANT	3	Vch Range
VCHRANGEMODE	TOGGLE	T	Vch Auto Range
VCHOFFSETENABLE	TOGGLE	F	Vch Offset Enable
VCHOFFSET	QUANT	0	Vch Offset (V)
VCHFILTER	IQUANT	1	Vch Filter
ACHRANGE	IQUANT	2	Ach Range
ACHOFFSETENABLE	TOGGLE	F	Ach Offset Enable
ACHOFFSET	QUANT	0	Ach Offset (V)
ACHFILTER	IQUANT	1	Ach Filter
IERANGELOWERLIMIT	IQUANT	7	I/E Range Lower Limit
IERANGEMODE	TOGGLE	F	I/E AutoRange
IERANGE	IQUANT	11	I/E Range
POSFEEDENABLE	TOGGLE	F	Positive Feedback IR Comp
POSFEEDRESISTANCE	QUANT	0	Positive Feedback Resistance (ohm)
ACHSELECT	IQUANT	4	Ach Select
SENSECABLEID	IQUANT	14	Sense Cable ID
PWRCABLEID	IQUANT	14	Power Cable ID
DCCALDATE	LABEL	2/12/2024	DC Calibration Date
ACCALDATE	LABEL	2/12/2024	AC Calibration Date
THERMOSELECT	IQUANT	1	Thermo Select
FRAMEWORKVERSION	LABEL	7.10.3	Framework Version
INSTRUMENTVERSION	LABEL	4.91	Instrument Version
COMMVERSION	LABEL	2.24	Communications Version
CPUPLDVERSION	LABEL	0.00	CPU PLD Version
CTRLPLDVERSION	LABEL	0.00	CTRL PLD Version
PSTATPLDVERSION	LABEL	0.00	PSTAT PLD Version
CURVE	TABLE	600
	Pt	T	Vf	Im	Vu	Pwr	Sig	Ach	Temp	IERange	Over
	#	s	V	A	V	W	V	V	deg C	#	bits
	0	1	3.74293E+000	1.29896E-006	0.00000E+000	4.86191E-006	0.00000E+000	9.69374E-004	-3.27687E+002	7	...........
	1	2	3.74308E+000	1.29504E-006	0.00000E+000	4.84746E-006	0.00000E+000	9.70190E-004	-3.27687E+002	7	...........
	2	3	3.74318E+000	1.29376E-006	0.00000E+000	4.84278E-006	0.00000E+000	9.74557E-004	-3.27687E+002	7	...........
	3	4	3.74328E+000	1.29190E-006	0.00000E+000	4.83593E-006	0.00000E+000	9.77224E-004	-3.27687E+002	7	...........
	4	5	3.74340E+000	1.29043E-006	0.00000E+000	4.83058E-006	0.00000E+000	9.78524E-004	-3.27687E+002	7	...........
	5	6	3.74354E+000	1.28899E-006	0.00000E+000	4.82540E-006	0.00000E+000	9.81624E-004	-3.27687E+002	7	...........
	6	7	3.74369E+000	1.28702E-006	0.00000E+000	4.81820E-006	0.00000E+000	9.79690E-004	-3.27687E+002	7	...........
	7	8	3.74386E+000	1.28645E-006	0.00000E+000	4.81630E-006	0.00000E+000	9.81974E-004	-3.27687E+002	7	...........
	8	9	3.74405E+000	1.28491E-006	0.00000E+000	4.81075E-006	0.00000E+000	9.82090E-004	-3.27687E+002	7	...........
	9	10	3.74422E+000	1.28452E-006	0.00000E+000	4.80954E-006	0.00000E+000	9.78757E-004	-3.27687E+002	7	...........
	10	11	3.74437E+000	1.28304E-006	0.00000E+000	4.80418E-006	0.00000E+000	9.79640E-004	-3.27687E+002	7	...........
	11	12	3.74453E+000	1.28303E-006	0.00000E+000	4.80434E-006	0.00000E+000	9.79957E-004	-3.27687E+002	7	...........
	12	13	3.74464E+000	1.28200E-006	0.00000E+000	4.80063E-006	0.00000E+000	9.81574E-004	-3.27687E+002	7	...........
	13	14	3.74475E+000	1.27994E-006	0.00000E+000	4.79307E-006	0.00000E+000	9.80840E-004	-3.27687E+002	7	...........
	14	15	3.74485E+000	1.27886E-006	0.00000E+000	4.78912E-006	0.00000E+000	9.82857E-004	-3.27687E+002	7	...........
	15	16	3.74495E+000	1.27855E-006	0.00000E+000	4.78810E-006	0.00000E+000	9.83540E-004	-3.27687E+002	7	...........
	16	17	3.74505E+000	1.27650E-006	0.00000E+000	4.78055E-006	0.00000E+000	9.81340E-004	-3.27687E+002	7	...........
	17	18	3.74513E+000	1.27506E-006	0.00000E+000	4.77526E-006	0.00000E+000	9.83790E-004	-3.27687E+002	7	...........
	18	19	3.74520E+000	1.27378E-006	0.00000E+000	4.77055E-006	0.00000E+000	9.86024E-004	-3.27687E+002	7	...........
	19	20	3.74529E+000	1.27293E-006	0.00000E+000	4.76749E-006	0.00000E+000	9.86457E-004	-3.27687E+002	7	...........
	20	21	3.74536E+000	1.27183E-006	0.00000E+000	4.76345E-006	0.00000E+000	8.26924E-004	-3.27687E+002	7	...........
	21	22	3.74542E+000	1.27139E-006	0.00000E+000	4.76188E-006	0.00000E+000	7.53040E-004	-3.27687E+002	7	...........
	22	23	3.74549E+000	1.27019E-006	0.00000E+000	4.75748E-006	0.00000E+000	7.54240E-004	-3.27687E+002	7	...........
	23	24	3.74557E+000	1.26972E-006	0.00000E+000	4.75582E-006	0.00000E+000	7.53940E-004	-3.27687E+002	7	...........
	24	25	3.74564E+000	1.26868E-006	0.00000E+000	4.75201E-006	0.00000E+000	7.51657E-004	-3.27687E+002	7	...........
	25	26	3.74571E+000	1.26721E-006	0.00000E+000	4.74661E-006	0.00000E+000	7.50774E-004	-3.27687E+002	7	...........
	26	27	3.74577E+000	1.26650E-006	0.00000E+000	4.74401E-006	0.00000E+000	7.50807E-004	-3.27687E+002	7	...........
	27	28	3.74585E+000	1.26535E-006	0.00000E+000	4.73982E-006	0.00000E+000	7.48540E-004	-3.27687E+002	7	...........
	28	29	3.74592E+000	1.26502E-006	0.00000E+000	4.73868E-006	0.00000E+000	7.48807E-004	-3.27687E+002	7	...........
	29	30	3.74598E+000	1.26391E-006	0.00000E+000	4.73460E-006	0.00000E+000	7.50674E-004	-3.27687E+002	7	...........
	30	31	3.74605E+000	1.26357E-006	0.00000E+000	4.73339E-006	0.00000E+000	7.47107E-004	-3.27687E+002	7	...........
	31	32	3.74613E+000	1.26236E-006	0.00000E+000	4.72895E-006	0.00000E+000	7.49257E-004	-3.27687E+002	7	...........
	32	33	3.74620E+000	1.26107E-006	0.00000E+000	4.72421E-006	0.00000E+000	7.48224E-004	-3.27687E+002	7	...........
	33	34	3.74627E+000	1.26059E-006	0.00000E+000	4.72251E-006	0.00000E+000	7.50390E-004	-3.27687E+002	7	...........
	34	35	3.74634E+000	1.26029E-006	0.00000E+000	4.72147E-006	0.00000E+000	7.50574E-004	-3.27687E+002	7	...........
	35	36	3.74641E+000	1.26078E-006	0.00000E+000	4.72341E-006	0.00000E+000	7.53074E-004	-3.27687E+002	7	...........
	36	37	3.74647E+000	1.26008E-006	0.00000E+000	4.72087E-006	0.00000E+000	7.51307E-004	-3.27687E+002	7	...........
	37	38	3.74653E+000	1.25859E-006	0.00000E+000	4.71533E-006	0.00000E+000	7.51874E-004	-3.27687E+002	7	...........
	38	39	3.74659E+000	1.25759E-006	0.00000E+000	4.71166E-006	0.00000E+000	7.55024E-004	-3.27687E+002	7	...........
	39	40	3.74665E+000	1.25683E-006	0.00000E+000	4.70890E-006	0.00000E+000	7.54340E-004	-3.27687E+002	7	...........
	40	41	3.74670E+000	1.25652E-006	0.00000E+000	4.70782E-006	0.00000E+000	7.54624E-004	-3.27687E+002	7	...........
	41	42	3.74675E+000	1.25525E-006	0.00000E+000	4.70309E-006	0.00000E+000	7.56974E-004	-3.27687E+002	7	...........
	42	43	3.74680E+000	1.25513E-006	0.00000E+000	4.70272E-006	0.00000E+000	7.57490E-004	-3.27687E+002	7	...........
	43	44	3.74685E+000	1.25355E-006	0.00000E+000	4.69685E-006	0.00000E+000	7.55340E-004	-3.27687E+002	7	...........
	44	45	3.74689E+000	1.25305E-006	0.00000E+000	4.69505E-006	0.00000E+000	7.58357E-004	-3.27687E+002	7	...........
	45	46	3.74693E+000	1.25235E-006	0.00000E+000	4.69246E-006	0.00000E+000	7.56890E-004	-3.27687E+002	7	...........
	46	47	3.74697E+000	1.25191E-006	0.00000E+000	4.69088E-006	0.00000E+000	7.56640E-004	-3.27687E+002	7	...........
	47	48	3.74701E+000	1.25169E-006	0.00000E+000	4.69008E-006	0.00000E+000	7.60757E-004	-3.27687E+002	7	...........
	48	49	3.74706E+000	1.25035E-006	0.00000E+000	4.68512E-006	0.00000E+000	7.57474E-004	-3.27687E+002	7	...........
	49	50	3.74710E+000	1.24936E-006	0.00000E+000	4.68146E-006	0.00000E+000	7.54657E-004	-3.27687E+002	7	...........
	50	51	3.74714E+000	1.24837E-006	0.00000E+000	4.67780E-006	0.00000E+000	7.53457E-004	-3.27687E+002	7	...........
	51	52	3.74719E+000	1.24869E-006	0.00000E+000	4.67909E-006	0.00000E+000	7.52407E-004	-3.27687E+002	7	...........
	52	53	3.74725E+000	1.24852E-006	0.00000E+000	4.67852E-006	0.00000E+000	7.52674E-004	-3.27687E+002	7	...........
	53	54	3.74729E+000	1.24755E-006	0.00000E+000	4.67494E-006	0.00000E+000	7.52224E-004	-3.27687E+002	7	...........
	54	55	3.74733E+000	1.24710E-006	0.00000E+000	4.67328E-006	0.00000E+000	7.47807E-004	-3.27687E+002	7	...........
	55	56	3.74737E+000	1.24697E-006	0.00000E+000	4.67286E-006	0.00000E+000	7.46540E-004	-3.27687E+002	7	...........
	56	57	3.74742E+000	1.24579E-006	0.00000E+000	4.66850E-006	0.00000E+000	7.46224E-004	-3.27687E+002	7	...........
	57	58	3.74748E+000	1.24554E-006	0.00000E+000	4.66763E-006	0.00000E+000	7.42690E-004	-3.27687E+002	7	...........
	58	59	3.74753E+000	1.24538E-006	0.00000E+000	4.66708E-006	0.00000E+000	7.43274E-004	-3.27687E+002	7	...........
	59	60	3.74758E+000	1.24525E-006	0.00000E+000	4.66668E-006	0.00000E+000	7.39674E-004	-3.27687E+002	7	...........
	60	61	3.74762E+000	1.24394E-006	0.00000E+000	4.66182E-006	0.00000E+000	7.36957E-004	-3.27687E+002	7	...........
	61	62	3.74768E+000	1.24384E-006	0.00000E+000	4.66151E-006	0.00000E+000	7.41007E-004	-3.27687E+002	7	...........
	62	63	3.74771E+000	1.24331E-006	0.00000E+000	4.65955E-006	0.00000E+000	7.37740E-004	-3.27687E+002	7	...........
	63	64	3.74775E+000	1.24357E-006	0.00000E+000	4.66059E-006	0.00000E+000	7.34990E-004	-3.27687E+002	7	...........
	64	65	3.74780E+000	1.24324E-006	0.00000E+000	4.65944E-006	0.00000E+000	7.33157E-004	-3.27687E+002	7	...........
	65	66	3.74784E+000	1.24266E-006	0.00000E+000	4.65727E-006	0.00000E+000	7.34174E-004	-3.27687E+002	7	...........
	66	67	3.74787E+000	1.24181E-006	0.00000E+000	4.65414E-006	0.00000E+000	7.32874E-004	-3.27687E+002	7	...........
	67	68	3.74791E+000	1.24083E-006	0.00000E+000	4.65053E-006	0.00000E+000	7.32974E-004	-3.27687E+002	7	...........
	68	69	3.74795E+000	1.24101E-006	0.00000E+000	4.65125E-006	0.00000E+000	7.33957E-004	-3.27687E+002	7	...........
	69	70	3.74798E+000	1.24103E-006	0.00000E+000	4.65137E-006	0.00000E+000	7.32424E-004	-3.27687E+002	7	...........
	70	71	3.74803E+000	1.24132E-006	0.00000E+000	4.65250E-006	0.00000E+000	7.33324E-004	-3.27687E+002	7	...........
	71	72	3.74806E+000	1.24182E-006	0.00000E+000	4.65441E-006	0.00000E+000	7.35290E-004	-3.27687E+002	7	...........
	72	73	3.74809E+000	1.23964E-006	0.00000E+000	4.64628E-006	0.00000E+000	7.35357E-004	-3.27687E+002	7	...........
	73	74	3.74813E+000	1.23996E-006	0.00000E+000	4.64754E-006	0.00000E+000	7.34457E-004	-3.27687E+002	7	...........
	74	75	3.74817E+000	1.23893E-006	0.00000E+000	4.64372E-006	0.00000E+000	7.36007E-004	-3.27687E+002	7	...........
	75	76	3.74820E+000	1.23959E-006	0.00000E+000	4.64622E-006	0.00000E+000	7.35774E-004	-3.27687E+002	7	...........
	76	77	3.74824E+000	1.23918E-006	0.00000E+000	4.64474E-006	0.00000E+000	7.37924E-004	-3.27687E+002	7	...........
	77	78	3.74827E+000	1.23876E-006	0.00000E+000	4.64320E-006	0.00000E+000	7.37657E-004	-3.27687E+002	7	...........
	78	79	3.74830E+000	1.23797E-006	0.00000E+000	4.64027E-006	0.00000E+000	7.41424E-004	-3.27687E+002	7	...........
	79	80	3.74834E+000	1.23721E-006	0.00000E+000	4.63749E-006	0.00000E+000	7.41557E-004	-3.27687E+002	7	...........
	80	81	3.74837E+000	1.23631E-006	0.00000E+000	4.63414E-006	0.00000E+000	7.41590E-004	-3.27687E+002	7	...........
	81	82	3.74840E+000	1.23730E-006	0.00000E+000	4.63791E-006	0.00000E+000	7.43157E-004	-3.27687E+002	7	...........
	82	83	3.74842E+000	1.23744E-006	0.00000E+000	4.63845E-006	0.00000E+000	7.45040E-004	-3.27687E+002	7	...........
	83	84	3.74845E+000	1.23689E-006	0.00000E+000	4.63644E-006	0.00000E+000	7.45607E-004	-3.27687E+002	7	...........
	84	85	3.74849E+000	1.23518E-006	0.00000E+000	4.63008E-006	0.00000E+000	7.47840E-004	-3.27687E+002	7	...........
	85	86	3.74851E+000	1.23636E-006	0.00000E+000	4.63451E-006	0.00000E+000	7.48274E-004	-3.27687E+002	7	...........
	86	87	3.74855E+000	1.23562E-006	0.00000E+000	4.63179E-006	0.00000E+000	7.48340E-004	-3.27687E+002	7	...........
	87	88	3.74856E+000	1.23464E-006	0.00000E+000	4.62814E-006	0.00000E+000	7.50107E-004	-3.27687E+002	7	...........
	88	89	3.74859E+000	1.23496E-006	0.00000E+000	4.62938E-006	0.00000E+000	7.49174E-004	-3.27687E+002	7	...........
	89	90	3.74862E+000	1.23442E-006	0.00000E+000	4.62736E-006	0.00000E+000	7.48207E-004	-3.27687E+002	7	...........
	90	91	3.74865E+000	1.23379E-006	0.00000E+000	4.62505E-006	0.00000E+000	7.51857E-004	-3.27687E+002	7	...........
	91	92	3.74867E+000	1.23351E-006	0.00000E+000	4.62404E-006	0.00000E+000	7.53024E-004	-3.27687E+002	7	...........
	92	93	3.74870E+000	1.23385E-006	0.00000E+000	4.62532E-006	0.00000E+000	7.52007E-004	-3.27687E+002	7	...........
	93	94	3.74872E+000	1.23342E-006	0.00000E+000	4.62376E-006	0.00000E+000	7.49890E-004	-3.27687E+002	7	...........
	94	95	3.74875E+000	1.23461E-006	0.00000E+000	4.62823E-006	0.00000E+000	7.54074E-004	-3.27687E+002	7	...........
	95	96	3.74876E+000	1.23408E-006	0.00000E+000	4.62628E-006	0.00000E+000	7.52407E-004	-3.27687E+002	7	...........
	96	97	3.74879E+000	1.23288E-006	0.00000E+000	4.62181E-006	0.00000E+000	7.54240E-004	-3.27687E+002	7	...........
	97	98	3.74881E+000	1.23346E-006	0.00000E+000	4.62402E-006	0.00000E+000	7.52390E-004	-3.27687E+002	7	...........
	98	99	3.74884E+000	1.23299E-006	0.00000E+000	4.62227E-006	0.00000E+000	7.53107E-004	-3.27687E+002	7	...........
	99	100	3.74887E+000	1.23327E-006	0.00000E+000	4.62336E-006	0.00000E+000	7.50390E-004	-3.27687E+002	7	...........
	100	101	3.74889E+000	1.23366E-006	0.00000E+000	4.62486E-006	0.00000E+000	7.51174E-004	-3.27687E+002	7	...........
	101	102	3.74891E+000	1.23238E-006	0.00000E+000	4.62009E-006	0.00000E+000	7.49140E-004	-3.27687E+002	7	...........
	102	103	3.74893E+000	1.23227E-006	0.00000E+000	4.61969E-006	0.00000E+000	7.48590E-004	-3.27687E+002	7	...........
	103	104	3.74896E+000	1.23165E-006	0.00000E+000	4.61739E-006	0.00000E+000	7.51457E-004	-3.27687E+002	7	...........
	104	105	3.74899E+000	1.23117E-006	0.00000E+000	4.61566E-006	0.00000E+000	7.51840E-004	-3.27687E+002	7	...........
	105	106	3.74901E+000	1.23255E-006	0.00000E+000	4.62083E-006	0.00000E+000	7.50157E-004	-3.27687E+002	7	...........
	106	107	3.74903E+000	1.23312E-006	0.00000E+000	4.62302E-006	0.00000E+000	7.49990E-004	-3.27687E+002	7	...........
	107	108	3.74905E+000	1.23158E-006	0.00000E+000	4.61726E-006	0.00000E+000	7.50107E-004	-3.27687E+002	7	...........
	108	109	3.74907E+000	1.23046E-006	0.00000E+000	4.61306E-006	0.00000E+000	7.50190E-004	-3.27687E+002	7	...........
	109	110	3.74908E+000	1.23040E-006	0.00000E+000	4.61288E-006	0.00000E+000	7.49824E-004	-3.27687E+002	7	...........
	110	111	3.74910E+000	1.22996E-006	0.00000E+000	4.61123E-006	0.00000E+000	7.51290E-004	-3.27687E+002	7	...........
	111	112	3.74913E+000	1.22964E-006	0.00000E+000	4.61009E-006	0.00000E+000	7.49057E-004	-3.27687E+002	7	...........
	112	113	3.74914E+000	1.23002E-006	0.00000E+000	4.61151E-006	0.00000E+000	7.49307E-004	-3.27687E+002	7	...........
	113	114	3.74917E+000	1.22972E-006	0.00000E+000	4.61044E-006	0.00000E+000	7.49574E-004	-3.27687E+002	7	...........
	114	115	3.74919E+000	1.22899E-006	0.00000E+000	4.60772E-006	0.00000E+000	7.46724E-004	-3.27687E+002	7	...........
	115	116	3.74920E+000	1.22806E-006	0.00000E+000	4.60426E-006	0.00000E+000	7.49624E-004	-3.27687E+002	7	...........
	116	117	3.74922E+000	1.22889E-006	0.00000E+000	4.60737E-006	0.00000E+000	7.48824E-004	-3.27687E+002	7	...........
	117	118	3.74924E+000	1.22927E-006	0.00000E+000	4.60882E-006	0.00000E+000	7.46474E-004	-3.27687E+002	7	...........
	118	119	3.74926E+000	1.22963E-006	0.00000E+000	4.61021E-006	0.00000E+000	7.47824E-004	-3.27687E+002	7	...........
	119	120	3.74928E+000	1.22845E-006	0.00000E+000	4.60579E-006	0.00000E+000	7.49374E-004	-3.27687E+002	7	...........
	120	121	3.74930E+000	1.22906E-006	0.00000E+000	4.60813E-006	0.00000E+000	7.50307E-004	-3.27687E+002	7	...........
	121	122	3.74931E+000	1.22864E-006	0.00000E+000	4.60654E-006	0.00000E+000	7.49707E-004	-3.27687E+002	7	...........
	122	123	3.74933E+000	1.22842E-006	0.00000E+000	4.60577E-006	0.00000E+000	7.48490E-004	-3.27687E+002	7	...........
	123	124	3.74934E+000	1.22838E-006	0.00000E+000	4.60562E-006	0.00000E+000	7.48957E-004	-3.27687E+002	7	...........
	124	125	3.74936E+000	1.22721E-006	0.00000E+000	4.60124E-006	0.00000E+000	7.49190E-004	-3.27687E+002	7	...........
	125	126	3.74938E+000	1.22763E-006	0.00000E+000	4.60286E-006	0.00000E+000	7.47874E-004	-3.27687E+002	7	...........
	126	127	3.74938E+000	1.22655E-006	0.00000E+000	4.59879E-006	0.00000E+000	7.50157E-004	-3.27687E+002	7	...........
	127	128	3.74941E+000	1.22647E-006	0.00000E+000	4.59852E-006	0.00000E+000	7.48840E-004	-3.27687E+002	7	...........
	128	129	3.74942E+000	1.22757E-006	0.00000E+000	4.60267E-006	0.00000E+000	7.49124E-004	-3.27687E+002	7	...........
	129	130	3.74943E+000	1.22771E-006	0.00000E+000	4.60322E-006	0.00000E+000	7.49307E-004	-3.27687E+002	7	...........
	130	131	3.74944E+000	1.22726E-006	0.00000E+000	4.60155E-006	0.00000E+000	7.50357E-004	-3.27687E+002	7	...........
	131	132	3.74946E+000	1.22559E-006	0.00000E+000	4.59529E-006	0.00000E+000	7.49457E-004	-3.27687E+002	7	...........
	132	133	3.74947E+000	1.22655E-006	0.00000E+000	4.59892E-006	0.00000E+000	7.49507E-004	-3.27687E+002	7	...........
	133	134	3.74949E+000	1.22602E-006	0.00000E+000	4.59694E-006	0.00000E+000	7.51024E-004	-3.27687E+002	7	...........
	134	135	3.74950E+000	1.22614E-006	0.00000E+000	4.59743E-006	0.00000E+000	7.51840E-004	-3.27687E+002	7	...........
	135	136	3.74952E+000	1.22542E-006	0.00000E+000	4.59473E-006	0.00000E+000	7.50890E-004	-3.27687E+002	7	...........
	136	137	3.74953E+000	1.22442E-006	0.00000E+000	4.59100E-006	0.00000E+000	7.50290E-004	-3.27687E+002	7	...........
	137	138	3.74955E+000	1.22496E-006	0.00000E+000	4.59305E-006	0.00000E+000	7.50740E-004	-3.27687E+002	7	...........
	138	139	3.74957E+000	1.22503E-006	0.00000E+000	4.59332E-006	0.00000E+000	7.52690E-004	-3.27687E+002	7	...........
	139	140	3.74958E+000	1.22438E-006	0.00000E+000	4.59092E-006	0.00000E+000	7.53840E-004	-3.27687E+002	7	...........
	140	141	3.74959E+000	1.22482E-006	0.00000E+000	4.59258E-006	0.00000E+000	7.53374E-004	-3.27687E+002	7	...........
	141	142	3.74961E+000	1.22518E-006	0.00000E+000	4.59396E-006	0.00000E+000	7.52374E-004	-3.27687E+002	7	...........
	142	143	3.74962E+000	1.22529E-006	0.00000E+000	4.59436E-006	0.00000E+000	7.54524E-004	-3.27687E+002	7	...........
	143	144	3.74964E+000	1.22444E-006	0.00000E+000	4.59121E-006	0.00000E+000	7.52824E-004	-3.27687E+002	7	...........
	144	145	3.74965E+000	1.22391E-006	0.00000E+000	4.58924E-006	0.00000E+000	7.54307E-004	-3.27687E+002	7	...........
	145	146	3.74968E+000	1.22390E-006	0.00000E+000	4.58925E-006	0.00000E+000	7.53740E-004	-3.27687E+002	7	...........
	146	147	3.74969E+000	1.22478E-006	0.00000E+000	4.59254E-006	0.00000E+000	7.55007E-004	-3.27687E+002	7	...........
	147	148	3.74970E+000	1.22518E-006	0.00000E+000	4.59406E-006	0.00000E+000	7.54457E-004	-3.27687E+002	7	...........
	148	149	3.74972E+000	1.22538E-006	0.00000E+000	4.59482E-006	0.00000E+000	7.54774E-004	-3.27687E+002	7	...........
	149	150	3.74974E+000	1.22587E-006	0.00000E+000	4.59669E-006	0.00000E+000	7.55440E-004	-3.27687E+002	7	...........
	150	151	3.74977E+000	1.22475E-006	0.00000E+000	4.59252E-006	0.00000E+000	7.54157E-004	-3.27687E+002	7	...........
	151	152	3.74978E+000	1.22412E-006	0.00000E+000	4.59018E-006	0.00000E+000	7.55290E-004	-3.27687E+002	7	...........
	152	153	3.74981E+000	1.22404E-006	0.00000E+000	4.58992E-006	0.00000E+000	7.54257E-004	-3.27687E+002	7	...........
	153	154	3.74983E+000	1.22425E-006	0.00000E+000	4.59072E-006	0.00000E+000	7.54974E-004	-3.27687E+002	7	...........
	154	155	3.74987E+000	1.22383E-006	0.00000E+000	4.58918E-006	0.00000E+000	7.54257E-004	-3.27687E+002	7	...........
	155	156	3.74988E+000	1.22310E-006	0.00000E+000	4.58647E-006	0.00000E+000	7.54207E-004	-3.27687E+002	7	...........
	156	157	3.74990E+000	1.22358E-006	0.00000E+000	4.58831E-006	0.00000E+000	7.53040E-004	-3.27687E+002	7	...........
	157	158	3.74992E+000	1.22443E-006	0.00000E+000	4.59150E-006	0.00000E+000	7.53474E-004	-3.27687E+002	7	...........
	158	159	3.74996E+000	1.22457E-006	0.00000E+000	4.59208E-006	0.00000E+000	7.55090E-004	-3.27687E+002	7	...........
	159	160	3.74997E+000	1.22417E-006	0.00000E+000	4.59059E-006	0.00000E+000	7.53590E-004	-3.27687E+002	7	...........
	160	161	3.75001E+000	1.22392E-006	0.00000E+000	4.58971E-006	0.00000E+000	7.54324E-004	-3.27687E+002	7	...........
	161	162	3.75003E+000	1.22293E-006	0.00000E+000	4.58603E-006	0.00000E+000	7.54907E-004	-3.27687E+002	7	...........
	162	163	3.75007E+000	1.22223E-006	0.00000E+000	4.58346E-006	0.00000E+000	7.53207E-004	-3.27687E+002	7	...........
	163	164	3.75009E+000	1.22238E-006	0.00000E+000	4.58405E-006	0.00000E+000	7.54624E-004	-3.27687E+002	7	...........
	164	165	3.75013E+000	1.22193E-006	0.00000E+000	4.58239E-006	0.00000E+000	7.55540E-004	-3.27687E+002	7	...........
	165	166	3.75015E+000	1.22178E-006	0.00000E+000	4.58185E-006	0.00000E+000	7.53074E-004	-3.27687E+002	7	...........
	166	167	3.75019E+000	1.22238E-006	0.00000E+000	4.58416E-006	0.00000E+000	7.55174E-004	-3.27687E+002	7	...........
	167	168	3.75021E+000	1.22257E-006	0.00000E+000	4.58489E-006	0.00000E+000	7.54007E-004	-3.27687E+002	7	...........
	168	169	3.75022E+000	1.22184E-006	0.00000E+000	4.58215E-006	0.00000E+000	7.51824E-004	-3.27687E+002	7	...........
	169	170	3.75026E+000	1.22151E-006	0.00000E+000	4.58100E-006	0.00000E+000	7.50524E-004	-3.27687E+002	7	...........
	170	171	3.75029E+000	1.22182E-006	0.00000E+000	4.58220E-006	0.00000E+000	7.51190E-004	-3.27687E+002	7	...........
	171	172	3.75031E+000	1.22215E-006	0.00000E+000	4.58346E-006	0.00000E+000	7.53207E-004	-3.27687E+002	7	...........
	172	173	3.75035E+000	1.22159E-006	0.00000E+000	4.58137E-006	0.00000E+000	7.52157E-004	-3.27687E+002	7	...........
	173	174	3.75037E+000	1.22087E-006	0.00000E+000	4.57871E-006	0.00000E+000	7.53240E-004	-3.27687E+002	7	...........
	174	175	3.75040E+000	1.22122E-006	0.00000E+000	4.58007E-006	0.00000E+000	7.51490E-004	-3.27687E+002	7	...........
	175	176	3.75042E+000	1.22101E-006	0.00000E+000	4.57929E-006	0.00000E+000	7.51124E-004	-3.27687E+002	7	...........
	176	177	3.75046E+000	1.22060E-006	0.00000E+000	4.57782E-006	0.00000E+000	7.50457E-004	-3.27687E+002	7	...........
	177	178	3.75049E+000	1.22155E-006	0.00000E+000	4.58141E-006	0.00000E+000	7.50674E-004	-3.27687E+002	7	...........
	178	179	3.75051E+000	1.22109E-006	0.00000E+000	4.57973E-006	0.00000E+000	7.50574E-004	-3.27687E+002	7	...........
	179	180	3.75054E+000	1.22076E-006	0.00000E+000	4.57851E-006	0.00000E+000	7.49324E-004	-3.27687E+002	7	...........
	180	181	3.75055E+000	1.22112E-006	0.00000E+000	4.57986E-006	0.00000E+000	7.49457E-004	-3.27687E+002	7	...........
	181	182	3.75059E+000	1.22157E-006	0.00000E+000	4.58162E-006	0.00000E+000	7.50090E-004	-3.27687E+002	7	...........
	182	183	3.75062E+000	1.22075E-006	0.00000E+000	4.57857E-006	0.00000E+000	7.47290E-004	-3.27687E+002	7	...........
	183	184	3.75064E+000	1.22001E-006	0.00000E+000	4.57584E-006	0.00000E+000	7.49190E-004	-3.27687E+002	7	...........
	184	185	3.75068E+000	1.22032E-006	0.00000E+000	4.57703E-006	0.00000E+000	7.47824E-004	-3.27687E+002	7	...........
	185	186	3.75070E+000	1.21979E-006	0.00000E+000	4.57507E-006	0.00000E+000	7.47824E-004	-3.27687E+002	7	...........
	186	187	3.75073E+000	1.21902E-006	0.00000E+000	4.57222E-006	0.00000E+000	7.47340E-004	-3.27687E+002	7	...........
	187	188	3.75074E+000	1.21950E-006	0.00000E+000	4.57404E-006	0.00000E+000	7.45940E-004	-3.27687E+002	7	...........
	188	189	3.75077E+000	1.21869E-006	0.00000E+000	4.57104E-006	0.00000E+000	7.44190E-004	-3.27687E+002	7	...........
	189	190	3.75080E+000	1.21937E-006	0.00000E+000	4.57360E-006	0.00000E+000	7.46324E-004	-3.27687E+002	7	...........
	190	191	3.75083E+000	1.21857E-006	0.00000E+000	4.57065E-006	0.00000E+000	7.46890E-004	-3.27687E+002	7	...........
	191	192	3.75085E+000	1.21759E-006	0.00000E+000	4.56701E-006	0.00000E+000	7.48457E-004	-3.27687E+002	7	...........
	192	193	3.75089E+000	1.21880E-006	0.00000E+000	4.57158E-006	0.00000E+000	7.48524E-004	-3.27687E+002	7	...........
	193	194	3.75090E+000	1.21922E-006	0.00000E+000	4.57318E-006	0.00000E+000	7.45490E-004	-3.27687E+002	7	...........
	194	195	3.75092E+000	1.21901E-006	0.00000E+000	4.57239E-006	0.00000E+000	7.46640E-004	-3.27687E+002	7	...........
	195	196	3.75095E+000	1.21863E-006	0.00000E+000	4.57103E-006	0.00000E+000	7.46040E-004	-3.27687E+002	7	...........
	196	197	3.75097E+000	1.21902E-006	0.00000E+000	4.57253E-006	0.00000E+000	7.47074E-004	-3.27687E+002	7	...........
	197	198	3.75099E+000	1.21829E-006	0.00000E+000	4.56979E-006	0.00000E+000	7.44940E-004	-3.27687E+002	7	...........
	198	199	3.75101E+000	1.21728E-006	0.00000E+000	4.56601E-006	0.00000E+000	7.46490E-004	-3.27687E+002	7	...........
	199	200	3.75103E+000	1.21754E-006	0.00000E+000	4.56701E-006	0.00000E+000	7.45807E-004	-3.27687E+002	7	...........
	200	201	3.75105E+000	1.21803E-006	0.00000E+000	4.56888E-006	0.00000E+000	7.47740E-004	-3.27687E+002	7	...........
	201	202	3.75107E+000	1.21829E-006	0.00000E+000	4.56989E-006	0.00000E+000	7.47224E-004	-3.27687E+002	7	...........
	202	203	3.75109E+000	1.21767E-006	0.00000E+000	4.56758E-006	0.00000E+000	7.48807E-004	-3.27687E+002	7	...........
	203	204	3.75110E+000	1.21772E-006	0.00000E+000	4.56777E-006	0.00000E+000	7.48624E-004	-3.27687E+002	7	...........
	204	205	3.75112E+000	1.21797E-006	0.00000E+000	4.56874E-006	0.00000E+000	7.45890E-004	-3.27687E+002	7	...........
	205	206	3.75113E+000	1.21713E-006	0.00000E+000	4.56562E-006	0.00000E+000	7.49240E-004	-3.27687E+002	7	...........
	206	207	3.75116E+000	1.21660E-006	0.00000E+000	4.56367E-006	0.00000E+000	7.47874E-004	-3.27687E+002	7	...........
	207	208	3.75118E+000	1.21779E-006	0.00000E+000	4.56816E-006	0.00000E+000	7.49840E-004	-3.27687E+002	7	...........
	208	209	3.75121E+000	1.21714E-006	0.00000E+000	4.56576E-006	0.00000E+000	7.48790E-004	-3.27687E+002	7	...........
	209	210	3.75121E+000	1.21779E-006	0.00000E+000	4.56819E-006	0.00000E+000	7.48774E-004	-3.27687E+002	7	...........
	210	211	3.75123E+000	1.21692E-006	0.00000E+000	4.56496E-006	0.00000E+000	7.50157E-004	-3.27687E+002	7	...........
	211	212	3.75125E+000	1.21691E-006	0.00000E+000	4.56493E-006	0.00000E+000	7.48290E-004	-3.27687E+002	7	...........
	212	213	3.75128E+000	1.21643E-006	0.00000E+000	4.56315E-006	0.00000E+000	7.50007E-004	-3.27687E+002	7	...........
	213	214	3.75129E+000	1.21721E-006	0.00000E+000	4.56610E-006	0.00000E+000	7.47457E-004	-3.27687E+002	7	...........
	214	215	3.75131E+000	1.21565E-006	0.00000E+000	4.56027E-006	0.00000E+000	7.50074E-004	-3.27687E+002	7	...........
	215	216	3.75133E+000	1.21552E-006	0.00000E+000	4.55982E-006	0.00000E+000	7.48424E-004	-3.27687E+002	7	...........
	216	217	3.75135E+000	1.21590E-006	0.00000E+000	4.56127E-006	0.00000E+000	7.51890E-004	-3.27687E+002	7	...........
	217	218	3.75137E+000	1.21682E-006	0.00000E+000	4.56472E-006	0.00000E+000	7.50390E-004	-3.27687E+002	7	...........
	218	219	3.75137E+000	1.21649E-006	0.00000E+000	4.56349E-006	0.00000E+000	7.50724E-004	-3.27687E+002	7	...........
	219	220	3.75139E+000	1.21569E-006	0.00000E+000	4.56054E-006	0.00000E+000	7.51640E-004	-3.27687E+002	7	...........
	220	221	3.75141E+000	1.21548E-006	0.00000E+000	4.55976E-006	0.00000E+000	7.53590E-004	-3.27687E+002	7	...........
	221	222	3.75143E+000	1.21543E-006	0.00000E+000	4.55961E-006	0.00000E+000	7.53290E-004	-3.27687E+002	7	...........
	222	223	3.75145E+000	1.21582E-006	0.00000E+000	4.56108E-006	0.00000E+000	7.52940E-004	-3.27687E+002	7	...........
	223	224	3.75146E+000	1.21578E-006	0.00000E+000	4.56096E-006	0.00000E+000	7.52740E-004	-3.27687E+002	7	...........
	224	225	3.75148E+000	1.21612E-006	0.00000E+000	4.56224E-006	0.00000E+000	7.54007E-004	-3.27687E+002	7	...........
	225	226	3.75150E+000	1.21585E-006	0.00000E+000	4.56126E-006	0.00000E+000	7.54857E-004	-3.27687E+002	7	...........
	226	227	3.75151E+000	1.21585E-006	0.00000E+000	4.56129E-006	0.00000E+000	7.54924E-004	-3.27687E+002	7	...........
	227	228	3.75153E+000	1.21476E-006	0.00000E+000	4.55722E-006	0.00000E+000	7.54924E-004	-3.27687E+002	7	...........
	228	229	3.75154E+000	1.21489E-006	0.00000E+000	4.55773E-006	0.00000E+000	7.55840E-004	-3.27687E+002	7	...........
	229	230	3.75155E+000	1.21492E-006	0.00000E+000	4.55785E-006	0.00000E+000	7.58207E-004	-3.27687E+002	7	...........
	230	231	3.75156E+000	1.21488E-006	0.00000E+000	4.55769E-006	0.00000E+000	7.57924E-004	-3.27687E+002	7	...........
	231	232	3.75159E+000	1.21482E-006	0.00000E+000	4.55751E-006	0.00000E+000	7.54474E-004	-3.27687E+002	7	...........
	232	233	3.75160E+000	1.21486E-006	0.00000E+000	4.55768E-006	0.00000E+000	7.56874E-004	-3.27687E+002	7	...........
	233	234	3.75160E+000	1.21413E-006	0.00000E+000	4.55493E-006	0.00000E+000	7.57340E-004	-3.27687E+002	7	...........
	234	235	3.75162E+000	1.21353E-006	0.00000E+000	4.55271E-006	0.00000E+000	7.55590E-004	-3.27687E+002	7	...........
	235	236	3.75163E+000	1.21413E-006	0.00000E+000	4.55498E-006	0.00000E+000	7.58124E-004	-3.27687E+002	7	...........
	236	237	3.75164E+000	1.21434E-006	0.00000E+000	4.55577E-006	0.00000E+000	7.55890E-004	-3.27687E+002	7	...........
	237	238	3.75165E+000	1.21443E-006	0.00000E+000	4.55612E-006	0.00000E+000	7.56040E-004	-3.27687E+002	7	...........
	238	239	3.75166E+000	1.21341E-006	0.00000E+000	4.55229E-006	0.00000E+000	7.58607E-004	-3.27687E+002	7	...........
	239	240	3.75167E+000	1.21313E-006	0.00000E+000	4.55127E-006	0.00000E+000	7.59357E-004	-3.27687E+002	7	...........
	240	241	3.75168E+000	1.21426E-006	0.00000E+000	4.55550E-006	0.00000E+000	7.59507E-004	-3.27687E+002	7	...........
	241	242	3.75169E+000	1.21346E-006	0.00000E+000	4.55253E-006	0.00000E+000	7.58474E-004	-3.27687E+002	7	...........
	242	243	3.75171E+000	1.21456E-006	0.00000E+000	4.55665E-006	0.00000E+000	7.60257E-004	-3.27687E+002	7	...........
	243	244	3.75172E+000	1.21418E-006	0.00000E+000	4.55526E-006	0.00000E+000	7.59974E-004	-3.27687E+002	7	...........
	244	245	3.75172E+000	1.21377E-006	0.00000E+000	4.55374E-006	0.00000E+000	7.61140E-004	-3.27687E+002	7	...........
	245	246	3.75173E+000	1.21360E-006	0.00000E+000	4.55310E-006	0.00000E+000	7.61324E-004	-3.27687E+002	7	...........
	246	247	3.75175E+000	1.21318E-006	0.00000E+000	4.55156E-006	0.00000E+000	7.60224E-004	-3.27687E+002	7	...........
	247	248	3.75176E+000	1.21364E-006	0.00000E+000	4.55329E-006	0.00000E+000	7.60874E-004	-3.27687E+002	7	...........
	248	249	3.75177E+000	1.21336E-006	0.00000E+000	4.55223E-006	0.00000E+000	7.59090E-004	-3.27687E+002	7	...........
	249	250	3.75179E+000	1.21454E-006	0.00000E+000	4.55670E-006	0.00000E+000	7.60007E-004	-3.27687E+002	7	...........
	250	251	3.75179E+000	1.21354E-006	0.00000E+000	4.55296E-006	0.00000E+000	7.61140E-004	-3.27687E+002	7	...........
	251	252	3.75181E+000	1.21388E-006	0.00000E+000	4.55425E-006	0.00000E+000	7.60307E-004	-3.27687E+002	7	...........
	252	253	3.75182E+000	1.21372E-006	0.00000E+000	4.55368E-006	0.00000E+000	7.59357E-004	-3.27687E+002	7	...........
	253	254	3.75183E+000	1.21391E-006	0.00000E+000	4.55439E-006	0.00000E+000	7.61074E-004	-3.27687E+002	7	...........
	254	255	3.75184E+000	1.21249E-006	0.00000E+000	4.54908E-006	0.00000E+000	7.60374E-004	-3.27687E+002	7	...........
	255	256	3.75185E+000	1.21346E-006	0.00000E+000	4.55271E-006	0.00000E+000	7.59957E-004	-3.27687E+002	7	...........
	256	257	3.75186E+000	1.21315E-006	0.00000E+000	4.55156E-006	0.00000E+000	7.59640E-004	-3.27687E+002	7	...........
	257	258	3.75188E+000	1.21199E-006	0.00000E+000	4.54724E-006	0.00000E+000	7.59374E-004	-3.27687E+002	7	...........
	258	259	3.75189E+000	1.21218E-006	0.00000E+000	4.54796E-006	0.00000E+000	7.59840E-004	-3.27687E+002	7	...........
	259	260	3.75190E+000	1.21172E-006	0.00000E+000	4.54626E-006	0.00000E+000	7.58140E-004	-3.27687E+002	7	...........
	260	261	3.75191E+000	1.21298E-006	0.00000E+000	4.55098E-006	0.00000E+000	7.60907E-004	-3.27687E+002	7	...........
	261	262	3.75192E+000	1.21371E-006	0.00000E+000	4.55376E-006	0.00000E+000	7.61057E-004	-3.27687E+002	7	...........
	262	263	3.75194E+000	1.21322E-006	0.00000E+000	4.55192E-006	0.00000E+000	7.59924E-004	-3.27687E+002	7	...........
	263	264	3.75194E+000	1.21357E-006	0.00000E+000	4.55325E-006	0.00000E+000	7.60757E-004	-3.27687E+002	7	...........
	264	265	3.75197E+000	1.21297E-006	0.00000E+000	4.55102E-006	0.00000E+000	7.60374E-004	-3.27687E+002	7	...........
	265	266	3.75198E+000	1.21392E-006	0.00000E+000	4.55461E-006	0.00000E+000	7.58724E-004	-3.27687E+002	7	...........
	266	267	3.75199E+000	1.21393E-006	0.00000E+000	4.55466E-006	0.00000E+000	7.59890E-004	-3.27687E+002	7	...........
	267	268	3.75199E+000	1.21368E-006	0.00000E+000	4.55370E-006	0.00000E+000	7.60057E-004	-3.27687E+002	7	...........
	268	269	3.75201E+000	1.21300E-006	0.00000E+000	4.55118E-006	0.00000E+000	7.60790E-004	-3.27687E+002	7	...........
	269	270	3.75203E+000	1.21325E-006	0.00000E+000	4.55215E-006	0.00000E+000	7.61857E-004	-3.27687E+002	7	...........
	270	271	3.75203E+000	1.21239E-006	0.00000E+000	4.54894E-006	0.00000E+000	7.61174E-004	-3.27687E+002	7	...........
	271	272	3.75205E+000	1.21292E-006	0.00000E+000	4.55094E-006	0.00000E+000	7.62324E-004	-3.27687E+002	7	...........
	272	273	3.75207E+000	1.21345E-006	0.00000E+000	4.55297E-006	0.00000E+000	7.60424E-004	-3.27687E+002	7	...........
	273	274	3.75208E+000	1.21364E-006	0.00000E+000	4.55366E-006	0.00000E+000	7.61324E-004	-3.27687E+002	7	...........
	274	275	3.75209E+000	1.21235E-006	0.00000E+000	4.54883E-006	0.00000E+000	7.58007E-004	-3.27687E+002	7	...........
	275	276	3.75211E+000	1.21221E-006	0.00000E+000	4.54833E-006	0.00000E+000	7.62107E-004	-3.27687E+002	7	...........
	276	277	3.75213E+000	1.21204E-006	0.00000E+000	4.54771E-006	0.00000E+000	7.58824E-004	-3.27687E+002	7	...........
	277	278	3.75214E+000	1.21258E-006	0.00000E+000	4.54978E-006	0.00000E+000	7.60507E-004	-3.27687E+002	7	...........
	278	279	3.75216E+000	1.21245E-006	0.00000E+000	4.54930E-006	0.00000E+000	7.60890E-004	-3.27687E+002	7	...........
	279	280	3.75217E+000	1.21215E-006	0.00000E+000	4.54818E-006	0.00000E+000	7.59657E-004	-3.27687E+002	7	...........
	280	281	3.75218E+000	1.21215E-006	0.00000E+000	4.54821E-006	0.00000E+000	7.59690E-004	-3.27687E+002	7	...........
	281	282	3.75218E+000	1.21202E-006	0.00000E+000	4.54773E-006	0.00000E+000	7.57224E-004	-3.27687E+002	7	...........
	282	283	3.75220E+000	1.21200E-006	0.00000E+000	4.54768E-006	0.00000E+000	7.58590E-004	-3.27687E+002	7	...........
	283	284	3.75221E+000	1.21321E-006	0.00000E+000	4.55222E-006	0.00000E+000	7.58774E-004	-3.27687E+002	7	...........
	284	285	3.75222E+000	1.21400E-006	0.00000E+000	4.55522E-006	0.00000E+000	7.61257E-004	-3.27687E+002	7	...........
	285	286	3.75225E+000	1.21387E-006	0.00000E+000	4.55474E-006	0.00000E+000	7.59224E-004	-3.27687E+002	7	...........
	286	287	3.75226E+000	1.21220E-006	0.00000E+000	4.54849E-006	0.00000E+000	7.58057E-004	-3.27687E+002	7	...........
	287	288	3.75228E+000	1.21310E-006	0.00000E+000	4.55188E-006	0.00000E+000	7.56690E-004	-3.27687E+002	7	...........
	288	289	3.75229E+000	1.21316E-006	0.00000E+000	4.55212E-006	0.00000E+000	7.57940E-004	-3.27687E+002	7	...........
	289	290	3.75231E+000	1.21287E-006	0.00000E+000	4.55105E-006	0.00000E+000	7.57357E-004	-3.27687E+002	7	...........
	290	291	3.75232E+000	1.21239E-006	0.00000E+000	4.54927E-006	0.00000E+000	7.59190E-004	-3.27687E+002	7	...........
	291	292	3.75234E+000	1.21221E-006	0.00000E+000	4.54862E-006	0.00000E+000	7.56757E-004	-3.27687E+002	7	...........
	292	293	3.75235E+000	1.21188E-006	0.00000E+000	4.54741E-006	0.00000E+000	7.55690E-004	-3.27687E+002	7	...........
	293	294	3.75236E+000	1.21238E-006	0.00000E+000	4.54930E-006	0.00000E+000	7.57707E-004	-3.27687E+002	7	...........
	294	295	3.75240E+000	1.21122E-006	0.00000E+000	4.54497E-006	0.00000E+000	7.57990E-004	-3.27687E+002	7	...........
	295	296	3.75240E+000	1.21262E-006	0.00000E+000	4.55023E-006	0.00000E+000	7.55607E-004	-3.27687E+002	7	...........
	296	297	3.75242E+000	1.21244E-006	0.00000E+000	4.54960E-006	0.00000E+000	7.56757E-004	-3.27687E+002	7	...........
	297	298	3.75244E+000	1.21192E-006	0.00000E+000	4.54766E-006	0.00000E+000	7.56490E-004	-3.27687E+002	7	...........
	298	299	3.75247E+000	1.21106E-006	0.00000E+000	4.54445E-006	0.00000E+000	7.54007E-004	-3.27687E+002	7	...........
	299	300	3.75248E+000	1.21206E-006	0.00000E+000	4.54823E-006	0.00000E+000	7.55957E-004	-3.27687E+002	7	...........
	300	301	3.75248E+000	1.21204E-006	0.00000E+000	4.54814E-006	0.00000E+000	7.56357E-004	-3.27687E+002	7	...........
	301	302	3.75250E+000	1.21160E-006	0.00000E+000	4.54653E-006	0.00000E+000	7.54157E-004	-3.27687E+002	7	...........
	302	303	3.75252E+000	1.21146E-006	0.00000E+000	4.54602E-006	0.00000E+000	7.55357E-004	-3.27687E+002	7	...........
	303	304	3.75253E+000	1.21186E-006	0.00000E+000	4.54754E-006	0.00000E+000	7.55440E-004	-3.27687E+002	7	...........
	304	305	3.75256E+000	1.21162E-006	0.00000E+000	4.54668E-006	0.00000E+000	7.55107E-004	-3.27687E+002	7	...........
	305	306	3.75257E+000	1.21080E-006	0.00000E+000	4.54360E-006	0.00000E+000	7.55140E-004	-3.27687E+002	7	...........
	306	307	3.75258E+000	1.21103E-006	0.00000E+000	4.54450E-006	0.00000E+000	7.54124E-004	-3.27687E+002	7	...........
	307	308	3.75260E+000	1.21012E-006	0.00000E+000	4.54111E-006	0.00000E+000	7.54624E-004	-3.27687E+002	7	...........
	308	309	3.75260E+000	1.21032E-006	0.00000E+000	4.54184E-006	0.00000E+000	7.56290E-004	-3.27687E+002	7	...........
	309	310	3.75262E+000	1.20969E-006	0.00000E+000	4.53949E-006	0.00000E+000	7.55124E-004	-3.27687E+002	7	...........
	310	311	3.75264E+000	1.20984E-006	0.00000E+000	4.54011E-006	0.00000E+000	7.54907E-004	-3.27687E+002	7	...........
	311	312	3.75266E+000	1.20929E-006	0.00000E+000	4.53807E-006	0.00000E+000	7.56340E-004	-3.27687E+002	7	...........
	312	313	3.75267E+000	1.20993E-006	0.00000E+000	4.54047E-006	0.00000E+000	7.56057E-004	-3.27687E+002	7	...........
	313	314	3.75269E+000	1.20900E-006	0.00000E+000	4.53702E-006	0.00000E+000	7.55074E-004	-3.27687E+002	7	...........
	314	315	3.75270E+000	1.20936E-006	0.00000E+000	4.53836E-006	0.00000E+000	7.55124E-004	-3.27687E+002	7	...........
	315	316	3.75273E+000	1.21006E-006	0.00000E+000	4.54104E-006	0.00000E+000	7.56474E-004	-3.27687E+002	7	...........
	316	317	3.75275E+000	1.20961E-006	0.00000E+000	4.53937E-006	0.00000E+000	7.57457E-004	-3.27687E+002	7	...........
	317	318	3.75276E+000	1.20844E-006	0.00000E+000	4.53498E-006	0.00000E+000	7.57424E-004	-3.27687E+002	7	...........
	318	319	3.75277E+000	1.20857E-006	0.00000E+000	4.53548E-006	0.00000E+000	7.55424E-004	-3.27687E+002	7	...........
	319	320	3.75278E+000	1.20917E-006	0.00000E+000	4.53776E-006	0.00000E+000	7.56757E-004	-3.27687E+002	7	...........
	320	321	3.75281E+000	1.20983E-006	0.00000E+000	4.54026E-006	0.00000E+000	7.55307E-004	-3.27687E+002	7	...........
	321	322	3.75282E+000	1.20927E-006	0.00000E+000	4.53816E-006	0.00000E+000	7.57157E-004	-3.27687E+002	7	...........
	322	323	3.75282E+000	1.20908E-006	0.00000E+000	4.53747E-006	0.00000E+000	7.58174E-004	-3.27687E+002	7	...........
	323	324	3.75284E+000	1.20946E-006	0.00000E+000	4.53891E-006	0.00000E+000	7.56174E-004	-3.27687E+002	7	...........
	324	325	3.75285E+000	1.20945E-006	0.00000E+000	4.53888E-006	0.00000E+000	7.57357E-004	-3.27687E+002	7	...........
	325	326	3.75288E+000	1.20935E-006	0.00000E+000	4.53855E-006	0.00000E+000	7.56457E-004	-3.27687E+002	7	...........
	326	327	3.75289E+000	1.20899E-006	0.00000E+000	4.53719E-006	0.00000E+000	7.58024E-004	-3.27687E+002	7	...........
	327	328	3.75290E+000	1.20969E-006	0.00000E+000	4.53985E-006	0.00000E+000	7.59657E-004	-3.27687E+002	7	...........
	328	329	3.75291E+000	1.20979E-006	0.00000E+000	4.54022E-006	0.00000E+000	7.58174E-004	-3.27687E+002	7	...........
	329	330	3.75292E+000	1.20898E-006	0.00000E+000	4.53722E-006	0.00000E+000	7.58690E-004	-3.27687E+002	7	...........
	330	331	3.75294E+000	1.20997E-006	0.00000E+000	4.54095E-006	0.00000E+000	7.58024E-004	-3.27687E+002	7	...........
	331	332	3.75296E+000	1.20987E-006	0.00000E+000	4.54058E-006	0.00000E+000	7.59390E-004	-3.27687E+002	7	...........
	332	333	3.75297E+000	1.21045E-006	0.00000E+000	4.54278E-006	0.00000E+000	7.60174E-004	-3.27687E+002	7	...........
	333	334	3.75298E+000	1.21015E-006	0.00000E+000	4.54165E-006	0.00000E+000	7.59040E-004	-3.27687E+002	7	...........
	334	335	3.75299E+000	1.20983E-006	0.00000E+000	4.54048E-006	0.00000E+000	7.58557E-004	-3.27687E+002	7	...........
	335	336	3.75300E+000	1.20980E-006	0.00000E+000	4.54040E-006	0.00000E+000	7.58857E-004	-3.27687E+002	7	...........
	336	337	3.75302E+000	1.20925E-006	0.00000E+000	4.53835E-006	0.00000E+000	7.61207E-004	-3.27687E+002	7	...........
	337	338	3.75303E+000	1.20938E-006	0.00000E+000	4.53885E-006	0.00000E+000	7.59390E-004	-3.27687E+002	7	...........
	338	339	3.75303E+000	1.20835E-006	0.00000E+000	4.53498E-006	0.00000E+000	7.61474E-004	-3.27687E+002	7	...........
	339	340	3.75305E+000	1.20829E-006	0.00000E+000	4.53478E-006	0.00000E+000	7.60490E-004	-3.27687E+002	7	...........
	340	341	3.75307E+000	1.20834E-006	0.00000E+000	4.53497E-006	0.00000E+000	7.58207E-004	-3.27687E+002	7	...........
	341	342	3.75308E+000	1.20781E-006	0.00000E+000	4.53300E-006	0.00000E+000	7.57940E-004	-3.27687E+002	7	...........
	342	343	3.75309E+000	1.20804E-006	0.00000E+000	4.53388E-006	0.00000E+000	7.58740E-004	-3.27687E+002	7	...........
	343	344	3.75311E+000	1.20855E-006	0.00000E+000	4.53581E-006	0.00000E+000	7.60074E-004	-3.27687E+002	7	...........
	344	345	3.75310E+000	1.20892E-006	0.00000E+000	4.53719E-006	0.00000E+000	7.60457E-004	-3.27687E+002	7	...........
	345	346	3.75312E+000	1.20792E-006	0.00000E+000	4.53348E-006	0.00000E+000	7.61724E-004	-3.27687E+002	7	...........
	346	347	3.75314E+000	1.20734E-006	0.00000E+000	4.53133E-006	0.00000E+000	7.61657E-004	-3.27687E+002	7	...........
	347	348	3.75314E+000	1.20860E-006	0.00000E+000	4.53605E-006	0.00000E+000	7.62374E-004	-3.27687E+002	7	...........
	348	349	3.75315E+000	1.20810E-006	0.00000E+000	4.53419E-006	0.00000E+000	7.63140E-004	-3.27687E+002	7	...........
	349	350	3.75317E+000	1.20798E-006	0.00000E+000	4.53375E-006	0.00000E+000	7.60824E-004	-3.27687E+002	7	...........
	350	351	3.75317E+000	1.20762E-006	0.00000E+000	4.53242E-006	0.00000E+000	7.60624E-004	-3.27687E+002	7	...........
	351	352	3.75318E+000	1.20773E-006	0.00000E+000	4.53282E-006	0.00000E+000	7.61124E-004	-3.27687E+002	7	...........
	352	353	3.75319E+000	1.20659E-006	0.00000E+000	4.52855E-006	0.00000E+000	7.61207E-004	-3.27687E+002	7	...........
	353	354	3.75320E+000	1.20711E-006	0.00000E+000	4.53054E-006	0.00000E+000	7.62057E-004	-3.27687E+002	7	...........
	354	355	3.75321E+000	1.20762E-006	0.00000E+000	4.53246E-006	0.00000E+000	7.63357E-004	-3.27687E+002	7	...........
	355	356	3.75322E+000	1.20796E-006	0.00000E+000	4.53375E-006	0.00000E+000	7.65424E-004	-3.27687E+002	7	...........
	356	357	3.75323E+000	1.20837E-006	0.00000E+000	4.53529E-006	0.00000E+000	7.62257E-004	-3.27687E+002	7	...........
	357	358	3.75324E+000	1.20923E-006	0.00000E+000	4.53851E-006	0.00000E+000	7.61524E-004	-3.27687E+002	7	...........
	358	359	3.75325E+000	1.20831E-006	0.00000E+000	4.53509E-006	0.00000E+000	7.63374E-004	-3.27687E+002	7	...........
	359	360	3.75325E+000	1.20785E-006	0.00000E+000	4.53337E-006	0.00000E+000	7.62040E-004	-3.27687E+002	7	...........
	360	361	3.75326E+000	1.20690E-006	0.00000E+000	4.52981E-006	0.00000E+000	7.62874E-004	-3.27687E+002	7	...........
	361	362	3.75327E+000	1.20763E-006	0.00000E+000	4.53258E-006	0.00000E+000	7.61974E-004	-3.27687E+002	7	...........
	362	363	3.75328E+000	1.20651E-006	0.00000E+000	4.52835E-006	0.00000E+000	7.61240E-004	-3.27687E+002	7	...........
	363	364	3.75328E+000	1.20619E-006	0.00000E+000	4.52717E-006	0.00000E+000	7.61124E-004	-3.27687E+002	7	...........
	364	365	3.75330E+000	1.20619E-006	0.00000E+000	4.52718E-006	0.00000E+000	7.62824E-004	-3.27687E+002	7	...........
	365	366	3.75331E+000	1.20679E-006	0.00000E+000	4.52946E-006	0.00000E+000	7.61240E-004	-3.27687E+002	7	...........
	366	367	3.75332E+000	1.20702E-006	0.00000E+000	4.53033E-006	0.00000E+000	7.62074E-004	-3.27687E+002	7	...........
	367	368	3.75332E+000	1.20705E-006	0.00000E+000	4.53044E-006	0.00000E+000	7.61140E-004	-3.27687E+002	7	...........
	368	369	3.75332E+000	1.20703E-006	0.00000E+000	4.53037E-006	0.00000E+000	7.59074E-004	-3.27687E+002	7	...........
	369	370	3.75333E+000	1.20740E-006	0.00000E+000	4.53176E-006	0.00000E+000	7.61574E-004	-3.27687E+002	7	...........
	370	371	3.75334E+000	1.20752E-006	0.00000E+000	4.53224E-006	0.00000E+000	7.60157E-004	-3.27687E+002	7	...........
	371	372	3.75335E+000	1.20578E-006	0.00000E+000	4.52571E-006	0.00000E+000	7.60074E-004	-3.27687E+002	7	...........
	372	373	3.75336E+000	1.20577E-006	0.00000E+000	4.52570E-006	0.00000E+000	7.60057E-004	-3.27687E+002	7	...........
	373	374	3.75337E+000	1.20633E-006	0.00000E+000	4.52778E-006	0.00000E+000	7.59724E-004	-3.27687E+002	7	...........
	374	375	3.75338E+000	1.20693E-006	0.00000E+000	4.53006E-006	0.00000E+000	7.60857E-004	-3.27687E+002	7	...........
	375	376	3.75339E+000	1.20586E-006	0.00000E+000	4.52607E-006	0.00000E+000	7.58507E-004	-3.27687E+002	7	...........
	376	377	3.75339E+000	1.20608E-006	0.00000E+000	4.52690E-006	0.00000E+000	7.58957E-004	-3.27687E+002	7	...........
	377	378	3.75339E+000	1.20544E-006	0.00000E+000	4.52449E-006	0.00000E+000	7.60024E-004	-3.27687E+002	7	...........
	378	379	3.75341E+000	1.20548E-006	0.00000E+000	4.52465E-006	0.00000E+000	7.58640E-004	-3.27687E+002	7	...........
	379	380	3.75342E+000	1.20625E-006	0.00000E+000	4.52755E-006	0.00000E+000	7.59790E-004	-3.27687E+002	7	...........
	380	381	3.75343E+000	1.20699E-006	0.00000E+000	4.53035E-006	0.00000E+000	7.59290E-004	-3.27687E+002	7	...........
	381	382	3.75344E+000	1.20618E-006	0.00000E+000	4.52731E-006	0.00000E+000	7.57690E-004	-3.27687E+002	7	...........
	382	383	3.75345E+000	1.20576E-006	0.00000E+000	4.52575E-006	0.00000E+000	7.60274E-004	-3.27687E+002	7	...........
	383	384	3.75346E+000	1.20558E-006	0.00000E+000	4.52511E-006	0.00000E+000	7.57090E-004	-3.27687E+002	7	...........
	384	385	3.75347E+000	1.20546E-006	0.00000E+000	4.52466E-006	0.00000E+000	7.57057E-004	-3.27687E+002	7	...........
	385	386	3.75348E+000	1.20559E-006	0.00000E+000	4.52515E-006	0.00000E+000	7.57774E-004	-3.27687E+002	7	...........
	386	387	3.75349E+000	1.20652E-006	0.00000E+000	4.52865E-006	0.00000E+000	7.58374E-004	-3.27687E+002	7	...........
	387	388	3.75349E+000	1.20571E-006	0.00000E+000	4.52564E-006	0.00000E+000	7.56024E-004	-3.27687E+002	7	...........
	388	389	3.75351E+000	1.20719E-006	0.00000E+000	4.53118E-006	0.00000E+000	7.56790E-004	-3.27687E+002	7	...........
	389	390	3.75352E+000	1.20584E-006	0.00000E+000	4.52614E-006	0.00000E+000	7.55957E-004	-3.27687E+002	7	...........
	390	391	3.75352E+000	1.20598E-006	0.00000E+000	4.52667E-006	0.00000E+000	7.55524E-004	-3.27687E+002	7	...........
	391	392	3.75354E+000	1.20576E-006	0.00000E+000	4.52584E-006	0.00000E+000	7.55640E-004	-3.27687E+002	7	...........
	392	393	3.75354E+000	1.20697E-006	0.00000E+000	4.53042E-006	0.00000E+000	7.56657E-004	-3.27687E+002	7	...........
	393	394	3.75355E+000	1.20584E-006	0.00000E+000	4.52619E-006	0.00000E+000	7.55507E-004	-3.27687E+002	7	...........
	394	395	3.75357E+000	1.20541E-006	0.00000E+000	4.52458E-006	0.00000E+000	7.54274E-004	-3.27687E+002	7	...........
	395	396	3.75357E+000	1.20586E-006	0.00000E+000	4.52629E-006	0.00000E+000	7.56324E-004	-3.27687E+002	7	...........
	396	397	3.75358E+000	1.20719E-006	0.00000E+000	4.53127E-006	0.00000E+000	7.52357E-004	-3.27687E+002	7	...........
	397	398	3.75360E+000	1.20665E-006	0.00000E+000	4.52927E-006	0.00000E+000	7.54024E-004	-3.27687E+002	7	...........
	398	399	3.75361E+000	1.20622E-006	0.00000E+000	4.52770E-006	0.00000E+000	7.54924E-004	-3.27687E+002	7	...........
	399	400	3.75362E+000	1.20639E-006	0.00000E+000	4.52832E-006	0.00000E+000	7.51857E-004	-3.27687E+002	7	...........
	400	401	3.75363E+000	1.20672E-006	0.00000E+000	4.52960E-006	0.00000E+000	7.52307E-004	-3.27687E+002	7	...........
	401	402	3.75364E+000	1.20576E-006	0.00000E+000	4.52599E-006	0.00000E+000	7.50857E-004	-3.27687E+002	7	...........
	402	403	3.75365E+000	1.20553E-006	0.00000E+000	4.52514E-006	0.00000E+000	7.52607E-004	-3.27687E+002	7	...........
	403	404	3.75367E+000	1.20572E-006	0.00000E+000	4.52586E-006	0.00000E+000	7.48424E-004	-3.27687E+002	7	...........
	404	405	3.75368E+000	1.20550E-006	0.00000E+000	4.52507E-006	0.00000E+000	7.51840E-004	-3.27687E+002	7	...........
	405	406	3.75368E+000	1.20479E-006	0.00000E+000	4.52238E-006	0.00000E+000	7.51240E-004	-3.27687E+002	7	...........
	406	407	3.75371E+000	1.20401E-006	0.00000E+000	4.51951E-006	0.00000E+000	7.48607E-004	-3.27687E+002	7	...........
	407	408	3.75372E+000	1.20348E-006	0.00000E+000	4.51752E-006	0.00000E+000	7.48240E-004	-3.27687E+002	7	...........
	408	409	3.75371E+000	1.20315E-006	0.00000E+000	4.51627E-006	0.00000E+000	7.50074E-004	-3.27687E+002	7	...........
	409	410	3.75373E+000	1.20375E-006	0.00000E+000	4.51854E-006	0.00000E+000	7.49524E-004	-3.27687E+002	7	...........
	410	411	3.75374E+000	1.20334E-006	0.00000E+000	4.51704E-006	0.00000E+000	7.46357E-004	-3.27687E+002	7	...........
	411	412	3.75375E+000	1.20349E-006	0.00000E+000	4.51760E-006	0.00000E+000	7.47540E-004	-3.27687E+002	7	...........
	412	413	3.75377E+000	1.20262E-006	0.00000E+000	4.51436E-006	0.00000E+000	7.46007E-004	-3.27687E+002	7	...........
	413	414	3.75378E+000	1.20208E-006	0.00000E+000	4.51235E-006	0.00000E+000	7.46340E-004	-3.27687E+002	7	...........
	414	415	3.75380E+000	1.20233E-006	0.00000E+000	4.51330E-006	0.00000E+000	7.47024E-004	-3.27687E+002	7	...........
	415	416	3.75380E+000	1.20272E-006	0.00000E+000	4.51477E-006	0.00000E+000	7.43674E-004	-3.27687E+002	7	...........
	416	417	3.75381E+000	1.20343E-006	0.00000E+000	4.51745E-006	0.00000E+000	7.42224E-004	-3.27687E+002	7	...........
	417	418	3.75382E+000	1.20371E-006	0.00000E+000	4.51850E-006	0.00000E+000	7.44457E-004	-3.27687E+002	7	...........
	418	419	3.75384E+000	1.20342E-006	0.00000E+000	4.51745E-006	0.00000E+000	7.39674E-004	-3.27687E+002	7	...........
	419	420	3.75384E+000	1.20346E-006	0.00000E+000	4.51761E-006	0.00000E+000	7.45190E-004	-3.27687E+002	7	...........
	420	421	3.75386E+000	1.20355E-006	0.00000E+000	4.51795E-006	0.00000E+000	7.42490E-004	-3.27687E+002	7	...........
	421	422	3.75388E+000	1.20354E-006	0.00000E+000	4.51795E-006	0.00000E+000	7.44274E-004	-3.27687E+002	7	...........
	422	423	3.75389E+000	1.20309E-006	0.00000E+000	4.51628E-006	0.00000E+000	7.41440E-004	-3.27687E+002	7	...........
	423	424	3.75390E+000	1.20347E-006	0.00000E+000	4.51772E-006	0.00000E+000	7.39990E-004	-3.27687E+002	7	...........
	424	425	3.75391E+000	1.20281E-006	0.00000E+000	4.51525E-006	0.00000E+000	7.40924E-004	-3.27687E+002	7	...........
	425	426	3.75392E+000	1.20275E-006	0.00000E+000	4.51502E-006	0.00000E+000	7.40874E-004	-3.27687E+002	7	...........
	426	427	3.75394E+000	1.20253E-006	0.00000E+000	4.51422E-006	0.00000E+000	7.40557E-004	-3.27687E+002	7	...........
	427	428	3.75394E+000	1.20290E-006	0.00000E+000	4.51559E-006	0.00000E+000	7.38274E-004	-3.27687E+002	7	...........
	428	429	3.75395E+000	1.20305E-006	0.00000E+000	4.51618E-006	0.00000E+000	7.39374E-004	-3.27687E+002	7	...........
	429	430	3.75397E+000	1.20274E-006	0.00000E+000	4.51504E-006	0.00000E+000	7.40774E-004	-3.27687E+002	7	...........
	430	431	3.75397E+000	1.20365E-006	0.00000E+000	4.51846E-006	0.00000E+000	7.37507E-004	-3.27687E+002	7	...........
	431	432	3.75399E+000	1.20405E-006	0.00000E+000	4.51998E-006	0.00000E+000	7.38057E-004	-3.27687E+002	7	...........
	432	433	3.75401E+000	1.20406E-006	0.00000E+000	4.52005E-006	0.00000E+000	7.39640E-004	-3.27687E+002	7	...........
	433	434	3.75402E+000	1.20396E-006	0.00000E+000	4.51970E-006	0.00000E+000	7.36407E-004	-3.27687E+002	7	...........
	434	435	3.75403E+000	1.20417E-006	0.00000E+000	4.52050E-006	0.00000E+000	7.35740E-004	-3.27687E+002	7	...........
	435	436	3.75405E+000	1.20367E-006	0.00000E+000	4.51863E-006	0.00000E+000	7.37140E-004	-3.27687E+002	7	...........
	436	437	3.75406E+000	1.20307E-006	0.00000E+000	4.51641E-006	0.00000E+000	7.37140E-004	-3.27687E+002	7	...........
	437	438	3.75407E+000	1.20297E-006	0.00000E+000	4.51604E-006	0.00000E+000	7.36990E-004	-3.27687E+002	7	...........
	438	439	3.75408E+000	1.20352E-006	0.00000E+000	4.51810E-006	0.00000E+000	7.39340E-004	-3.27687E+002	7	...........
	439	440	3.75409E+000	1.20260E-006	0.00000E+000	4.51465E-006	0.00000E+000	7.39690E-004	-3.27687E+002	7	...........
	440	441	3.75411E+000	1.20401E-006	0.00000E+000	4.51998E-006	0.00000E+000	7.37374E-004	-3.27687E+002	7	...........
	441	442	3.75412E+000	1.20262E-006	0.00000E+000	4.51479E-006	0.00000E+000	7.36357E-004	-3.27687E+002	7	...........
	442	443	3.75413E+000	1.20254E-006	0.00000E+000	4.51451E-006	0.00000E+000	7.34940E-004	-3.27687E+002	7	...........
	443	444	3.75415E+000	1.20340E-006	0.00000E+000	4.51773E-006	0.00000E+000	7.33840E-004	-3.27687E+002	7	...........
	444	445	3.75416E+000	1.20390E-006	0.00000E+000	4.51962E-006	0.00000E+000	7.34774E-004	-3.27687E+002	7	...........
	445	446	3.75416E+000	1.20276E-006	0.00000E+000	4.51536E-006	0.00000E+000	7.34640E-004	-3.27687E+002	7	...........
	446	447	3.75418E+000	1.20284E-006	0.00000E+000	4.51568E-006	0.00000E+000	7.32857E-004	-3.27687E+002	7	...........
	447	448	3.75419E+000	1.20173E-006	0.00000E+000	4.51152E-006	0.00000E+000	7.33224E-004	-3.27687E+002	7	...........
	448	449	3.75420E+000	1.20185E-006	0.00000E+000	4.51200E-006	0.00000E+000	7.34640E-004	-3.27687E+002	7	...........
	449	450	3.75422E+000	1.20215E-006	0.00000E+000	4.51312E-006	0.00000E+000	7.33107E-004	-3.27687E+002	7	...........
	450	451	3.75422E+000	1.20257E-006	0.00000E+000	4.51473E-006	0.00000E+000	7.35390E-004	-3.27687E+002	7	...........
	451	452	3.75424E+000	1.20240E-006	0.00000E+000	4.51411E-006	0.00000E+000	7.31757E-004	-3.27687E+002	7	...........
	452	453	3.75424E+000	1.20252E-006	0.00000E+000	4.51457E-006	0.00000E+000	7.35024E-004	-3.27687E+002	7	...........
	453	454	3.75425E+000	1.20236E-006	0.00000E+000	4.51394E-006	0.00000E+000	7.32024E-004	-3.27687E+002	7	...........
	454	455	3.75426E+000	1.20144E-006	0.00000E+000	4.51051E-006	0.00000E+000	7.33607E-004	-3.27687E+002	7	...........
	455	456	3.75427E+000	1.20197E-006	0.00000E+000	4.51254E-006	0.00000E+000	7.31624E-004	-3.27687E+002	7	...........
	456	457	3.75428E+000	1.20183E-006	0.00000E+000	4.51202E-006	0.00000E+000	7.36407E-004	-3.27687E+002	7	...........
	457	458	3.75430E+000	1.20176E-006	0.00000E+000	4.51176E-006	0.00000E+000	7.33257E-004	-3.27687E+002	7	...........
	458	459	3.75431E+000	1.20190E-006	0.00000E+000	4.51232E-006	0.00000E+000	7.34274E-004	-3.27687E+002	7	...........
	459	460	3.75432E+000	1.20058E-006	0.00000E+000	4.50736E-006	0.00000E+000	7.34824E-004	-3.27687E+002	7	...........
	460	461	3.75433E+000	1.20055E-006	0.00000E+000	4.50728E-006	0.00000E+000	7.34140E-004	-3.27687E+002	7	...........
	461	462	3.75435E+000	1.20027E-006	0.00000E+000	4.50623E-006	0.00000E+000	7.34290E-004	-3.27687E+002	7	...........
	462	463	3.75435E+000	1.20060E-006	0.00000E+000	4.50748E-006	0.00000E+000	7.33724E-004	-3.27687E+002	7	...........
	463	464	3.75436E+000	1.20126E-006	0.00000E+000	4.50995E-006	0.00000E+000	7.36590E-004	-3.27687E+002	7	...........
	464	465	3.75436E+000	1.20212E-006	0.00000E+000	4.51321E-006	0.00000E+000	7.36624E-004	-3.27687E+002	7	...........
	465	466	3.75439E+000	1.20177E-006	0.00000E+000	4.51190E-006	0.00000E+000	7.36090E-004	-3.27687E+002	7	...........
	466	467	3.75440E+000	1.20089E-006	0.00000E+000	4.50862E-006	0.00000E+000	7.34307E-004	-3.27687E+002	7	...........
	467	468	3.75440E+000	1.20143E-006	0.00000E+000	4.51065E-006	0.00000E+000	7.35257E-004	-3.27687E+002	7	...........
	468	469	3.75442E+000	1.20201E-006	0.00000E+000	4.51284E-006	0.00000E+000	7.35640E-004	-3.27687E+002	7	...........
	469	470	3.75443E+000	1.20204E-006	0.00000E+000	4.51296E-006	0.00000E+000	7.37790E-004	-3.27687E+002	7	...........
	470	471	3.75444E+000	1.20123E-006	0.00000E+000	4.50996E-006	0.00000E+000	7.37640E-004	-3.27687E+002	7	...........
	471	472	3.75445E+000	1.20131E-006	0.00000E+000	4.51025E-006	0.00000E+000	7.37857E-004	-3.27687E+002	7	...........
	472	473	3.75447E+000	1.20091E-006	0.00000E+000	4.50879E-006	0.00000E+000	7.37524E-004	-3.27687E+002	7	...........
	473	474	3.75447E+000	1.20114E-006	0.00000E+000	4.50964E-006	0.00000E+000	7.38924E-004	-3.27687E+002	7	...........
	474	475	3.75449E+000	1.20118E-006	0.00000E+000	4.50981E-006	0.00000E+000	7.38490E-004	-3.27687E+002	7	...........
	475	476	3.75450E+000	1.20131E-006	0.00000E+000	4.51032E-006	0.00000E+000	7.36840E-004	-3.27687E+002	7	...........
	476	477	3.75450E+000	1.20105E-006	0.00000E+000	4.50936E-006	0.00000E+000	7.37007E-004	-3.27687E+002	7	...........
	477	478	3.75451E+000	1.20093E-006	0.00000E+000	4.50893E-006	0.00000E+000	7.38640E-004	-3.27687E+002	7	...........
	478	479	3.75453E+000	1.20006E-006	0.00000E+000	4.50568E-006	0.00000E+000	7.40007E-004	-3.27687E+002	7	...........
	479	480	3.75453E+000	1.19969E-006	0.00000E+000	4.50427E-006	0.00000E+000	7.38474E-004	-3.27687E+002	7	...........
	480	481	3.75454E+000	1.20109E-006	0.00000E+000	4.50954E-006	0.00000E+000	7.39757E-004	-3.27687E+002	7	...........
	481	482	3.75456E+000	1.20122E-006	0.00000E+000	4.51006E-006	0.00000E+000	7.42007E-004	-3.27687E+002	7	...........
	482	483	3.75457E+000	1.20127E-006	0.00000E+000	4.51026E-006	0.00000E+000	7.41924E-004	-3.27687E+002	7	...........
	483	484	3.75458E+000	1.20071E-006	0.00000E+000	4.50815E-006	0.00000E+000	7.40690E-004	-3.27687E+002	7	...........
	484	485	3.75458E+000	1.20098E-006	0.00000E+000	4.50916E-006	0.00000E+000	7.43274E-004	-3.27687E+002	7	...........
	485	486	3.75459E+000	1.20035E-006	0.00000E+000	4.50684E-006	0.00000E+000	7.42307E-004	-3.27687E+002	7	...........
	486	487	3.75461E+000	1.20052E-006	0.00000E+000	4.50749E-006	0.00000E+000	7.41207E-004	-3.27687E+002	7	...........
	487	488	3.75462E+000	1.20097E-006	0.00000E+000	4.50918E-006	0.00000E+000	7.43490E-004	-3.27687E+002	7	...........
	488	489	3.75462E+000	1.20212E-006	0.00000E+000	4.51351E-006	0.00000E+000	7.44207E-004	-3.27687E+002	7	...........
	489	490	3.75463E+000	1.20193E-006	0.00000E+000	4.51281E-006	0.00000E+000	7.45890E-004	-3.27687E+002	7	...........
	490	491	3.75464E+000	1.20151E-006	0.00000E+000	4.51122E-006	0.00000E+000	7.46890E-004	-3.27687E+002	7	...........
	491	492	3.75464E+000	1.20164E-006	0.00000E+000	4.51172E-006	0.00000E+000	7.45507E-004	-3.27687E+002	7	...........
	492	493	3.75465E+000	1.20262E-006	0.00000E+000	4.51541E-006	0.00000E+000	7.44540E-004	-3.27687E+002	7	...........
	493	494	3.75465E+000	1.20243E-006	0.00000E+000	4.51471E-006	0.00000E+000	7.43940E-004	-3.27687E+002	7	...........
	494	495	3.75466E+000	1.20249E-006	0.00000E+000	4.51492E-006	0.00000E+000	7.43874E-004	-3.27687E+002	7	...........
	495	496	3.75467E+000	1.20156E-006	0.00000E+000	4.51146E-006	0.00000E+000	7.48874E-004	-3.27687E+002	7	...........
	496	497	3.75468E+000	1.20178E-006	0.00000E+000	4.51230E-006	0.00000E+000	7.49074E-004	-3.27687E+002	7	...........
	497	498	3.75469E+000	1.20109E-006	0.00000E+000	4.50971E-006	0.00000E+000	7.48640E-004	-3.27687E+002	7	...........
	498	499	3.75470E+000	1.20152E-006	0.00000E+000	4.51135E-006	0.00000E+000	7.47190E-004	-3.27687E+002	7	...........
	499	500	3.75471E+000	1.20045E-006	0.00000E+000	4.50734E-006	0.00000E+000	7.48940E-004	-3.27687E+002	7	...........
	500	501	3.75471E+000	1.20130E-006	0.00000E+000	4.51055E-006	0.00000E+000	7.48590E-004	-3.27687E+002	7	...........
	501	502	3.75472E+000	1.20123E-006	0.00000E+000	4.51026E-006	0.00000E+000	7.48874E-004	-3.27687E+002	7	...........
	502	503	3.75473E+000	1.20026E-006	0.00000E+000	4.50664E-006	0.00000E+000	7.51124E-004	-3.27687E+002	7	...........
	503	504	3.75473E+000	1.20071E-006	0.00000E+000	4.50836E-006	0.00000E+000	7.49590E-004	-3.27687E+002	7	...........
	504	505	3.75474E+000	1.20097E-006	0.00000E+000	4.50934E-006	0.00000E+000	7.48890E-004	-3.27687E+002	7	...........
	505	506	3.75475E+000	1.20116E-006	0.00000E+000	4.51006E-006	0.00000E+000	7.50757E-004	-3.27687E+002	7	...........
	506	507	3.75476E+000	1.20025E-006	0.00000E+000	4.50664E-006	0.00000E+000	7.51707E-004	-3.27687E+002	7	...........
	507	508	3.75477E+000	1.20061E-006	0.00000E+000	4.50800E-006	0.00000E+000	7.51940E-004	-3.27687E+002	7	...........
	508	509	3.75477E+000	1.20085E-006	0.00000E+000	4.50893E-006	0.00000E+000	7.51190E-004	-3.27687E+002	7	...........
	509	510	3.75477E+000	1.19984E-006	0.00000E+000	4.50514E-006	0.00000E+000	7.51907E-004	-3.27687E+002	7	...........
	510	511	3.75478E+000	1.19997E-006	0.00000E+000	4.50562E-006	0.00000E+000	7.53807E-004	-3.27687E+002	7	...........
	511	512	3.75478E+000	1.19988E-006	0.00000E+000	4.50528E-006	0.00000E+000	7.53574E-004	-3.27687E+002	7	...........
	512	513	3.75479E+000	1.20080E-006	0.00000E+000	4.50876E-006	0.00000E+000	7.52190E-004	-3.27687E+002	7	...........
	513	514	3.75480E+000	1.20160E-006	0.00000E+000	4.51175E-006	0.00000E+000	7.51774E-004	-3.27687E+002	7	...........
	514	515	3.75481E+000	1.20011E-006	0.00000E+000	4.50618E-006	0.00000E+000	7.51040E-004	-3.27687E+002	7	...........
	515	516	3.75482E+000	1.19923E-006	0.00000E+000	4.50290E-006	0.00000E+000	7.53107E-004	-3.27687E+002	7	...........
	516	517	3.75482E+000	1.19959E-006	0.00000E+000	4.50426E-006	0.00000E+000	7.54257E-004	-3.27687E+002	7	...........
	517	518	3.75482E+000	1.19994E-006	0.00000E+000	4.50556E-006	0.00000E+000	7.54107E-004	-3.27687E+002	7	...........
	518	519	3.75483E+000	1.19904E-006	0.00000E+000	4.50220E-006	0.00000E+000	7.54174E-004	-3.27687E+002	7	...........
	519	520	3.75484E+000	1.19932E-006	0.00000E+000	4.50324E-006	0.00000E+000	7.55424E-004	-3.27687E+002	7	...........
	520	521	3.75484E+000	1.19846E-006	0.00000E+000	4.50001E-006	0.00000E+000	7.55590E-004	-3.27687E+002	7	...........
	521	522	3.75485E+000	1.19826E-006	0.00000E+000	4.49928E-006	0.00000E+000	7.56007E-004	-3.27687E+002	7	...........
	522	523	3.75486E+000	1.19817E-006	0.00000E+000	4.49896E-006	0.00000E+000	7.57924E-004	-3.27687E+002	7	...........
	523	524	3.75486E+000	1.19851E-006	0.00000E+000	4.50024E-006	0.00000E+000	7.53124E-004	-3.27687E+002	7	...........
	524	525	3.75487E+000	1.19866E-006	0.00000E+000	4.50080E-006	0.00000E+000	7.56924E-004	-3.27687E+002	7	...........
	525	526	3.75488E+000	1.19990E-006	0.00000E+000	4.50548E-006	0.00000E+000	7.54540E-004	-3.27687E+002	7	...........
	526	527	3.75489E+000	1.19902E-006	0.00000E+000	4.50217E-006	0.00000E+000	7.56290E-004	-3.27687E+002	7	...........
	527	528	3.75489E+000	1.19884E-006	0.00000E+000	4.50149E-006	0.00000E+000	7.58140E-004	-3.27687E+002	7	...........
	528	529	3.75489E+000	1.19808E-006	0.00000E+000	4.49865E-006	0.00000E+000	7.55990E-004	-3.27687E+002	7	...........
	529	530	3.75490E+000	1.19868E-006	0.00000E+000	4.50091E-006	0.00000E+000	7.56674E-004	-3.27687E+002	7	...........
	530	531	3.75491E+000	1.19877E-006	0.00000E+000	4.50128E-006	0.00000E+000	7.56007E-004	-3.27687E+002	7	...........
	531	532	3.75491E+000	1.19842E-006	0.00000E+000	4.49994E-006	0.00000E+000	7.57057E-004	-3.27687E+002	7	...........
	532	533	3.75492E+000	1.19819E-006	0.00000E+000	4.49910E-006	0.00000E+000	7.55740E-004	-3.27687E+002	7	...........
	533	534	3.75492E+000	1.19836E-006	0.00000E+000	4.49975E-006	0.00000E+000	7.55290E-004	-3.27687E+002	7	...........
	534	535	3.75493E+000	1.19771E-006	0.00000E+000	4.49733E-006	0.00000E+000	7.57224E-004	-3.27687E+002	7	...........
	535	536	3.75494E+000	1.19849E-006	0.00000E+000	4.50025E-006	0.00000E+000	7.57140E-004	-3.27687E+002	7	...........
	536	537	3.75494E+000	1.19860E-006	0.00000E+000	4.50065E-006	0.00000E+000	7.55874E-004	-3.27687E+002	7	...........
	537	538	3.75495E+000	1.19856E-006	0.00000E+000	4.50055E-006	0.00000E+000	7.56607E-004	-3.27687E+002	7	...........
	538	539	3.75495E+000	1.19810E-006	0.00000E+000	4.49882E-006	0.00000E+000	7.59857E-004	-3.27687E+002	7	...........
	539	540	3.75496E+000	1.19790E-006	0.00000E+000	4.49806E-006	0.00000E+000	7.60007E-004	-3.27687E+002	7	...........
	540	541	3.75496E+000	1.19823E-006	0.00000E+000	4.49929E-006	0.00000E+000	7.58057E-004	-3.27687E+002	7	...........
	541	542	3.75496E+000	1.19814E-006	0.00000E+000	4.49899E-006	0.00000E+000	7.58624E-004	-3.27687E+002	7	...........
	542	543	3.75497E+000	1.19793E-006	0.00000E+000	4.49818E-006	0.00000E+000	7.57957E-004	-3.27687E+002	7	...........
	543	544	3.75498E+000	1.19791E-006	0.00000E+000	4.49813E-006	0.00000E+000	7.59857E-004	-3.27687E+002	7	...........
	544	545	3.75498E+000	1.19785E-006	0.00000E+000	4.49791E-006	0.00000E+000	7.59190E-004	-3.27687E+002	7	...........
	545	546	3.75498E+000	1.19794E-006	0.00000E+000	4.49824E-006	0.00000E+000	7.57974E-004	-3.27687E+002	7	...........
	546	547	3.75499E+000	1.19814E-006	0.00000E+000	4.49901E-006	0.00000E+000	7.58274E-004	-3.27687E+002	7	...........
	547	548	3.75499E+000	1.19812E-006	0.00000E+000	4.49892E-006	0.00000E+000	7.59207E-004	-3.27687E+002	7	...........
	548	549	3.75500E+000	1.19814E-006	0.00000E+000	4.49900E-006	0.00000E+000	7.60224E-004	-3.27687E+002	7	...........
	549	550	3.75501E+000	1.19888E-006	0.00000E+000	4.50179E-006	0.00000E+000	7.60090E-004	-3.27687E+002	7	...........
	550	551	3.75501E+000	1.19851E-006	0.00000E+000	4.50041E-006	0.00000E+000	7.59907E-004	-3.27687E+002	7	...........
	551	552	3.75502E+000	1.19823E-006	0.00000E+000	4.49937E-006	0.00000E+000	7.58357E-004	-3.27687E+002	7	...........
	552	553	3.75502E+000	1.19840E-006	0.00000E+000	4.50001E-006	0.00000E+000	7.58440E-004	-3.27687E+002	7	...........
	553	554	3.75503E+000	1.19896E-006	0.00000E+000	4.50213E-006	0.00000E+000	7.60457E-004	-3.27687E+002	7	...........
	554	555	3.75504E+000	1.19857E-006	0.00000E+000	4.50068E-006	0.00000E+000	7.58957E-004	-3.27687E+002	7	...........
	555	556	3.75504E+000	1.19834E-006	0.00000E+000	4.49983E-006	0.00000E+000	7.60574E-004	-3.27687E+002	7	...........
	556	557	3.75505E+000	1.19835E-006	0.00000E+000	4.49986E-006	0.00000E+000	7.58557E-004	-3.27687E+002	7	...........
	557	558	3.75505E+000	1.19731E-006	0.00000E+000	4.49597E-006	0.00000E+000	7.59424E-004	-3.27687E+002	7	...........
	558	559	3.75506E+000	1.19727E-006	0.00000E+000	4.49582E-006	0.00000E+000	7.59307E-004	-3.27687E+002	7	...........
	559	560	3.75506E+000	1.19761E-006	0.00000E+000	4.49712E-006	0.00000E+000	7.58590E-004	-3.27687E+002	7	...........
	560	561	3.75507E+000	1.19789E-006	0.00000E+000	4.49816E-006	0.00000E+000	7.60090E-004	-3.27687E+002	7	...........
	561	562	3.75507E+000	1.19998E-006	0.00000E+000	4.50602E-006	0.00000E+000	7.60940E-004	-3.27687E+002	7	...........
	562	563	3.75508E+000	1.19863E-006	0.00000E+000	4.50094E-006	0.00000E+000	7.60690E-004	-3.27687E+002	7	...........
	563	564	3.75508E+000	1.19757E-006	0.00000E+000	4.49699E-006	0.00000E+000	7.59990E-004	-3.27687E+002	7	...........
	564	565	3.75509E+000	1.19742E-006	0.00000E+000	4.49641E-006	0.00000E+000	7.59590E-004	-3.27687E+002	7	...........
	565	566	3.75510E+000	1.19817E-006	0.00000E+000	4.49927E-006	0.00000E+000	7.59090E-004	-3.27687E+002	7	...........
	566	567	3.75510E+000	1.19765E-006	0.00000E+000	4.49728E-006	0.00000E+000	7.59390E-004	-3.27687E+002	7	...........
	567	568	3.75511E+000	1.19752E-006	0.00000E+000	4.49681E-006	0.00000E+000	7.62307E-004	-3.27687E+002	7	...........
	568	569	3.75511E+000	1.19708E-006	0.00000E+000	4.49515E-006	0.00000E+000	7.60424E-004	-3.27687E+002	7	...........
	569	570	3.75512E+000	1.19640E-006	0.00000E+000	4.49261E-006	0.00000E+000	7.60990E-004	-3.27687E+002	7	...........
	570	571	3.75513E+000	1.19790E-006	0.00000E+000	4.49828E-006	0.00000E+000	7.58457E-004	-3.27687E+002	7	...........
	571	572	3.75513E+000	1.19711E-006	0.00000E+000	4.49530E-006	0.00000E+000	7.62707E-004	-3.27687E+002	7	...........
	572	573	3.75513E+000	1.19802E-006	0.00000E+000	4.49871E-006	0.00000E+000	7.59874E-004	-3.27687E+002	7	...........
	573	574	3.75515E+000	1.19948E-006	0.00000E+000	4.50422E-006	0.00000E+000	7.61374E-004	-3.27687E+002	7	...........
	574	575	3.75515E+000	1.19808E-006	0.00000E+000	4.49898E-006	0.00000E+000	7.59174E-004	-3.27687E+002	7	...........
	575	576	3.75516E+000	1.19721E-006	0.00000E+000	4.49572E-006	0.00000E+000	7.58824E-004	-3.27687E+002	7	...........
	576	577	3.75517E+000	1.19729E-006	0.00000E+000	4.49604E-006	0.00000E+000	7.59457E-004	-3.27687E+002	7	...........
	577	578	3.75518E+000	1.19787E-006	0.00000E+000	4.49822E-006	0.00000E+000	7.58940E-004	-3.27687E+002	7	...........
	578	579	3.75518E+000	1.19871E-006	0.00000E+000	4.50138E-006	0.00000E+000	7.58107E-004	-3.27687E+002	7	...........
	579	580	3.75520E+000	1.19811E-006	0.00000E+000	4.49914E-006	0.00000E+000	7.56140E-004	-3.27687E+002	7	...........
	580	581	3.75520E+000	1.19716E-006	0.00000E+000	4.49559E-006	0.00000E+000	7.57974E-004	-3.27687E+002	7	...........
	581	582	3.75521E+000	1.19710E-006	0.00000E+000	4.49537E-006	0.00000E+000	7.59157E-004	-3.27687E+002	7	...........
	582	583	3.75521E+000	1.19684E-006	0.00000E+000	4.49438E-006	0.00000E+000	7.56724E-004	-3.27687E+002	7	...........
	583	584	3.75522E+000	1.19636E-006	0.00000E+000	4.49260E-006	0.00000E+000	7.57857E-004	-3.27687E+002	7	...........
	584	585	3.75523E+000	1.19746E-006	0.00000E+000	4.49672E-006	0.00000E+000	7.58524E-004	-3.27687E+002	7	...........
	585	586	3.75524E+000	1.19766E-006	0.00000E+000	4.49749E-006	0.00000E+000	7.56807E-004	-3.27687E+002	7	...........
	586	587	3.75525E+000	1.19719E-006	0.00000E+000	4.49574E-006	0.00000E+000	7.57657E-004	-3.27687E+002	7	...........
	587	588	3.75525E+000	1.19627E-006	0.00000E+000	4.49231E-006	0.00000E+000	7.57474E-004	-3.27687E+002	7	...........
	588	589	3.75527E+000	1.19576E-006	0.00000E+000	4.49042E-006	0.00000E+000	7.58874E-004	-3.27687E+002	7	...........
	589	590	3.75528E+000	1.19672E-006	0.00000E+000	4.49403E-006	0.00000E+000	7.57257E-004	-3.27687E+002	7	...........
	590	591	3.75529E+000	1.19689E-006	0.00000E+000	4.49467E-006	0.00000E+000	7.57040E-004	-3.27687E+002	7	...........
	591	592	3.75529E+000	1.19713E-006	0.00000E+000	4.49557E-006	0.00000E+000	7.54840E-004	-3.27687E+002	7	...........
	592	593	3.75529E+000	1.19701E-006	0.00000E+000	4.49513E-006	0.00000E+000	7.58707E-004	-3.27687E+002	7	...........
	593	594	3.75531E+000	1.19615E-006	0.00000E+000	4.49192E-006	0.00000E+000	7.59124E-004	-3.27687E+002	7	...........
	594	595	3.75532E+000	1.19473E-006	0.00000E+000	4.48660E-006	0.00000E+000	7.56824E-004	-3.27687E+002	7	...........
	595	596	3.75532E+000	1.19560E-006	0.00000E+000	4.48986E-006	0.00000E+000	7.57340E-004	-3.27687E+002	7	...........
	596	597	3.75532E+000	1.19583E-006	0.00000E+000	4.49071E-006	0.00000E+000	7.55374E-004	-3.27687E+002	7	...........
	597	598	3.75533E+000	1.19640E-006	0.00000E+000	4.49286E-006	0.00000E+000	7.56907E-004	-3.27687E+002	7	...........
	598	599	3.75534E+000	1.19638E-006	0.00000E+000	4.49281E-006	0.00000E+000	7.56957E-004	-3.27687E+002	7	...........
	599	600	3.75535E+000	1.19679E-006	0.00000E+000	4.49436E-006	0.00000E+000	7.56640E-004	-3.27687E+002	7	...........
