EXPLAIN
TAG	PWR800_READVOLTAGE
TITLE	LABEL	PWR Read Voltage	Test Identifier
DATE	LABEL	22.6.2024	Date
TIME	LABEL	1:39:19	Time
NOTES	NOTES	1	Notes...
	
PSTAT	PSTAT	REF600-12055	Potentiostat
CAPACITY	QUANT	1.00000E+000	Capacity (A-hr)
CELLTYPE	SELECTOR	1	Cell Type
WORKINGCONNECTION	SELECTOR	0	Working Connection
MAXTIME	VARIABLEANDUNITS	6.00000E+002	s	6.00000E+002	second(s)	Max Time
SAMPLETIME	QUANT	1.00000E+000	Sample Period (s)
STOPAT1	MULTIPARAM	0	0.00000E+000	Stop At 1	None	N/A
STOPAT2	MULTIPARAM	0	0.00000E+000	Stop At 2	None	N/A
AESBHCSELECTOR	TOGGLE	F	Save Both Half Cells
EOC	QUANT	4.107123	Open Circuit (V)
SEQUENCER	TOGGLE	TRUE	Run as Sequence
PSTATMODEL	IQUANT	4	Pstat Model
PSTATSECTION	LABEL	REF600-12055	Pstat Section
PSTATSERIALNO	LABEL	12055	Pstat Serial Number
CTRLMODE	IQUANT	0	Control Mode
ELECTROMETER	IQUANT	0	RE=0 or CS=1
IESTAB	IQUANT	0	I/E Stability
CASPEED	IQUANT	4	Control Amp Speed
CONVENTION	IQUANT	1	Current Convention
ICHRANGE	IQUANT	2	Ich Range
ICHRANGEMODE	TOGGLE	T	Ich Auto Range
ICHOFFSETENABLE	TOGGLE	F	Ich Offset Enable
ICHOFFSET	QUANT	0	Ich Offset (V)
ICHFILTER	IQUANT	1	Ich Filter
VCHRANGE	IQUANT	3	Vch Range
VCHRANGEMODE	TOGGLE	T	Vch Auto Range
VCHOFFSETENABLE	TOGGLE	F	Vch Offset Enable
VCHOFFSET	QUANT	0	Vch Offset (V)
VCHFILTER	IQUANT	1	Vch Filter
ACHRANGE	IQUANT	2	Ach Range
ACHOFFSETENABLE	TOGGLE	F	Ach Offset Enable
ACHOFFSET	QUANT	0	Ach Offset (V)
ACHFILTER	IQUANT	1	Ach Filter
IERANGELOWERLIMIT	IQUANT	7	I/E Range Lower Limit
IERANGEMODE	TOGGLE	F	I/E AutoRange
IERANGE	IQUANT	11	I/E Range
POSFEEDENABLE	TOGGLE	F	Positive Feedback IR Comp
POSFEEDRESISTANCE	QUANT	0	Positive Feedback Resistance (ohm)
ACHSELECT	IQUANT	4	Ach Select
SENSECABLEID	IQUANT	14	Sense Cable ID
PWRCABLEID	IQUANT	14	Power Cable ID
DCCALDATE	LABEL	2/12/2024	DC Calibration Date
ACCALDATE	LABEL	2/12/2024	AC Calibration Date
THERMOSELECT	IQUANT	1	Thermo Select
FRAMEWORKVERSION	LABEL	7.10.3	Framework Version
INSTRUMENTVERSION	LABEL	4.91	Instrument Version
COMMVERSION	LABEL	2.24	Communications Version
CPUPLDVERSION	LABEL	0.00	CPU PLD Version
CTRLPLDVERSION	LABEL	0.00	CTRL PLD Version
PSTATPLDVERSION	LABEL	0.00	PSTAT PLD Version
CURVE	TABLE	600
	Pt	T	Vf	Im	Vu	Pwr	Sig	Ach	Temp	IERange	Over
	#	s	V	A	V	W	V	V	deg C	#	bits
	0	1	4.02789E+000	-1.83828E-006	0.00000E+000	-7.40438E-006	0.00000E+000	9.33274E-004	-3.27687E+002	7	...........
	1	2	4.02824E+000	-1.83693E-006	0.00000E+000	-7.39960E-006	0.00000E+000	9.36624E-004	-3.27687E+002	7	...........
	2	3	4.02849E+000	-1.83678E-006	0.00000E+000	-7.39946E-006	0.00000E+000	9.37440E-004	-3.27687E+002	7	...........
	3	4	4.02871E+000	-1.83578E-006	0.00000E+000	-7.39583E-006	0.00000E+000	9.37457E-004	-3.27687E+002	7	...........
	4	5	4.02890E+000	-1.83548E-006	0.00000E+000	-7.39499E-006	0.00000E+000	9.31507E-004	-3.27687E+002	7	...........
	5	6	4.02907E+000	-1.83495E-006	0.00000E+000	-7.39316E-006	0.00000E+000	9.27440E-004	-3.27687E+002	7	...........
	6	7	4.02923E+000	-1.83442E-006	0.00000E+000	-7.39130E-006	0.00000E+000	9.24407E-004	-3.27687E+002	7	...........
	7	8	4.02936E+000	-1.83291E-006	0.00000E+000	-7.38548E-006	0.00000E+000	9.24557E-004	-3.27687E+002	7	...........
	8	9	4.02948E+000	-1.83305E-006	0.00000E+000	-7.38624E-006	0.00000E+000	9.20090E-004	-3.27687E+002	7	...........
	9	10	4.02960E+000	-1.83300E-006	0.00000E+000	-7.38626E-006	0.00000E+000	9.20857E-004	-3.27687E+002	7	...........
	10	11	4.02970E+000	-1.83219E-006	0.00000E+000	-7.38317E-006	0.00000E+000	9.24740E-004	-3.27687E+002	7	...........
	11	12	4.02980E+000	-1.83215E-006	0.00000E+000	-7.38321E-006	0.00000E+000	9.24740E-004	-3.27687E+002	7	...........
	12	13	4.02990E+000	-1.83162E-006	0.00000E+000	-7.38124E-006	0.00000E+000	9.26040E-004	-3.27687E+002	7	...........
	13	14	4.03000E+000	-1.83142E-006	0.00000E+000	-7.38060E-006	0.00000E+000	9.28974E-004	-3.27687E+002	7	...........
	14	15	4.03009E+000	-1.83102E-006	0.00000E+000	-7.37917E-006	0.00000E+000	9.32907E-004	-3.27687E+002	7	...........
	15	16	4.03018E+000	-1.83068E-006	0.00000E+000	-7.37797E-006	0.00000E+000	9.31040E-004	-3.27687E+002	7	...........
	16	17	4.03027E+000	-1.83045E-006	0.00000E+000	-7.37722E-006	0.00000E+000	9.31357E-004	-3.27687E+002	7	...........
	17	18	4.03036E+000	-1.82911E-006	0.00000E+000	-7.37198E-006	0.00000E+000	9.32890E-004	-3.27687E+002	7	...........
	18	19	4.03044E+000	-1.82817E-006	0.00000E+000	-7.36832E-006	0.00000E+000	9.31874E-004	-3.27687E+002	7	...........
	19	20	4.03052E+000	-1.82672E-006	0.00000E+000	-7.36263E-006	0.00000E+000	9.29324E-004	-3.27687E+002	7	...........
	20	21	4.03060E+000	-1.82735E-006	0.00000E+000	-7.36534E-006	0.00000E+000	7.56924E-004	-3.27687E+002	7	...........
	21	22	4.03068E+000	-1.82730E-006	0.00000E+000	-7.36525E-006	0.00000E+000	6.75324E-004	-3.27687E+002	7	...........
	22	23	4.03075E+000	-1.82652E-006	0.00000E+000	-7.36223E-006	0.00000E+000	6.72674E-004	-3.27687E+002	7	...........
	23	24	4.03081E+000	-1.82534E-006	0.00000E+000	-7.35758E-006	0.00000E+000	6.74657E-004	-3.27687E+002	7	...........
	24	25	4.03087E+000	-1.82466E-006	0.00000E+000	-7.35498E-006	0.00000E+000	6.73724E-004	-3.27687E+002	7	...........
	25	26	4.03093E+000	-1.82558E-006	0.00000E+000	-7.35879E-006	0.00000E+000	6.71307E-004	-3.27687E+002	7	...........
	26	27	4.03098E+000	-1.82459E-006	0.00000E+000	-7.35488E-006	0.00000E+000	6.72057E-004	-3.27687E+002	7	...........
	27	28	4.03103E+000	-1.82415E-006	0.00000E+000	-7.35321E-006	0.00000E+000	6.73324E-004	-3.27687E+002	7	...........
	28	29	4.03108E+000	-1.82344E-006	0.00000E+000	-7.35041E-006	0.00000E+000	6.71990E-004	-3.27687E+002	7	...........
	29	30	4.03114E+000	-1.82338E-006	0.00000E+000	-7.35029E-006	0.00000E+000	6.74957E-004	-3.27687E+002	7	...........
	30	31	4.03118E+000	-1.82289E-006	0.00000E+000	-7.34840E-006	0.00000E+000	6.76840E-004	-3.27687E+002	7	...........
	31	32	4.03123E+000	-1.82163E-006	0.00000E+000	-7.34342E-006	0.00000E+000	6.80807E-004	-3.27687E+002	7	...........
	32	33	4.03128E+000	-1.82141E-006	0.00000E+000	-7.34260E-006	0.00000E+000	6.78974E-004	-3.27687E+002	7	...........
	33	34	4.03133E+000	-1.82180E-006	0.00000E+000	-7.34428E-006	0.00000E+000	6.80557E-004	-3.27687E+002	7	...........
	34	35	4.03137E+000	-1.82158E-006	0.00000E+000	-7.34345E-006	0.00000E+000	6.81857E-004	-3.27687E+002	7	...........
	35	36	4.03142E+000	-1.82065E-006	0.00000E+000	-7.33982E-006	0.00000E+000	6.85240E-004	-3.27687E+002	7	...........
	36	37	4.03146E+000	-1.82099E-006	0.00000E+000	-7.34124E-006	0.00000E+000	6.84324E-004	-3.27687E+002	7	...........
	37	38	4.03152E+000	-1.81988E-006	0.00000E+000	-7.33688E-006	0.00000E+000	6.80874E-004	-3.27687E+002	7	...........
	38	39	4.03158E+000	-1.82022E-006	0.00000E+000	-7.33836E-006	0.00000E+000	6.85374E-004	-3.27687E+002	7	...........
	39	40	4.03164E+000	-1.81995E-006	0.00000E+000	-7.33737E-006	0.00000E+000	6.84440E-004	-3.27687E+002	7	...........
	40	41	4.03169E+000	-1.81956E-006	0.00000E+000	-7.33590E-006	0.00000E+000	6.83807E-004	-3.27687E+002	7	...........
	41	42	4.03175E+000	-1.81829E-006	0.00000E+000	-7.33091E-006	0.00000E+000	6.85440E-004	-3.27687E+002	7	...........
	42	43	4.03181E+000	-1.81795E-006	0.00000E+000	-7.32963E-006	0.00000E+000	6.85207E-004	-3.27687E+002	7	...........
	43	44	4.03187E+000	-1.81782E-006	0.00000E+000	-7.32922E-006	0.00000E+000	6.83490E-004	-3.27687E+002	7	...........
	44	45	4.03192E+000	-1.81791E-006	0.00000E+000	-7.32968E-006	0.00000E+000	6.83024E-004	-3.27687E+002	7	...........
	45	46	4.03199E+000	-1.81735E-006	0.00000E+000	-7.32752E-006	0.00000E+000	6.85124E-004	-3.27687E+002	7	...........
	46	47	4.03204E+000	-1.81684E-006	0.00000E+000	-7.32555E-006	0.00000E+000	6.82874E-004	-3.27687E+002	7	...........
	47	48	4.03208E+000	-1.81698E-006	0.00000E+000	-7.32621E-006	0.00000E+000	6.85074E-004	-3.27687E+002	7	...........
	48	49	4.03214E+000	-1.81677E-006	0.00000E+000	-7.32547E-006	0.00000E+000	6.80757E-004	-3.27687E+002	7	...........
	49	50	4.03218E+000	-1.81603E-006	0.00000E+000	-7.32256E-006	0.00000E+000	6.79757E-004	-3.27687E+002	7	...........
	50	51	4.03223E+000	-1.81615E-006	0.00000E+000	-7.32314E-006	0.00000E+000	6.80807E-004	-3.27687E+002	7	...........
	51	52	4.03227E+000	-1.81573E-006	0.00000E+000	-7.32153E-006	0.00000E+000	6.78124E-004	-3.27687E+002	7	...........
	52	53	4.03232E+000	-1.81599E-006	0.00000E+000	-7.32264E-006	0.00000E+000	6.79124E-004	-3.27687E+002	7	...........
	53	54	4.03235E+000	-1.81496E-006	0.00000E+000	-7.31854E-006	0.00000E+000	6.80774E-004	-3.27687E+002	7	...........
	54	55	4.03239E+000	-1.81508E-006	0.00000E+000	-7.31912E-006	0.00000E+000	6.77074E-004	-3.27687E+002	7	...........
	55	56	4.03243E+000	-1.81394E-006	0.00000E+000	-7.31456E-006	0.00000E+000	6.75707E-004	-3.27687E+002	7	...........
	56	57	4.03246E+000	-1.81392E-006	0.00000E+000	-7.31458E-006	0.00000E+000	6.76140E-004	-3.27687E+002	7	...........
	57	58	4.03249E+000	-1.81460E-006	0.00000E+000	-7.31735E-006	0.00000E+000	6.75657E-004	-3.27687E+002	7	...........
	58	59	4.03252E+000	-1.81381E-006	0.00000E+000	-7.31423E-006	0.00000E+000	6.76174E-004	-3.27687E+002	7	...........
	59	60	4.03256E+000	-1.81325E-006	0.00000E+000	-7.31203E-006	0.00000E+000	6.75307E-004	-3.27687E+002	7	...........
	60	61	4.03258E+000	-1.81295E-006	0.00000E+000	-7.31087E-006	0.00000E+000	6.75724E-004	-3.27687E+002	7	...........
	61	62	4.03261E+000	-1.81310E-006	0.00000E+000	-7.31155E-006	0.00000E+000	6.75207E-004	-3.27687E+002	7	...........
	62	63	4.03264E+000	-1.81289E-006	0.00000E+000	-7.31074E-006	0.00000E+000	6.77390E-004	-3.27687E+002	7	...........
	63	64	4.03268E+000	-1.81284E-006	0.00000E+000	-7.31059E-006	0.00000E+000	6.77257E-004	-3.27687E+002	7	...........
	64	65	4.03272E+000	-1.81287E-006	0.00000E+000	-7.31078E-006	0.00000E+000	6.77574E-004	-3.27687E+002	7	...........
	65	66	4.03274E+000	-1.81226E-006	0.00000E+000	-7.30837E-006	0.00000E+000	6.76674E-004	-3.27687E+002	7	...........
	66	67	4.03278E+000	-1.81165E-006	0.00000E+000	-7.30600E-006	0.00000E+000	6.77257E-004	-3.27687E+002	7	...........
	67	68	4.03280E+000	-1.81102E-006	0.00000E+000	-7.30347E-006	0.00000E+000	6.77490E-004	-3.27687E+002	7	...........
	68	69	4.03284E+000	-1.81167E-006	0.00000E+000	-7.30615E-006	0.00000E+000	6.75540E-004	-3.27687E+002	7	...........
	69	70	4.03287E+000	-1.81162E-006	0.00000E+000	-7.30604E-006	0.00000E+000	6.79474E-004	-3.27687E+002	7	...........
	70	71	4.03290E+000	-1.81097E-006	0.00000E+000	-7.30347E-006	0.00000E+000	6.78107E-004	-3.27687E+002	7	...........
	71	72	4.03293E+000	-1.81122E-006	0.00000E+000	-7.30452E-006	0.00000E+000	6.75407E-004	-3.27687E+002	7	...........
	72	73	4.03296E+000	-1.81073E-006	0.00000E+000	-7.30261E-006	0.00000E+000	6.78357E-004	-3.27687E+002	7	...........
	73	74	4.03298E+000	-1.81076E-006	0.00000E+000	-7.30274E-006	0.00000E+000	6.81257E-004	-3.27687E+002	7	...........
	74	75	4.03301E+000	-1.80965E-006	0.00000E+000	-7.29835E-006	0.00000E+000	6.77674E-004	-3.27687E+002	7	...........
	75	76	4.03304E+000	-1.81037E-006	0.00000E+000	-7.30128E-006	0.00000E+000	6.78824E-004	-3.27687E+002	7	...........
	76	77	4.03306E+000	-1.81006E-006	0.00000E+000	-7.30007E-006	0.00000E+000	6.78524E-004	-3.27687E+002	7	...........
	77	78	4.03309E+000	-1.80983E-006	0.00000E+000	-7.29921E-006	0.00000E+000	6.80574E-004	-3.27687E+002	7	...........
	78	79	4.03312E+000	-1.81002E-006	0.00000E+000	-7.30003E-006	0.00000E+000	6.81174E-004	-3.27687E+002	7	...........
	79	80	4.03313E+000	-1.80945E-006	0.00000E+000	-7.29774E-006	0.00000E+000	6.82524E-004	-3.27687E+002	7	...........
	80	81	4.03316E+000	-1.80863E-006	0.00000E+000	-7.29450E-006	0.00000E+000	6.83040E-004	-3.27687E+002	7	...........
	81	82	4.03318E+000	-1.80917E-006	0.00000E+000	-7.29672E-006	0.00000E+000	6.81924E-004	-3.27687E+002	7	...........
	82	83	4.03321E+000	-1.80878E-006	0.00000E+000	-7.29517E-006	0.00000E+000	6.80290E-004	-3.27687E+002	7	...........
	83	84	4.03323E+000	-1.80837E-006	0.00000E+000	-7.29360E-006	0.00000E+000	6.82640E-004	-3.27687E+002	7	...........
	84	85	4.03325E+000	-1.80816E-006	0.00000E+000	-7.29277E-006	0.00000E+000	6.80440E-004	-3.27687E+002	7	...........
	85	86	4.03327E+000	-1.80891E-006	0.00000E+000	-7.29580E-006	0.00000E+000	6.81440E-004	-3.27687E+002	7	...........
	86	87	4.03329E+000	-1.80890E-006	0.00000E+000	-7.29582E-006	0.00000E+000	6.82007E-004	-3.27687E+002	7	...........
	87	88	4.03332E+000	-1.80808E-006	0.00000E+000	-7.29257E-006	0.00000E+000	6.83324E-004	-3.27687E+002	7	...........
	88	89	4.03334E+000	-1.80825E-006	0.00000E+000	-7.29329E-006	0.00000E+000	6.81290E-004	-3.27687E+002	7	...........
	89	90	4.03336E+000	-1.80804E-006	0.00000E+000	-7.29249E-006	0.00000E+000	6.86157E-004	-3.27687E+002	7	...........
	90	91	4.03337E+000	-1.80810E-006	0.00000E+000	-7.29272E-006	0.00000E+000	6.82740E-004	-3.27687E+002	7	...........
	91	92	4.03339E+000	-1.80695E-006	0.00000E+000	-7.28813E-006	0.00000E+000	6.85774E-004	-3.27687E+002	7	...........
	92	93	4.03342E+000	-1.80714E-006	0.00000E+000	-7.28895E-006	0.00000E+000	6.82274E-004	-3.27687E+002	7	...........
	93	94	4.03343E+000	-1.80732E-006	0.00000E+000	-7.28971E-006	0.00000E+000	6.83540E-004	-3.27687E+002	7	...........
	94	95	4.03345E+000	-1.80708E-006	0.00000E+000	-7.28879E-006	0.00000E+000	6.82357E-004	-3.27687E+002	7	...........
	95	96	4.03347E+000	-1.80623E-006	0.00000E+000	-7.28536E-006	0.00000E+000	6.83040E-004	-3.27687E+002	7	...........
	96	97	4.03349E+000	-1.80672E-006	0.00000E+000	-7.28738E-006	0.00000E+000	6.86124E-004	-3.27687E+002	7	...........
	97	98	4.03351E+000	-1.80656E-006	0.00000E+000	-7.28678E-006	0.00000E+000	6.84157E-004	-3.27687E+002	7	...........
	98	99	4.03353E+000	-1.80578E-006	0.00000E+000	-7.28364E-006	0.00000E+000	6.83424E-004	-3.27687E+002	7	...........
	99	100	4.03355E+000	-1.80624E-006	0.00000E+000	-7.28555E-006	0.00000E+000	6.83474E-004	-3.27687E+002	7	...........
	100	101	4.03357E+000	-1.80593E-006	0.00000E+000	-7.28433E-006	0.00000E+000	6.83390E-004	-3.27687E+002	7	...........
	101	102	4.03359E+000	-1.80559E-006	0.00000E+000	-7.28303E-006	0.00000E+000	6.81307E-004	-3.27687E+002	7	...........
	102	103	4.03361E+000	-1.80543E-006	0.00000E+000	-7.28238E-006	0.00000E+000	6.79290E-004	-3.27687E+002	7	...........
	103	104	4.03362E+000	-1.80465E-006	0.00000E+000	-7.27926E-006	0.00000E+000	6.81224E-004	-3.27687E+002	7	...........
	104	105	4.03364E+000	-1.80401E-006	0.00000E+000	-7.27670E-006	0.00000E+000	6.80857E-004	-3.27687E+002	7	...........
	105	106	4.03366E+000	-1.80502E-006	0.00000E+000	-7.28083E-006	0.00000E+000	6.83407E-004	-3.27687E+002	7	...........
	106	107	4.03368E+000	-1.80407E-006	0.00000E+000	-7.27705E-006	0.00000E+000	6.80857E-004	-3.27687E+002	7	...........
	107	108	4.03369E+000	-1.80423E-006	0.00000E+000	-7.27770E-006	0.00000E+000	6.80457E-004	-3.27687E+002	7	...........
	108	109	4.03371E+000	-1.80407E-006	0.00000E+000	-7.27709E-006	0.00000E+000	6.78240E-004	-3.27687E+002	7	...........
	109	110	4.03372E+000	-1.80387E-006	0.00000E+000	-7.27629E-006	0.00000E+000	6.80007E-004	-3.27687E+002	7	...........
	110	111	4.03374E+000	-1.80393E-006	0.00000E+000	-7.27660E-006	0.00000E+000	6.78974E-004	-3.27687E+002	7	...........
	111	112	4.03376E+000	-1.80448E-006	0.00000E+000	-7.27885E-006	0.00000E+000	6.78407E-004	-3.27687E+002	7	...........
	112	113	4.03378E+000	-1.80430E-006	0.00000E+000	-7.27815E-006	0.00000E+000	6.77774E-004	-3.27687E+002	7	...........
	113	114	4.03379E+000	-1.80392E-006	0.00000E+000	-7.27664E-006	0.00000E+000	6.78407E-004	-3.27687E+002	7	...........
	114	115	4.03380E+000	-1.80408E-006	0.00000E+000	-7.27731E-006	0.00000E+000	6.78324E-004	-3.27687E+002	7	...........
	115	116	4.03382E+000	-1.80349E-006	0.00000E+000	-7.27493E-006	0.00000E+000	6.77524E-004	-3.27687E+002	7	...........
	116	117	4.03384E+000	-1.80273E-006	0.00000E+000	-7.27192E-006	0.00000E+000	6.77740E-004	-3.27687E+002	7	...........
	117	118	4.03385E+000	-1.80433E-006	0.00000E+000	-7.27840E-006	0.00000E+000	6.78124E-004	-3.27687E+002	7	...........
	118	119	4.03387E+000	-1.80362E-006	0.00000E+000	-7.27558E-006	0.00000E+000	6.78140E-004	-3.27687E+002	7	...........
	119	120	4.03388E+000	-1.80338E-006	0.00000E+000	-7.27461E-006	0.00000E+000	6.79207E-004	-3.27687E+002	7	...........
	120	121	4.03389E+000	-1.80303E-006	0.00000E+000	-7.27324E-006	0.00000E+000	6.77407E-004	-3.27687E+002	7	...........
	121	122	4.03392E+000	-1.80258E-006	0.00000E+000	-7.27146E-006	0.00000E+000	6.77407E-004	-3.27687E+002	7	...........
	122	123	4.03393E+000	-1.80254E-006	0.00000E+000	-7.27132E-006	0.00000E+000	6.75007E-004	-3.27687E+002	7	...........
	123	124	4.03394E+000	-1.80249E-006	0.00000E+000	-7.27112E-006	0.00000E+000	6.74357E-004	-3.27687E+002	7	...........
	124	125	4.03396E+000	-1.80261E-006	0.00000E+000	-7.27167E-006	0.00000E+000	6.74090E-004	-3.27687E+002	7	...........
	125	126	4.03398E+000	-1.80291E-006	0.00000E+000	-7.27290E-006	0.00000E+000	6.73240E-004	-3.27687E+002	7	...........
	126	127	4.03399E+000	-1.80241E-006	0.00000E+000	-7.27091E-006	0.00000E+000	6.70174E-004	-3.27687E+002	7	...........
	127	128	4.03400E+000	-1.80143E-006	0.00000E+000	-7.26695E-006	0.00000E+000	6.70624E-004	-3.27687E+002	7	...........
	128	129	4.03401E+000	-1.80109E-006	0.00000E+000	-7.26562E-006	0.00000E+000	6.71957E-004	-3.27687E+002	7	...........
	129	130	4.03403E+000	-1.80151E-006	0.00000E+000	-7.26736E-006	0.00000E+000	6.74957E-004	-3.27687E+002	7	...........
	130	131	4.03404E+000	-1.80127E-006	0.00000E+000	-7.26640E-006	0.00000E+000	6.70390E-004	-3.27687E+002	7	...........
	131	132	4.03404E+000	-1.80079E-006	0.00000E+000	-7.26448E-006	0.00000E+000	6.71974E-004	-3.27687E+002	7	...........
	132	133	4.03406E+000	-1.80134E-006	0.00000E+000	-7.26672E-006	0.00000E+000	6.73874E-004	-3.27687E+002	7	...........
	133	134	4.03407E+000	-1.80060E-006	0.00000E+000	-7.26375E-006	0.00000E+000	6.74124E-004	-3.27687E+002	7	...........
	134	135	4.03408E+000	-1.80062E-006	0.00000E+000	-7.26385E-006	0.00000E+000	6.73407E-004	-3.27687E+002	7	...........
	135	136	4.03409E+000	-1.80128E-006	0.00000E+000	-7.26652E-006	0.00000E+000	6.72440E-004	-3.27687E+002	7	...........
	136	137	4.03411E+000	-1.80133E-006	0.00000E+000	-7.26675E-006	0.00000E+000	6.70474E-004	-3.27687E+002	7	...........
	137	138	4.03412E+000	-1.80140E-006	0.00000E+000	-7.26705E-006	0.00000E+000	6.72224E-004	-3.27687E+002	7	...........
	138	139	4.03414E+000	-1.80117E-006	0.00000E+000	-7.26618E-006	0.00000E+000	6.71540E-004	-3.27687E+002	7	...........
	139	140	4.03414E+000	-1.80124E-006	0.00000E+000	-7.26646E-006	0.00000E+000	6.73290E-004	-3.27687E+002	7	...........
	140	141	4.03415E+000	-1.79933E-006	0.00000E+000	-7.25876E-006	0.00000E+000	6.71824E-004	-3.27687E+002	7	...........
	141	142	4.03416E+000	-1.80019E-006	0.00000E+000	-7.26225E-006	0.00000E+000	6.71557E-004	-3.27687E+002	7	...........
	142	143	4.03417E+000	-1.80008E-006	0.00000E+000	-7.26185E-006	0.00000E+000	6.71124E-004	-3.27687E+002	7	...........
	143	144	4.03419E+000	-1.79928E-006	0.00000E+000	-7.25863E-006	0.00000E+000	6.72824E-004	-3.27687E+002	7	...........
	144	145	4.03420E+000	-1.79958E-006	0.00000E+000	-7.25986E-006	0.00000E+000	6.72974E-004	-3.27687E+002	7	...........
	145	146	4.03420E+000	-1.79882E-006	0.00000E+000	-7.25682E-006	0.00000E+000	6.73974E-004	-3.27687E+002	7	...........
	146	147	4.03421E+000	-1.79992E-006	0.00000E+000	-7.26127E-006	0.00000E+000	6.71790E-004	-3.27687E+002	7	...........
	147	148	4.03423E+000	-1.79977E-006	0.00000E+000	-7.26068E-006	0.00000E+000	6.73907E-004	-3.27687E+002	7	...........
	148	149	4.03424E+000	-1.79974E-006	0.00000E+000	-7.26056E-006	0.00000E+000	6.70757E-004	-3.27687E+002	7	...........
	149	150	4.03425E+000	-1.79987E-006	0.00000E+000	-7.26112E-006	0.00000E+000	6.73407E-004	-3.27687E+002	7	...........
	150	151	4.03426E+000	-1.79990E-006	0.00000E+000	-7.26127E-006	0.00000E+000	6.72607E-004	-3.27687E+002	7	...........
	151	152	4.03427E+000	-1.79940E-006	0.00000E+000	-7.25928E-006	0.00000E+000	6.72107E-004	-3.27687E+002	7	...........
	152	153	4.03428E+000	-1.79768E-006	0.00000E+000	-7.25236E-006	0.00000E+000	6.65857E-004	-3.27687E+002	7	...........
	153	154	4.03430E+000	-1.79818E-006	0.00000E+000	-7.25440E-006	0.00000E+000	6.68090E-004	-3.27687E+002	7	...........
	154	155	4.03431E+000	-1.79875E-006	0.00000E+000	-7.25671E-006	0.00000E+000	6.70940E-004	-3.27687E+002	7	...........
	155	156	4.03432E+000	-1.79814E-006	0.00000E+000	-7.25425E-006	0.00000E+000	6.70690E-004	-3.27687E+002	7	...........
	156	157	4.03433E+000	-1.79825E-006	0.00000E+000	-7.25475E-006	0.00000E+000	6.74157E-004	-3.27687E+002	7	...........
	157	158	4.03434E+000	-1.79854E-006	0.00000E+000	-7.25594E-006	0.00000E+000	6.73307E-004	-3.27687E+002	7	...........
	158	159	4.03435E+000	-1.79803E-006	0.00000E+000	-7.25390E-006	0.00000E+000	6.72840E-004	-3.27687E+002	7	...........
	159	160	4.03435E+000	-1.79796E-006	0.00000E+000	-7.25359E-006	0.00000E+000	6.73457E-004	-3.27687E+002	7	...........
	160	161	4.03437E+000	-1.79879E-006	0.00000E+000	-7.25696E-006	0.00000E+000	6.71607E-004	-3.27687E+002	7	...........
	161	162	4.03437E+000	-1.79763E-006	0.00000E+000	-7.25230E-006	0.00000E+000	6.70040E-004	-3.27687E+002	7	...........
	162	163	4.03438E+000	-1.79832E-006	0.00000E+000	-7.25510E-006	0.00000E+000	6.71507E-004	-3.27687E+002	7	...........
	163	164	4.03440E+000	-1.79756E-006	0.00000E+000	-7.25207E-006	0.00000E+000	6.70724E-004	-3.27687E+002	7	...........
	164	165	4.03441E+000	-1.79681E-006	0.00000E+000	-7.24907E-006	0.00000E+000	6.72257E-004	-3.27687E+002	7	...........
	165	166	4.03441E+000	-1.79686E-006	0.00000E+000	-7.24927E-006	0.00000E+000	6.70057E-004	-3.27687E+002	7	...........
	166	167	4.03442E+000	-1.79729E-006	0.00000E+000	-7.25104E-006	0.00000E+000	6.69490E-004	-3.27687E+002	7	...........
	167	168	4.03443E+000	-1.79675E-006	0.00000E+000	-7.24887E-006	0.00000E+000	6.73974E-004	-3.27687E+002	7	...........
	168	169	4.03444E+000	-1.79663E-006	0.00000E+000	-7.24840E-006	0.00000E+000	6.71590E-004	-3.27687E+002	7	...........
	169	170	4.03445E+000	-1.79711E-006	0.00000E+000	-7.25036E-006	0.00000E+000	6.70107E-004	-3.27687E+002	7	...........
	170	171	4.03446E+000	-1.79716E-006	0.00000E+000	-7.25056E-006	0.00000E+000	6.71124E-004	-3.27687E+002	7	...........
	171	172	4.03446E+000	-1.79705E-006	0.00000E+000	-7.25011E-006	0.00000E+000	6.71240E-004	-3.27687E+002	7	...........
	172	173	4.03447E+000	-1.79721E-006	0.00000E+000	-7.25078E-006	0.00000E+000	6.72107E-004	-3.27687E+002	7	...........
	173	174	4.03448E+000	-1.79731E-006	0.00000E+000	-7.25119E-006	0.00000E+000	6.75657E-004	-3.27687E+002	7	...........
	174	175	4.03448E+000	-1.79702E-006	0.00000E+000	-7.25003E-006	0.00000E+000	6.76007E-004	-3.27687E+002	7	...........
	175	176	4.03449E+000	-1.79704E-006	0.00000E+000	-7.25013E-006	0.00000E+000	6.77840E-004	-3.27687E+002	7	...........
	176	177	4.03450E+000	-1.79617E-006	0.00000E+000	-7.24667E-006	0.00000E+000	6.75840E-004	-3.27687E+002	7	...........
	177	178	4.03450E+000	-1.79614E-006	0.00000E+000	-7.24653E-006	0.00000E+000	6.71807E-004	-3.27687E+002	7	...........
	178	179	4.03451E+000	-1.79642E-006	0.00000E+000	-7.24767E-006	0.00000E+000	6.76007E-004	-3.27687E+002	7	...........
	179	180	4.03453E+000	-1.79558E-006	0.00000E+000	-7.24433E-006	0.00000E+000	6.76874E-004	-3.27687E+002	7	...........
	180	181	4.03454E+000	-1.79594E-006	0.00000E+000	-7.24577E-006	0.00000E+000	6.75174E-004	-3.27687E+002	7	...........
	181	182	4.03454E+000	-1.79614E-006	0.00000E+000	-7.24658E-006	0.00000E+000	6.75440E-004	-3.27687E+002	7	...........
	182	183	4.03455E+000	-1.79649E-006	0.00000E+000	-7.24801E-006	0.00000E+000	6.76724E-004	-3.27687E+002	7	...........
	183	184	4.03455E+000	-1.79565E-006	0.00000E+000	-7.24465E-006	0.00000E+000	6.73807E-004	-3.27687E+002	7	...........
	184	185	4.03457E+000	-1.79648E-006	0.00000E+000	-7.24802E-006	0.00000E+000	6.75090E-004	-3.27687E+002	7	...........
	185	186	4.03458E+000	-1.79568E-006	0.00000E+000	-7.24482E-006	0.00000E+000	6.76640E-004	-3.27687E+002	7	...........
	186	187	4.03459E+000	-1.79612E-006	0.00000E+000	-7.24658E-006	0.00000E+000	6.76357E-004	-3.27687E+002	7	...........
	187	188	4.03460E+000	-1.79615E-006	0.00000E+000	-7.24675E-006	0.00000E+000	6.76874E-004	-3.27687E+002	7	...........
	188	189	4.03460E+000	-1.79558E-006	0.00000E+000	-7.24445E-006	0.00000E+000	6.74324E-004	-3.27687E+002	7	...........
	189	190	4.03461E+000	-1.79579E-006	0.00000E+000	-7.24531E-006	0.00000E+000	6.78690E-004	-3.27687E+002	7	...........
	190	191	4.03462E+000	-1.79521E-006	0.00000E+000	-7.24299E-006	0.00000E+000	6.73807E-004	-3.27687E+002	7	...........
	191	192	4.03463E+000	-1.79538E-006	0.00000E+000	-7.24369E-006	0.00000E+000	6.78590E-004	-3.27687E+002	7	...........
	192	193	4.03463E+000	-1.79512E-006	0.00000E+000	-7.24266E-006	0.00000E+000	6.79024E-004	-3.27687E+002	7	...........
	193	194	4.03464E+000	-1.79524E-006	0.00000E+000	-7.24314E-006	0.00000E+000	6.76374E-004	-3.27687E+002	7	...........
	194	195	4.03464E+000	-1.79481E-006	0.00000E+000	-7.24143E-006	0.00000E+000	6.77640E-004	-3.27687E+002	7	...........
	195	196	4.03465E+000	-1.79501E-006	0.00000E+000	-7.24224E-006	0.00000E+000	6.80140E-004	-3.27687E+002	7	...........
	196	197	4.03466E+000	-1.79570E-006	0.00000E+000	-7.24502E-006	0.00000E+000	6.78890E-004	-3.27687E+002	7	...........
	197	198	4.03466E+000	-1.79533E-006	0.00000E+000	-7.24354E-006	0.00000E+000	6.77774E-004	-3.27687E+002	7	...........
	198	199	4.03467E+000	-1.79485E-006	0.00000E+000	-7.24162E-006	0.00000E+000	6.80124E-004	-3.27687E+002	7	...........
	199	200	4.03468E+000	-1.79489E-006	0.00000E+000	-7.24180E-006	0.00000E+000	6.80940E-004	-3.27687E+002	7	...........
	200	201	4.03468E+000	-1.79428E-006	0.00000E+000	-7.23934E-006	0.00000E+000	6.79374E-004	-3.27687E+002	7	...........
	201	202	4.03469E+000	-1.79365E-006	0.00000E+000	-7.23682E-006	0.00000E+000	6.76924E-004	-3.27687E+002	7	...........
	202	203	4.03470E+000	-1.79437E-006	0.00000E+000	-7.23976E-006	0.00000E+000	6.79874E-004	-3.27687E+002	7	...........
	203	204	4.03470E+000	-1.79403E-006	0.00000E+000	-7.23838E-006	0.00000E+000	6.79257E-004	-3.27687E+002	7	...........
	204	205	4.03471E+000	-1.79397E-006	0.00000E+000	-7.23815E-006	0.00000E+000	6.80457E-004	-3.27687E+002	7	...........
	205	206	4.03470E+000	-1.79440E-006	0.00000E+000	-7.23987E-006	0.00000E+000	6.77274E-004	-3.27687E+002	7	...........
	206	207	4.03472E+000	-1.79429E-006	0.00000E+000	-7.23944E-006	0.00000E+000	6.78107E-004	-3.27687E+002	7	...........
	207	208	4.03472E+000	-1.79374E-006	0.00000E+000	-7.23725E-006	0.00000E+000	6.79190E-004	-3.27687E+002	7	...........
	208	209	4.03472E+000	-1.79405E-006	0.00000E+000	-7.23851E-006	0.00000E+000	6.80574E-004	-3.27687E+002	7	...........
	209	210	4.03474E+000	-1.79470E-006	0.00000E+000	-7.24115E-006	0.00000E+000	6.78774E-004	-3.27687E+002	7	...........
	210	211	4.03473E+000	-1.79426E-006	0.00000E+000	-7.23938E-006	0.00000E+000	6.79890E-004	-3.27687E+002	7	...........
	211	212	4.03475E+000	-1.79430E-006	0.00000E+000	-7.23954E-006	0.00000E+000	6.78807E-004	-3.27687E+002	7	...........
	212	213	4.03474E+000	-1.79356E-006	0.00000E+000	-7.23655E-006	0.00000E+000	6.81057E-004	-3.27687E+002	7	...........
	213	214	4.03475E+000	-1.79358E-006	0.00000E+000	-7.23663E-006	0.00000E+000	6.77390E-004	-3.27687E+002	7	...........
	214	215	4.03476E+000	-1.79428E-006	0.00000E+000	-7.23947E-006	0.00000E+000	6.80340E-004	-3.27687E+002	7	...........
	215	216	4.03476E+000	-1.79451E-006	0.00000E+000	-7.24043E-006	0.00000E+000	6.80290E-004	-3.27687E+002	7	...........
	216	217	4.03478E+000	-1.79423E-006	0.00000E+000	-7.23933E-006	0.00000E+000	6.81490E-004	-3.27687E+002	7	...........
	217	218	4.03478E+000	-1.79373E-006	0.00000E+000	-7.23729E-006	0.00000E+000	6.80390E-004	-3.27687E+002	7	...........
	218	219	4.03479E+000	-1.79313E-006	0.00000E+000	-7.23491E-006	0.00000E+000	6.79074E-004	-3.27687E+002	7	...........
	219	220	4.03480E+000	-1.79399E-006	0.00000E+000	-7.23838E-006	0.00000E+000	6.78540E-004	-3.27687E+002	7	...........
	220	221	4.03480E+000	-1.79372E-006	0.00000E+000	-7.23730E-006	0.00000E+000	6.82707E-004	-3.27687E+002	7	...........
	221	222	4.03481E+000	-1.79361E-006	0.00000E+000	-7.23687E-006	0.00000E+000	6.79990E-004	-3.27687E+002	7	...........
	222	223	4.03481E+000	-1.79405E-006	0.00000E+000	-7.23864E-006	0.00000E+000	6.79207E-004	-3.27687E+002	7	...........
	223	224	4.03481E+000	-1.79408E-006	0.00000E+000	-7.23879E-006	0.00000E+000	6.80324E-004	-3.27687E+002	7	...........
	224	225	4.03484E+000	-1.79376E-006	0.00000E+000	-7.23755E-006	0.00000E+000	6.79907E-004	-3.27687E+002	7	...........
	225	226	4.03483E+000	-1.79344E-006	0.00000E+000	-7.23624E-006	0.00000E+000	6.79307E-004	-3.27687E+002	7	...........
	226	227	4.03483E+000	-1.79396E-006	0.00000E+000	-7.23833E-006	0.00000E+000	6.78107E-004	-3.27687E+002	7	...........
	227	228	4.03484E+000	-1.79352E-006	0.00000E+000	-7.23656E-006	0.00000E+000	6.80424E-004	-3.27687E+002	7	...........
	228	229	4.03484E+000	-1.79323E-006	0.00000E+000	-7.23540E-006	0.00000E+000	6.78207E-004	-3.27687E+002	7	...........
	229	230	4.03486E+000	-1.79267E-006	0.00000E+000	-7.23315E-006	0.00000E+000	6.80674E-004	-3.27687E+002	7	...........
	230	231	4.03486E+000	-1.79370E-006	0.00000E+000	-7.23733E-006	0.00000E+000	6.76474E-004	-3.27687E+002	7	...........
	231	232	4.03487E+000	-1.79326E-006	0.00000E+000	-7.23559E-006	0.00000E+000	6.82374E-004	-3.27687E+002	7	...........
	232	233	4.03488E+000	-1.79392E-006	0.00000E+000	-7.23827E-006	0.00000E+000	6.82974E-004	-3.27687E+002	7	...........
	233	234	4.03488E+000	-1.79406E-006	0.00000E+000	-7.23881E-006	0.00000E+000	6.78724E-004	-3.27687E+002	7	...........
	234	235	4.03489E+000	-1.79365E-006	0.00000E+000	-7.23718E-006	0.00000E+000	6.80657E-004	-3.27687E+002	7	...........
	235	236	4.03488E+000	-1.79320E-006	0.00000E+000	-7.23536E-006	0.00000E+000	6.77574E-004	-3.27687E+002	7	...........
	236	237	4.03490E+000	-1.79236E-006	0.00000E+000	-7.23199E-006	0.00000E+000	6.79324E-004	-3.27687E+002	7	...........
	237	238	4.03491E+000	-1.79290E-006	0.00000E+000	-7.23421E-006	0.00000E+000	6.79490E-004	-3.27687E+002	7	...........
	238	239	4.03491E+000	-1.79364E-006	0.00000E+000	-7.23716E-006	0.00000E+000	6.79374E-004	-3.27687E+002	7	...........
	239	240	4.03492E+000	-1.79307E-006	0.00000E+000	-7.23489E-006	0.00000E+000	6.78207E-004	-3.27687E+002	7	...........
	240	241	4.03493E+000	-1.79258E-006	0.00000E+000	-7.23294E-006	0.00000E+000	6.78090E-004	-3.27687E+002	7	...........
	241	242	4.03493E+000	-1.79264E-006	0.00000E+000	-7.23316E-006	0.00000E+000	6.78957E-004	-3.27687E+002	7	...........
	242	243	4.03493E+000	-1.79326E-006	0.00000E+000	-7.23568E-006	0.00000E+000	6.82374E-004	-3.27687E+002	7	...........
	243	244	4.03494E+000	-1.79322E-006	0.00000E+000	-7.23555E-006	0.00000E+000	6.82874E-004	-3.27687E+002	7	...........
	244	245	4.03494E+000	-1.79265E-006	0.00000E+000	-7.23325E-006	0.00000E+000	6.79640E-004	-3.27687E+002	7	...........
	245	246	4.03495E+000	-1.79288E-006	0.00000E+000	-7.23417E-006	0.00000E+000	6.83024E-004	-3.27687E+002	7	...........
	246	247	4.03495E+000	-1.79255E-006	0.00000E+000	-7.23287E-006	0.00000E+000	6.81040E-004	-3.27687E+002	7	...........
	247	248	4.03496E+000	-1.79281E-006	0.00000E+000	-7.23390E-006	0.00000E+000	6.82940E-004	-3.27687E+002	7	...........
	248	249	4.03496E+000	-1.79221E-006	0.00000E+000	-7.23149E-006	0.00000E+000	6.85057E-004	-3.27687E+002	7	...........
	249	250	4.03496E+000	-1.79310E-006	0.00000E+000	-7.23508E-006	0.00000E+000	6.83207E-004	-3.27687E+002	7	...........
	250	251	4.03496E+000	-1.79294E-006	0.00000E+000	-7.23445E-006	0.00000E+000	6.85190E-004	-3.27687E+002	7	...........
	251	252	4.03497E+000	-1.79242E-006	0.00000E+000	-7.23235E-006	0.00000E+000	6.83990E-004	-3.27687E+002	7	...........
	252	253	4.03499E+000	-1.79248E-006	0.00000E+000	-7.23265E-006	0.00000E+000	6.81724E-004	-3.27687E+002	7	...........
	253	254	4.03499E+000	-1.79240E-006	0.00000E+000	-7.23229E-006	0.00000E+000	6.81057E-004	-3.27687E+002	7	...........
	254	255	4.03500E+000	-1.79217E-006	0.00000E+000	-7.23141E-006	0.00000E+000	6.81024E-004	-3.27687E+002	7	...........
	255	256	4.03500E+000	-1.79240E-006	0.00000E+000	-7.23233E-006	0.00000E+000	6.81724E-004	-3.27687E+002	7	...........
	256	257	4.03501E+000	-1.79246E-006	0.00000E+000	-7.23258E-006	0.00000E+000	6.81457E-004	-3.27687E+002	7	...........
	257	258	4.03501E+000	-1.79264E-006	0.00000E+000	-7.23330E-006	0.00000E+000	6.82824E-004	-3.27687E+002	7	...........
	258	259	4.03502E+000	-1.79228E-006	0.00000E+000	-7.23188E-006	0.00000E+000	6.80974E-004	-3.27687E+002	7	...........
	259	260	4.03502E+000	-1.79247E-006	0.00000E+000	-7.23265E-006	0.00000E+000	6.81274E-004	-3.27687E+002	7	...........
	260	261	4.03503E+000	-1.79158E-006	0.00000E+000	-7.22908E-006	0.00000E+000	6.80007E-004	-3.27687E+002	7	...........
	261	262	4.03504E+000	-1.79226E-006	0.00000E+000	-7.23183E-006	0.00000E+000	6.80657E-004	-3.27687E+002	7	...........
	262	263	4.03504E+000	-1.79225E-006	0.00000E+000	-7.23179E-006	0.00000E+000	6.78290E-004	-3.27687E+002	7	...........
	263	264	4.03503E+000	-1.79154E-006	0.00000E+000	-7.22893E-006	0.00000E+000	6.79207E-004	-3.27687E+002	7	...........
	264	265	4.03503E+000	-1.79114E-006	0.00000E+000	-7.22732E-006	0.00000E+000	6.80640E-004	-3.27687E+002	7	...........
	265	266	4.03506E+000	-1.79077E-006	0.00000E+000	-7.22584E-006	0.00000E+000	6.81390E-004	-3.27687E+002	7	...........
	266	267	4.03505E+000	-1.79144E-006	0.00000E+000	-7.22854E-006	0.00000E+000	6.79457E-004	-3.27687E+002	7	...........
	267	268	4.03506E+000	-1.79214E-006	0.00000E+000	-7.23139E-006	0.00000E+000	6.80240E-004	-3.27687E+002	7	...........
	268	269	4.03507E+000	-1.79183E-006	0.00000E+000	-7.23017E-006	0.00000E+000	6.83607E-004	-3.27687E+002	7	...........
	269	270	4.03507E+000	-1.79182E-006	0.00000E+000	-7.23011E-006	0.00000E+000	6.81557E-004	-3.27687E+002	7	...........
	270	271	4.03508E+000	-1.79211E-006	0.00000E+000	-7.23130E-006	0.00000E+000	6.83324E-004	-3.27687E+002	7	...........
	271	272	4.03508E+000	-1.79203E-006	0.00000E+000	-7.23099E-006	0.00000E+000	6.82757E-004	-3.27687E+002	7	...........
	272	273	4.03508E+000	-1.79094E-006	0.00000E+000	-7.22661E-006	0.00000E+000	6.81607E-004	-3.27687E+002	7	...........
	273	274	4.03509E+000	-1.79051E-006	0.00000E+000	-7.22488E-006	0.00000E+000	6.84057E-004	-3.27687E+002	7	...........
	274	275	4.03510E+000	-1.79099E-006	0.00000E+000	-7.22680E-006	0.00000E+000	6.78874E-004	-3.27687E+002	7	...........
	275	276	4.03510E+000	-1.79070E-006	0.00000E+000	-7.22564E-006	0.00000E+000	6.80157E-004	-3.27687E+002	7	...........
	276	277	4.03511E+000	-1.79094E-006	0.00000E+000	-7.22665E-006	0.00000E+000	6.80490E-004	-3.27687E+002	7	...........
	277	278	4.03511E+000	-1.79122E-006	0.00000E+000	-7.22778E-006	0.00000E+000	6.80974E-004	-3.27687E+002	7	...........
	278	279	4.03511E+000	-1.79124E-006	0.00000E+000	-7.22787E-006	0.00000E+000	6.81057E-004	-3.27687E+002	7	...........
	279	280	4.03512E+000	-1.79114E-006	0.00000E+000	-7.22745E-006	0.00000E+000	6.80390E-004	-3.27687E+002	7	...........
	280	281	4.03512E+000	-1.79091E-006	0.00000E+000	-7.22656E-006	0.00000E+000	6.78724E-004	-3.27687E+002	7	...........
	281	282	4.03513E+000	-1.79062E-006	0.00000E+000	-7.22539E-006	0.00000E+000	6.80174E-004	-3.27687E+002	7	...........
	282	283	4.03512E+000	-1.79053E-006	0.00000E+000	-7.22501E-006	0.00000E+000	6.79190E-004	-3.27687E+002	7	...........
	283	284	4.03514E+000	-1.79063E-006	0.00000E+000	-7.22543E-006	0.00000E+000	6.82424E-004	-3.27687E+002	7	...........
	284	285	4.03515E+000	-1.79021E-006	0.00000E+000	-7.22377E-006	0.00000E+000	6.81824E-004	-3.27687E+002	7	...........
	285	286	4.03515E+000	-1.79015E-006	0.00000E+000	-7.22352E-006	0.00000E+000	6.80774E-004	-3.27687E+002	7	...........
	286	287	4.03516E+000	-1.79095E-006	0.00000E+000	-7.22678E-006	0.00000E+000	6.79640E-004	-3.27687E+002	7	...........
	287	288	4.03516E+000	-1.79119E-006	0.00000E+000	-7.22773E-006	0.00000E+000	6.79174E-004	-3.27687E+002	7	...........
	288	289	4.03517E+000	-1.79023E-006	0.00000E+000	-7.22389E-006	0.00000E+000	6.80790E-004	-3.27687E+002	7	...........
	289	290	4.03518E+000	-1.79007E-006	0.00000E+000	-7.22323E-006	0.00000E+000	6.80290E-004	-3.27687E+002	7	...........
	290	291	4.03518E+000	-1.78974E-006	0.00000E+000	-7.22193E-006	0.00000E+000	6.78957E-004	-3.27687E+002	7	...........
	291	292	4.03517E+000	-1.79013E-006	0.00000E+000	-7.22347E-006	0.00000E+000	6.79140E-004	-3.27687E+002	7	...........
	292	293	4.03518E+000	-1.79000E-006	0.00000E+000	-7.22298E-006	0.00000E+000	6.79740E-004	-3.27687E+002	7	...........
	293	294	4.03519E+000	-1.79040E-006	0.00000E+000	-7.22460E-006	0.00000E+000	6.79057E-004	-3.27687E+002	7	...........
	294	295	4.03519E+000	-1.78951E-006	0.00000E+000	-7.22103E-006	0.00000E+000	6.79674E-004	-3.27687E+002	7	...........
	295	296	4.03519E+000	-1.78998E-006	0.00000E+000	-7.22289E-006	0.00000E+000	6.78624E-004	-3.27687E+002	7	...........
	296	297	4.03520E+000	-1.78926E-006	0.00000E+000	-7.22000E-006	0.00000E+000	6.77774E-004	-3.27687E+002	7	...........
	297	298	4.03520E+000	-1.78938E-006	0.00000E+000	-7.22050E-006	0.00000E+000	6.78624E-004	-3.27687E+002	7	...........
	298	299	4.03520E+000	-1.79001E-006	0.00000E+000	-7.22304E-006	0.00000E+000	6.81007E-004	-3.27687E+002	7	...........
	299	300	4.03522E+000	-1.78994E-006	0.00000E+000	-7.22280E-006	0.00000E+000	6.77407E-004	-3.27687E+002	7	...........
	300	301	4.03522E+000	-1.79015E-006	0.00000E+000	-7.22365E-006	0.00000E+000	6.77174E-004	-3.27687E+002	7	...........
	301	302	4.03522E+000	-1.78962E-006	0.00000E+000	-7.22152E-006	0.00000E+000	6.79057E-004	-3.27687E+002	7	...........
	302	303	4.03522E+000	-1.79029E-006	0.00000E+000	-7.22423E-006	0.00000E+000	6.78657E-004	-3.27687E+002	7	...........
	303	304	4.03523E+000	-1.79077E-006	0.00000E+000	-7.22616E-006	0.00000E+000	6.80207E-004	-3.27687E+002	7	...........
	304	305	4.03523E+000	-1.79053E-006	0.00000E+000	-7.22521E-006	0.00000E+000	6.77190E-004	-3.27687E+002	7	...........
	305	306	4.03524E+000	-1.79061E-006	0.00000E+000	-7.22556E-006	0.00000E+000	6.76474E-004	-3.27687E+002	7	...........
	306	307	4.03525E+000	-1.78956E-006	0.00000E+000	-7.22133E-006	0.00000E+000	6.77540E-004	-3.27687E+002	7	...........
	307	308	4.03526E+000	-1.79000E-006	0.00000E+000	-7.22311E-006	0.00000E+000	6.76024E-004	-3.27687E+002	7	...........
	308	309	4.03526E+000	-1.78975E-006	0.00000E+000	-7.22211E-006	0.00000E+000	6.77640E-004	-3.27687E+002	7	...........
	309	310	4.03526E+000	-1.78965E-006	0.00000E+000	-7.22169E-006	0.00000E+000	6.78074E-004	-3.27687E+002	7	...........
	310	311	4.03526E+000	-1.78997E-006	0.00000E+000	-7.22298E-006	0.00000E+000	6.78257E-004	-3.27687E+002	7	...........
	311	312	4.03527E+000	-1.79003E-006	0.00000E+000	-7.22325E-006	0.00000E+000	6.78990E-004	-3.27687E+002	7	...........
	312	313	4.03528E+000	-1.78971E-006	0.00000E+000	-7.22197E-006	0.00000E+000	6.79540E-004	-3.27687E+002	7	...........
	313	314	4.03527E+000	-1.78969E-006	0.00000E+000	-7.22189E-006	0.00000E+000	6.78157E-004	-3.27687E+002	7	...........
	314	315	4.03528E+000	-1.79035E-006	0.00000E+000	-7.22456E-006	0.00000E+000	6.76457E-004	-3.27687E+002	7	...........
	315	316	4.03528E+000	-1.79010E-006	0.00000E+000	-7.22358E-006	0.00000E+000	6.75940E-004	-3.27687E+002	7	...........
	316	317	4.03530E+000	-1.79004E-006	0.00000E+000	-7.22335E-006	0.00000E+000	6.75390E-004	-3.27687E+002	7	...........
	317	318	4.03530E+000	-1.78980E-006	0.00000E+000	-7.22239E-006	0.00000E+000	6.78224E-004	-3.27687E+002	7	...........
	318	319	4.03530E+000	-1.79028E-006	0.00000E+000	-7.22433E-006	0.00000E+000	6.75140E-004	-3.27687E+002	7	...........
	319	320	4.03530E+000	-1.78922E-006	0.00000E+000	-7.22004E-006	0.00000E+000	6.76890E-004	-3.27687E+002	7	...........
	320	321	4.03530E+000	-1.78835E-006	0.00000E+000	-7.21651E-006	0.00000E+000	6.76974E-004	-3.27687E+002	7	...........
	321	322	4.03531E+000	-1.78898E-006	0.00000E+000	-7.21909E-006	0.00000E+000	6.77557E-004	-3.27687E+002	7	...........
	322	323	4.03531E+000	-1.78910E-006	0.00000E+000	-7.21955E-006	0.00000E+000	6.77440E-004	-3.27687E+002	7	...........
	323	324	4.03532E+000	-1.78903E-006	0.00000E+000	-7.21931E-006	0.00000E+000	6.75774E-004	-3.27687E+002	7	...........
	324	325	4.03532E+000	-1.78852E-006	0.00000E+000	-7.21725E-006	0.00000E+000	6.75174E-004	-3.27687E+002	7	...........
	325	326	4.03533E+000	-1.78850E-006	0.00000E+000	-7.21718E-006	0.00000E+000	6.74574E-004	-3.27687E+002	7	...........
	326	327	4.03533E+000	-1.78851E-006	0.00000E+000	-7.21720E-006	0.00000E+000	6.75124E-004	-3.27687E+002	7	...........
	327	328	4.03532E+000	-1.78858E-006	0.00000E+000	-7.21749E-006	0.00000E+000	6.74990E-004	-3.27687E+002	7	...........
	328	329	4.03533E+000	-1.78934E-006	0.00000E+000	-7.22060E-006	0.00000E+000	6.76507E-004	-3.27687E+002	7	...........
	329	330	4.03533E+000	-1.78899E-006	0.00000E+000	-7.21916E-006	0.00000E+000	6.72657E-004	-3.27687E+002	7	...........
	330	331	4.03534E+000	-1.78913E-006	0.00000E+000	-7.21974E-006	0.00000E+000	6.76507E-004	-3.27687E+002	7	...........
	331	332	4.03534E+000	-1.78840E-006	0.00000E+000	-7.21680E-006	0.00000E+000	6.75307E-004	-3.27687E+002	7	...........
	332	333	4.03535E+000	-1.78822E-006	0.00000E+000	-7.21608E-006	0.00000E+000	6.75990E-004	-3.27687E+002	7	...........
	333	334	4.03535E+000	-1.78836E-006	0.00000E+000	-7.21668E-006	0.00000E+000	6.71724E-004	-3.27687E+002	7	...........
	334	335	4.03536E+000	-1.78870E-006	0.00000E+000	-7.21805E-006	0.00000E+000	6.72857E-004	-3.27687E+002	7	...........
	335	336	4.03536E+000	-1.78801E-006	0.00000E+000	-7.21528E-006	0.00000E+000	6.70974E-004	-3.27687E+002	7	...........
	336	337	4.03536E+000	-1.78861E-006	0.00000E+000	-7.21771E-006	0.00000E+000	6.74807E-004	-3.27687E+002	7	...........
	337	338	4.03537E+000	-1.78851E-006	0.00000E+000	-7.21730E-006	0.00000E+000	6.73007E-004	-3.27687E+002	7	...........
	338	339	4.03537E+000	-1.78889E-006	0.00000E+000	-7.21884E-006	0.00000E+000	6.74257E-004	-3.27687E+002	7	...........
	339	340	4.03537E+000	-1.78950E-006	0.00000E+000	-7.22131E-006	0.00000E+000	6.75590E-004	-3.27687E+002	7	...........
	340	341	4.03537E+000	-1.78933E-006	0.00000E+000	-7.22060E-006	0.00000E+000	6.75290E-004	-3.27687E+002	7	...........
	341	342	4.03537E+000	-1.78893E-006	0.00000E+000	-7.21901E-006	0.00000E+000	6.74557E-004	-3.27687E+002	7	...........
	342	343	4.03538E+000	-1.78856E-006	0.00000E+000	-7.21753E-006	0.00000E+000	6.72990E-004	-3.27687E+002	7	...........
	343	344	4.03538E+000	-1.78908E-006	0.00000E+000	-7.21963E-006	0.00000E+000	6.72474E-004	-3.27687E+002	7	...........
	344	345	4.03539E+000	-1.78780E-006	0.00000E+000	-7.21447E-006	0.00000E+000	6.74324E-004	-3.27687E+002	7	...........
	345	346	4.03540E+000	-1.78836E-006	0.00000E+000	-7.21676E-006	0.00000E+000	6.73890E-004	-3.27687E+002	7	...........
	346	347	4.03539E+000	-1.78909E-006	0.00000E+000	-7.21969E-006	0.00000E+000	6.70490E-004	-3.27687E+002	7	...........
	347	348	4.03541E+000	-1.78932E-006	0.00000E+000	-7.22062E-006	0.00000E+000	6.72840E-004	-3.27687E+002	7	...........
	348	349	4.03540E+000	-1.78859E-006	0.00000E+000	-7.21769E-006	0.00000E+000	6.72424E-004	-3.27687E+002	7	...........
	349	350	4.03540E+000	-1.78833E-006	0.00000E+000	-7.21662E-006	0.00000E+000	6.70940E-004	-3.27687E+002	7	...........
	350	351	4.03541E+000	-1.78865E-006	0.00000E+000	-7.21793E-006	0.00000E+000	6.70290E-004	-3.27687E+002	7	...........
	351	352	4.03542E+000	-1.78801E-006	0.00000E+000	-7.21538E-006	0.00000E+000	6.69907E-004	-3.27687E+002	7	...........
	352	353	4.03542E+000	-1.78835E-006	0.00000E+000	-7.21673E-006	0.00000E+000	6.70690E-004	-3.27687E+002	7	...........
	353	354	4.03543E+000	-1.78819E-006	0.00000E+000	-7.21610E-006	0.00000E+000	6.69157E-004	-3.27687E+002	7	...........
	354	355	4.03542E+000	-1.78868E-006	0.00000E+000	-7.21808E-006	0.00000E+000	6.69890E-004	-3.27687E+002	7	...........
	355	356	4.03543E+000	-1.78839E-006	0.00000E+000	-7.21690E-006	0.00000E+000	6.72857E-004	-3.27687E+002	7	...........
	356	357	4.03544E+000	-1.78654E-006	0.00000E+000	-7.20946E-006	0.00000E+000	6.71407E-004	-3.27687E+002	7	...........
	357	358	4.03544E+000	-1.78685E-006	0.00000E+000	-7.21074E-006	0.00000E+000	6.74224E-004	-3.27687E+002	7	...........
	358	359	4.03544E+000	-1.78809E-006	0.00000E+000	-7.21572E-006	0.00000E+000	6.70057E-004	-3.27687E+002	7	...........
	359	360	4.03544E+000	-1.78830E-006	0.00000E+000	-7.21659E-006	0.00000E+000	6.69424E-004	-3.27687E+002	7	...........
	360	361	4.03544E+000	-1.78832E-006	0.00000E+000	-7.21664E-006	0.00000E+000	6.72424E-004	-3.27687E+002	7	...........
	361	362	4.03544E+000	-1.78790E-006	0.00000E+000	-7.21498E-006	0.00000E+000	6.69807E-004	-3.27687E+002	7	...........
	362	363	4.03544E+000	-1.78846E-006	0.00000E+000	-7.21722E-006	0.00000E+000	6.71224E-004	-3.27687E+002	7	...........
	363	364	4.03545E+000	-1.78849E-006	0.00000E+000	-7.21737E-006	0.00000E+000	6.72074E-004	-3.27687E+002	7	...........
	364	365	4.03546E+000	-1.78831E-006	0.00000E+000	-7.21667E-006	0.00000E+000	6.70074E-004	-3.27687E+002	7	...........
	365	366	4.03546E+000	-1.78889E-006	0.00000E+000	-7.21899E-006	0.00000E+000	6.72374E-004	-3.27687E+002	7	...........
	366	367	4.03546E+000	-1.78905E-006	0.00000E+000	-7.21964E-006	0.00000E+000	6.70340E-004	-3.27687E+002	7	...........
	367	368	4.03547E+000	-1.78865E-006	0.00000E+000	-7.21803E-006	0.00000E+000	6.67507E-004	-3.27687E+002	7	...........
	368	369	4.03547E+000	-1.78784E-006	0.00000E+000	-7.21477E-006	0.00000E+000	6.71474E-004	-3.27687E+002	7	...........
	369	370	4.03547E+000	-1.78728E-006	0.00000E+000	-7.21252E-006	0.00000E+000	6.69040E-004	-3.27687E+002	7	...........
	370	371	4.03547E+000	-1.78778E-006	0.00000E+000	-7.21454E-006	0.00000E+000	6.69674E-004	-3.27687E+002	7	...........
	371	372	4.03548E+000	-1.78750E-006	0.00000E+000	-7.21341E-006	0.00000E+000	6.70557E-004	-3.27687E+002	7	...........
	372	373	4.03548E+000	-1.78669E-006	0.00000E+000	-7.21017E-006	0.00000E+000	6.68157E-004	-3.27687E+002	7	...........
	373	374	4.03549E+000	-1.78647E-006	0.00000E+000	-7.20928E-006	0.00000E+000	6.69824E-004	-3.27687E+002	7	...........
	374	375	4.03548E+000	-1.78744E-006	0.00000E+000	-7.21319E-006	0.00000E+000	6.69524E-004	-3.27687E+002	7	...........
	375	376	4.03550E+000	-1.78712E-006	0.00000E+000	-7.21191E-006	0.00000E+000	6.69974E-004	-3.27687E+002	7	...........
	376	377	4.03549E+000	-1.78750E-006	0.00000E+000	-7.21343E-006	0.00000E+000	6.67807E-004	-3.27687E+002	7	...........
	377	378	4.03550E+000	-1.78778E-006	0.00000E+000	-7.21460E-006	0.00000E+000	6.67274E-004	-3.27687E+002	7	...........
	378	379	4.03550E+000	-1.78748E-006	0.00000E+000	-7.21339E-006	0.00000E+000	6.68624E-004	-3.27687E+002	7	...........
	379	380	4.03550E+000	-1.78693E-006	0.00000E+000	-7.21118E-006	0.00000E+000	6.69840E-004	-3.27687E+002	7	...........
	380	381	4.03551E+000	-1.78745E-006	0.00000E+000	-7.21327E-006	0.00000E+000	6.68340E-004	-3.27687E+002	7	...........
	381	382	4.03551E+000	-1.78661E-006	0.00000E+000	-7.20989E-006	0.00000E+000	6.70040E-004	-3.27687E+002	7	...........
	382	383	4.03551E+000	-1.78768E-006	0.00000E+000	-7.21419E-006	0.00000E+000	6.68407E-004	-3.27687E+002	7	...........
	383	384	4.03552E+000	-1.78746E-006	0.00000E+000	-7.21334E-006	0.00000E+000	6.71390E-004	-3.27687E+002	7	...........
	384	385	4.03552E+000	-1.78704E-006	0.00000E+000	-7.21165E-006	0.00000E+000	6.69174E-004	-3.27687E+002	7	...........
	385	386	4.03553E+000	-1.78686E-006	0.00000E+000	-7.21091E-006	0.00000E+000	6.68424E-004	-3.27687E+002	7	...........
	386	387	4.03553E+000	-1.78763E-006	0.00000E+000	-7.21403E-006	0.00000E+000	6.67857E-004	-3.27687E+002	7	...........
	387	388	4.03553E+000	-1.78822E-006	0.00000E+000	-7.21644E-006	0.00000E+000	6.67724E-004	-3.27687E+002	7	...........
	388	389	4.03553E+000	-1.78743E-006	0.00000E+000	-7.21323E-006	0.00000E+000	6.68540E-004	-3.27687E+002	7	...........
	389	390	4.03553E+000	-1.78787E-006	0.00000E+000	-7.21499E-006	0.00000E+000	6.68190E-004	-3.27687E+002	7	...........
	390	391	4.03552E+000	-1.78758E-006	0.00000E+000	-7.21383E-006	0.00000E+000	6.70974E-004	-3.27687E+002	7	...........
	391	392	4.03553E+000	-1.78786E-006	0.00000E+000	-7.21499E-006	0.00000E+000	6.69824E-004	-3.27687E+002	7	...........
	392	393	4.03554E+000	-1.78689E-006	0.00000E+000	-7.21107E-006	0.00000E+000	6.69807E-004	-3.27687E+002	7	...........
	393	394	4.03555E+000	-1.78696E-006	0.00000E+000	-7.21137E-006	0.00000E+000	6.69074E-004	-3.27687E+002	7	...........
	394	395	4.03554E+000	-1.78723E-006	0.00000E+000	-7.21243E-006	0.00000E+000	6.68074E-004	-3.27687E+002	7	...........
	395	396	4.03555E+000	-1.78756E-006	0.00000E+000	-7.21380E-006	0.00000E+000	6.68424E-004	-3.27687E+002	7	...........
	396	397	4.03555E+000	-1.78727E-006	0.00000E+000	-7.21264E-006	0.00000E+000	6.68557E-004	-3.27687E+002	7	...........
	397	398	4.03556E+000	-1.78605E-006	0.00000E+000	-7.20770E-006	0.00000E+000	6.66107E-004	-3.27687E+002	7	...........
	398	399	4.03556E+000	-1.78717E-006	0.00000E+000	-7.21222E-006	0.00000E+000	6.67924E-004	-3.27687E+002	7	...........
	399	400	4.03556E+000	-1.78714E-006	0.00000E+000	-7.21212E-006	0.00000E+000	6.68557E-004	-3.27687E+002	7	...........
	400	401	4.03557E+000	-1.78694E-006	0.00000E+000	-7.21130E-006	0.00000E+000	6.70357E-004	-3.27687E+002	7	...........
	401	402	4.03557E+000	-1.78659E-006	0.00000E+000	-7.20993E-006	0.00000E+000	6.66474E-004	-3.27687E+002	7	...........
	402	403	4.03556E+000	-1.78705E-006	0.00000E+000	-7.21174E-006	0.00000E+000	6.68707E-004	-3.27687E+002	7	...........
	403	404	4.03558E+000	-1.78752E-006	0.00000E+000	-7.21366E-006	0.00000E+000	6.68440E-004	-3.27687E+002	7	...........
	404	405	4.03558E+000	-1.78618E-006	0.00000E+000	-7.20827E-006	0.00000E+000	6.67990E-004	-3.27687E+002	7	...........
	405	406	4.03558E+000	-1.78531E-006	0.00000E+000	-7.20476E-006	0.00000E+000	6.68057E-004	-3.27687E+002	7	...........
	406	407	4.03558E+000	-1.78652E-006	0.00000E+000	-7.20964E-006	0.00000E+000	6.69540E-004	-3.27687E+002	7	...........
	407	408	4.03559E+000	-1.78721E-006	0.00000E+000	-7.21243E-006	0.00000E+000	6.68907E-004	-3.27687E+002	7	...........
	408	409	4.03558E+000	-1.78627E-006	0.00000E+000	-7.20866E-006	0.00000E+000	6.68990E-004	-3.27687E+002	7	...........
	409	410	4.03558E+000	-1.78601E-006	0.00000E+000	-7.20760E-006	0.00000E+000	6.68874E-004	-3.27687E+002	7	...........
	410	411	4.03559E+000	-1.78673E-006	0.00000E+000	-7.21053E-006	0.00000E+000	6.69924E-004	-3.27687E+002	7	...........
	411	412	4.03559E+000	-1.78624E-006	0.00000E+000	-7.20852E-006	0.00000E+000	6.68224E-004	-3.27687E+002	7	...........
	412	413	4.03560E+000	-1.78707E-006	0.00000E+000	-7.21187E-006	0.00000E+000	6.71407E-004	-3.27687E+002	7	...........
	413	414	4.03560E+000	-1.78727E-006	0.00000E+000	-7.21273E-006	0.00000E+000	6.68290E-004	-3.27687E+002	7	...........
	414	415	4.03560E+000	-1.78645E-006	0.00000E+000	-7.20942E-006	0.00000E+000	6.69807E-004	-3.27687E+002	7	...........
	415	416	4.03560E+000	-1.78678E-006	0.00000E+000	-7.21071E-006	0.00000E+000	6.68290E-004	-3.27687E+002	7	...........
	416	417	4.03562E+000	-1.78570E-006	0.00000E+000	-7.20640E-006	0.00000E+000	6.69690E-004	-3.27687E+002	7	...........
	417	418	4.03561E+000	-1.78609E-006	0.00000E+000	-7.20793E-006	0.00000E+000	6.68657E-004	-3.27687E+002	7	...........
	418	419	4.03561E+000	-1.78621E-006	0.00000E+000	-7.20844E-006	0.00000E+000	6.67174E-004	-3.27687E+002	7	...........
	419	420	4.03561E+000	-1.78664E-006	0.00000E+000	-7.21019E-006	0.00000E+000	6.65774E-004	-3.27687E+002	7	...........
	420	421	4.03561E+000	-1.78709E-006	0.00000E+000	-7.21201E-006	0.00000E+000	6.68857E-004	-3.27687E+002	7	...........
	421	422	4.03562E+000	-1.78688E-006	0.00000E+000	-7.21117E-006	0.00000E+000	6.65590E-004	-3.27687E+002	7	...........
	422	423	4.03563E+000	-1.78653E-006	0.00000E+000	-7.20977E-006	0.00000E+000	6.67657E-004	-3.27687E+002	7	...........
	423	424	4.03563E+000	-1.78759E-006	0.00000E+000	-7.21403E-006	0.00000E+000	6.68524E-004	-3.27687E+002	7	...........
	424	425	4.03563E+000	-1.78785E-006	0.00000E+000	-7.21509E-006	0.00000E+000	6.68924E-004	-3.27687E+002	7	...........
	425	426	4.03563E+000	-1.78678E-006	0.00000E+000	-7.21078E-006	0.00000E+000	6.67457E-004	-3.27687E+002	7	...........
	426	427	4.03563E+000	-1.78667E-006	0.00000E+000	-7.21034E-006	0.00000E+000	6.65824E-004	-3.27687E+002	7	...........
	427	428	4.03564E+000	-1.78642E-006	0.00000E+000	-7.20936E-006	0.00000E+000	6.67624E-004	-3.27687E+002	7	...........
	428	429	4.03564E+000	-1.78655E-006	0.00000E+000	-7.20989E-006	0.00000E+000	6.67157E-004	-3.27687E+002	7	...........
	429	430	4.03564E+000	-1.78675E-006	0.00000E+000	-7.21068E-006	0.00000E+000	6.65207E-004	-3.27687E+002	7	...........
	430	431	4.03565E+000	-1.78635E-006	0.00000E+000	-7.20910E-006	0.00000E+000	6.66374E-004	-3.27687E+002	7	...........
	431	432	4.03564E+000	-1.78706E-006	0.00000E+000	-7.21191E-006	0.00000E+000	6.66374E-004	-3.27687E+002	7	...........
	432	433	4.03565E+000	-1.78652E-006	0.00000E+000	-7.20978E-006	0.00000E+000	6.64974E-004	-3.27687E+002	7	...........
	433	434	4.03565E+000	-1.78568E-006	0.00000E+000	-7.20639E-006	0.00000E+000	6.64874E-004	-3.27687E+002	7	...........
	434	435	4.03565E+000	-1.78562E-006	0.00000E+000	-7.20612E-006	0.00000E+000	6.63090E-004	-3.27687E+002	7	...........
	435	436	4.03566E+000	-1.78697E-006	0.00000E+000	-7.21161E-006	0.00000E+000	6.66407E-004	-3.27687E+002	7	...........
	436	437	4.03566E+000	-1.78680E-006	0.00000E+000	-7.21091E-006	0.00000E+000	6.63407E-004	-3.27687E+002	7	...........
	437	438	4.03566E+000	-1.78684E-006	0.00000E+000	-7.21108E-006	0.00000E+000	6.67324E-004	-3.27687E+002	7	...........
	438	439	4.03566E+000	-1.78665E-006	0.00000E+000	-7.21032E-006	0.00000E+000	6.65874E-004	-3.27687E+002	7	...........
	439	440	4.03567E+000	-1.78666E-006	0.00000E+000	-7.21037E-006	0.00000E+000	6.66507E-004	-3.27687E+002	7	...........
	440	441	4.03567E+000	-1.78611E-006	0.00000E+000	-7.20813E-006	0.00000E+000	6.66774E-004	-3.27687E+002	7	...........
	441	442	4.03566E+000	-1.78499E-006	0.00000E+000	-7.20362E-006	0.00000E+000	6.63874E-004	-3.27687E+002	7	...........
	442	443	4.03567E+000	-1.78586E-006	0.00000E+000	-7.20712E-006	0.00000E+000	6.66440E-004	-3.27687E+002	7	...........
	443	444	4.03568E+000	-1.78643E-006	0.00000E+000	-7.20947E-006	0.00000E+000	6.65090E-004	-3.27687E+002	7	...........
	444	445	4.03568E+000	-1.78601E-006	0.00000E+000	-7.20776E-006	0.00000E+000	6.67224E-004	-3.27687E+002	7	...........
	445	446	4.03569E+000	-1.78567E-006	0.00000E+000	-7.20641E-006	0.00000E+000	6.66090E-004	-3.27687E+002	7	...........
	446	447	4.03569E+000	-1.78549E-006	0.00000E+000	-7.20567E-006	0.00000E+000	6.64090E-004	-3.27687E+002	7	...........
	447	448	4.03569E+000	-1.78566E-006	0.00000E+000	-7.20638E-006	0.00000E+000	6.65674E-004	-3.27687E+002	7	...........
	448	449	4.03569E+000	-1.78543E-006	0.00000E+000	-7.20543E-006	0.00000E+000	6.66790E-004	-3.27687E+002	7	...........
	449	450	4.03569E+000	-1.78588E-006	0.00000E+000	-7.20725E-006	0.00000E+000	6.66357E-004	-3.27687E+002	7	...........
	450	451	4.03569E+000	-1.78610E-006	0.00000E+000	-7.20814E-006	0.00000E+000	6.64274E-004	-3.27687E+002	7	...........
	451	452	4.03569E+000	-1.78545E-006	0.00000E+000	-7.20553E-006	0.00000E+000	6.63424E-004	-3.27687E+002	7	...........
	452	453	4.03570E+000	-1.78512E-006	0.00000E+000	-7.20421E-006	0.00000E+000	6.62424E-004	-3.27687E+002	7	...........
	453	454	4.03570E+000	-1.78471E-006	0.00000E+000	-7.20253E-006	0.00000E+000	6.61824E-004	-3.27687E+002	7	...........
	454	455	4.03570E+000	-1.78510E-006	0.00000E+000	-7.20415E-006	0.00000E+000	6.63724E-004	-3.27687E+002	7	...........
	455	456	4.03570E+000	-1.78545E-006	0.00000E+000	-7.20552E-006	0.00000E+000	6.64940E-004	-3.27687E+002	7	...........
	456	457	4.03571E+000	-1.78533E-006	0.00000E+000	-7.20506E-006	0.00000E+000	6.64474E-004	-3.27687E+002	7	...........
	457	458	4.03571E+000	-1.78575E-006	0.00000E+000	-7.20678E-006	0.00000E+000	6.63174E-004	-3.27687E+002	7	...........
	458	459	4.03571E+000	-1.78600E-006	0.00000E+000	-7.20779E-006	0.00000E+000	6.65674E-004	-3.27687E+002	7	...........
	459	460	4.03571E+000	-1.78538E-006	0.00000E+000	-7.20527E-006	0.00000E+000	6.64590E-004	-3.27687E+002	7	...........
	460	461	4.03572E+000	-1.78574E-006	0.00000E+000	-7.20675E-006	0.00000E+000	6.62074E-004	-3.27687E+002	7	...........
	461	462	4.03572E+000	-1.78523E-006	0.00000E+000	-7.20467E-006	0.00000E+000	6.62390E-004	-3.27687E+002	7	...........
	462	463	4.03573E+000	-1.78572E-006	0.00000E+000	-7.20667E-006	0.00000E+000	6.63524E-004	-3.27687E+002	7	...........
	463	464	4.03572E+000	-1.78586E-006	0.00000E+000	-7.20723E-006	0.00000E+000	6.61257E-004	-3.27687E+002	7	...........
	464	465	4.03572E+000	-1.78562E-006	0.00000E+000	-7.20628E-006	0.00000E+000	6.62724E-004	-3.27687E+002	7	...........
	465	466	4.03573E+000	-1.78419E-006	0.00000E+000	-7.20052E-006	0.00000E+000	6.62824E-004	-3.27687E+002	7	...........
	466	467	4.03573E+000	-1.78464E-006	0.00000E+000	-7.20231E-006	0.00000E+000	6.62190E-004	-3.27687E+002	7	...........
	467	468	4.03574E+000	-1.78514E-006	0.00000E+000	-7.20436E-006	0.00000E+000	6.61307E-004	-3.27687E+002	7	...........
	468	469	4.03573E+000	-1.78422E-006	0.00000E+000	-7.20063E-006	0.00000E+000	6.62440E-004	-3.27687E+002	7	...........
	469	470	4.03574E+000	-1.78416E-006	0.00000E+000	-7.20039E-006	0.00000E+000	6.64624E-004	-3.27687E+002	7	...........
	470	471	4.03574E+000	-1.78495E-006	0.00000E+000	-7.20358E-006	0.00000E+000	6.63890E-004	-3.27687E+002	7	...........
	471	472	4.03574E+000	-1.78562E-006	0.00000E+000	-7.20628E-006	0.00000E+000	6.63740E-004	-3.27687E+002	7	...........
	472	473	4.03574E+000	-1.78582E-006	0.00000E+000	-7.20710E-006	0.00000E+000	6.62090E-004	-3.27687E+002	7	...........
	473	474	4.03574E+000	-1.78627E-006	0.00000E+000	-7.20892E-006	0.00000E+000	6.61940E-004	-3.27687E+002	7	...........
	474	475	4.03574E+000	-1.78595E-006	0.00000E+000	-7.20765E-006	0.00000E+000	6.61990E-004	-3.27687E+002	7	...........
	475	476	4.03575E+000	-1.78573E-006	0.00000E+000	-7.20674E-006	0.00000E+000	6.62907E-004	-3.27687E+002	7	...........
	476	477	4.03575E+000	-1.78550E-006	0.00000E+000	-7.20583E-006	0.00000E+000	6.62840E-004	-3.27687E+002	7	...........
	477	478	4.03576E+000	-1.78474E-006	0.00000E+000	-7.20276E-006	0.00000E+000	6.63207E-004	-3.27687E+002	7	...........
	478	479	4.03576E+000	-1.78505E-006	0.00000E+000	-7.20401E-006	0.00000E+000	6.63390E-004	-3.27687E+002	7	...........
	479	480	4.03576E+000	-1.78566E-006	0.00000E+000	-7.20650E-006	0.00000E+000	6.63057E-004	-3.27687E+002	7	...........
	480	481	4.03576E+000	-1.78562E-006	0.00000E+000	-7.20633E-006	0.00000E+000	6.63324E-004	-3.27687E+002	7	...........
	481	482	4.03576E+000	-1.78539E-006	0.00000E+000	-7.20538E-006	0.00000E+000	6.64890E-004	-3.27687E+002	7	...........
	482	483	4.03577E+000	-1.78407E-006	0.00000E+000	-7.20007E-006	0.00000E+000	6.63674E-004	-3.27687E+002	7	...........
	483	484	4.03577E+000	-1.78489E-006	0.00000E+000	-7.20340E-006	0.00000E+000	6.64724E-004	-3.27687E+002	7	...........
	484	485	4.03577E+000	-1.78530E-006	0.00000E+000	-7.20505E-006	0.00000E+000	6.64840E-004	-3.27687E+002	7	...........
	485	486	4.03578E+000	-1.78478E-006	0.00000E+000	-7.20297E-006	0.00000E+000	6.63390E-004	-3.27687E+002	7	...........
	486	487	4.03577E+000	-1.78570E-006	0.00000E+000	-7.20667E-006	0.00000E+000	6.65290E-004	-3.27687E+002	7	...........
	487	488	4.03577E+000	-1.78595E-006	0.00000E+000	-7.20770E-006	0.00000E+000	6.64907E-004	-3.27687E+002	7	...........
	488	489	4.03578E+000	-1.78524E-006	0.00000E+000	-7.20485E-006	0.00000E+000	6.64190E-004	-3.27687E+002	7	...........
	489	490	4.03578E+000	-1.78519E-006	0.00000E+000	-7.20464E-006	0.00000E+000	6.60240E-004	-3.27687E+002	7	...........
	490	491	4.03578E+000	-1.78569E-006	0.00000E+000	-7.20667E-006	0.00000E+000	6.62707E-004	-3.27687E+002	7	...........
	491	492	4.03579E+000	-1.78538E-006	0.00000E+000	-7.20542E-006	0.00000E+000	6.62024E-004	-3.27687E+002	7	...........
	492	493	4.03580E+000	-1.78559E-006	0.00000E+000	-7.20627E-006	0.00000E+000	6.59874E-004	-3.27687E+002	7	...........
	493	494	4.03580E+000	-1.78461E-006	0.00000E+000	-7.20232E-006	0.00000E+000	6.63540E-004	-3.27687E+002	7	...........
	494	495	4.03580E+000	-1.78538E-006	0.00000E+000	-7.20543E-006	0.00000E+000	6.63807E-004	-3.27687E+002	7	...........
	495	496	4.03580E+000	-1.78540E-006	0.00000E+000	-7.20552E-006	0.00000E+000	6.60974E-004	-3.27687E+002	7	...........
	496	497	4.03580E+000	-1.78537E-006	0.00000E+000	-7.20541E-006	0.00000E+000	6.61674E-004	-3.27687E+002	7	...........
	497	498	4.03581E+000	-1.78532E-006	0.00000E+000	-7.20522E-006	0.00000E+000	6.61724E-004	-3.27687E+002	7	...........
	498	499	4.03581E+000	-1.78494E-006	0.00000E+000	-7.20369E-006	0.00000E+000	6.63707E-004	-3.27687E+002	7	...........
	499	500	4.03580E+000	-1.78521E-006	0.00000E+000	-7.20477E-006	0.00000E+000	6.65490E-004	-3.27687E+002	7	...........
	500	501	4.03581E+000	-1.78500E-006	0.00000E+000	-7.20393E-006	0.00000E+000	6.65457E-004	-3.27687E+002	7	...........
	501	502	4.03581E+000	-1.78506E-006	0.00000E+000	-7.20418E-006	0.00000E+000	6.64507E-004	-3.27687E+002	7	...........
	502	503	4.03581E+000	-1.78544E-006	0.00000E+000	-7.20572E-006	0.00000E+000	6.62974E-004	-3.27687E+002	7	...........
	503	504	4.03580E+000	-1.78610E-006	0.00000E+000	-7.20836E-006	0.00000E+000	6.60907E-004	-3.27687E+002	7	...........
	504	505	4.03582E+000	-1.78580E-006	0.00000E+000	-7.20715E-006	0.00000E+000	6.64040E-004	-3.27687E+002	7	...........
	505	506	4.03581E+000	-1.78582E-006	0.00000E+000	-7.20724E-006	0.00000E+000	6.62040E-004	-3.27687E+002	7	...........
	506	507	4.03581E+000	-1.78540E-006	0.00000E+000	-7.20553E-006	0.00000E+000	6.63590E-004	-3.27687E+002	7	...........
	507	508	4.03581E+000	-1.78539E-006	0.00000E+000	-7.20550E-006	0.00000E+000	6.61974E-004	-3.27687E+002	7	...........
	508	509	4.03582E+000	-1.78563E-006	0.00000E+000	-7.20647E-006	0.00000E+000	6.60774E-004	-3.27687E+002	7	...........
	509	510	4.03582E+000	-1.78520E-006	0.00000E+000	-7.20474E-006	0.00000E+000	6.60024E-004	-3.27687E+002	7	...........
	510	511	4.03582E+000	-1.78579E-006	0.00000E+000	-7.20714E-006	0.00000E+000	6.63207E-004	-3.27687E+002	7	...........
	511	512	4.03582E+000	-1.78561E-006	0.00000E+000	-7.20640E-006	0.00000E+000	6.65440E-004	-3.27687E+002	7	...........
	512	513	4.03583E+000	-1.78593E-006	0.00000E+000	-7.20770E-006	0.00000E+000	6.62490E-004	-3.27687E+002	7	...........
	513	514	4.03582E+000	-1.78464E-006	0.00000E+000	-7.20250E-006	0.00000E+000	6.61524E-004	-3.27687E+002	7	...........
	514	515	4.03583E+000	-1.78476E-006	0.00000E+000	-7.20298E-006	0.00000E+000	6.64857E-004	-3.27687E+002	7	...........
	515	516	4.03584E+000	-1.78543E-006	0.00000E+000	-7.20569E-006	0.00000E+000	6.60490E-004	-3.27687E+002	7	...........
	516	517	4.03584E+000	-1.78532E-006	0.00000E+000	-7.20526E-006	0.00000E+000	6.61974E-004	-3.27687E+002	7	...........
	517	518	4.03584E+000	-1.78520E-006	0.00000E+000	-7.20478E-006	0.00000E+000	6.61407E-004	-3.27687E+002	7	...........
	518	519	4.03584E+000	-1.78549E-006	0.00000E+000	-7.20594E-006	0.00000E+000	6.64374E-004	-3.27687E+002	7	...........
	519	520	4.03584E+000	-1.78472E-006	0.00000E+000	-7.20286E-006	0.00000E+000	6.61690E-004	-3.27687E+002	7	...........
	520	521	4.03585E+000	-1.78549E-006	0.00000E+000	-7.20595E-006	0.00000E+000	6.62907E-004	-3.27687E+002	7	...........
	521	522	4.03584E+000	-1.78553E-006	0.00000E+000	-7.20613E-006	0.00000E+000	6.60290E-004	-3.27687E+002	7	...........
	522	523	4.03585E+000	-1.78586E-006	0.00000E+000	-7.20745E-006	0.00000E+000	6.63107E-004	-3.27687E+002	7	...........
	523	524	4.03584E+000	-1.78541E-006	0.00000E+000	-7.20563E-006	0.00000E+000	6.64607E-004	-3.27687E+002	7	...........
	524	525	4.03585E+000	-1.78549E-006	0.00000E+000	-7.20596E-006	0.00000E+000	6.63607E-004	-3.27687E+002	7	...........
	525	526	4.03586E+000	-1.78501E-006	0.00000E+000	-7.20404E-006	0.00000E+000	6.63807E-004	-3.27687E+002	7	...........
	526	527	4.03586E+000	-1.78428E-006	0.00000E+000	-7.20109E-006	0.00000E+000	6.63474E-004	-3.27687E+002	7	...........
	527	528	4.03586E+000	-1.78492E-006	0.00000E+000	-7.20370E-006	0.00000E+000	6.62057E-004	-3.27687E+002	7	...........
	528	529	4.03585E+000	-1.78568E-006	0.00000E+000	-7.20676E-006	0.00000E+000	6.62024E-004	-3.27687E+002	7	...........
	529	530	4.03586E+000	-1.78513E-006	0.00000E+000	-7.20454E-006	0.00000E+000	6.64374E-004	-3.27687E+002	7	...........
	530	531	4.03586E+000	-1.78446E-006	0.00000E+000	-7.20183E-006	0.00000E+000	6.63240E-004	-3.27687E+002	7	...........
	531	532	4.03587E+000	-1.78507E-006	0.00000E+000	-7.20429E-006	0.00000E+000	6.60574E-004	-3.27687E+002	7	...........
	532	533	4.03587E+000	-1.78541E-006	0.00000E+000	-7.20567E-006	0.00000E+000	6.62774E-004	-3.27687E+002	7	...........
	533	534	4.03587E+000	-1.78531E-006	0.00000E+000	-7.20528E-006	0.00000E+000	6.62807E-004	-3.27687E+002	7	...........
	534	535	4.03586E+000	-1.78467E-006	0.00000E+000	-7.20267E-006	0.00000E+000	6.64024E-004	-3.27687E+002	7	...........
	535	536	4.03588E+000	-1.78522E-006	0.00000E+000	-7.20494E-006	0.00000E+000	6.63740E-004	-3.27687E+002	7	...........
	536	537	4.03589E+000	-1.78514E-006	0.00000E+000	-7.20462E-006	0.00000E+000	6.64107E-004	-3.27687E+002	7	...........
	537	538	4.03589E+000	-1.78459E-006	0.00000E+000	-7.20240E-006	0.00000E+000	6.64724E-004	-3.27687E+002	7	...........
	538	539	4.03589E+000	-1.78358E-006	0.00000E+000	-7.19834E-006	0.00000E+000	6.62940E-004	-3.27687E+002	7	...........
	539	540	4.03588E+000	-1.78462E-006	0.00000E+000	-7.20253E-006	0.00000E+000	6.63607E-004	-3.27687E+002	7	...........
	540	541	4.03588E+000	-1.78412E-006	0.00000E+000	-7.20051E-006	0.00000E+000	6.59290E-004	-3.27687E+002	7	...........
	541	542	4.03588E+000	-1.78411E-006	0.00000E+000	-7.20046E-006	0.00000E+000	6.65707E-004	-3.27687E+002	7	...........
	542	543	4.03589E+000	-1.78423E-006	0.00000E+000	-7.20095E-006	0.00000E+000	6.61440E-004	-3.27687E+002	7	...........
	543	544	4.03589E+000	-1.78410E-006	0.00000E+000	-7.20045E-006	0.00000E+000	6.62540E-004	-3.27687E+002	7	...........
	544	545	4.03589E+000	-1.78375E-006	0.00000E+000	-7.19904E-006	0.00000E+000	6.63157E-004	-3.27687E+002	7	...........
	545	546	4.03590E+000	-1.78452E-006	0.00000E+000	-7.20214E-006	0.00000E+000	6.62007E-004	-3.27687E+002	7	...........
	546	547	4.03590E+000	-1.78430E-006	0.00000E+000	-7.20125E-006	0.00000E+000	6.61874E-004	-3.27687E+002	7	...........
	547	548	4.03589E+000	-1.78454E-006	0.00000E+000	-7.20222E-006	0.00000E+000	6.63257E-004	-3.27687E+002	7	...........
	548	549	4.03590E+000	-1.78419E-006	0.00000E+000	-7.20083E-006	0.00000E+000	6.62857E-004	-3.27687E+002	7	...........
	549	550	4.03590E+000	-1.78463E-006	0.00000E+000	-7.20258E-006	0.00000E+000	6.60890E-004	-3.27687E+002	7	...........
	550	551	4.03589E+000	-1.78300E-006	0.00000E+000	-7.19601E-006	0.00000E+000	6.61490E-004	-3.27687E+002	7	...........
	551	552	4.03590E+000	-1.78352E-006	0.00000E+000	-7.19813E-006	0.00000E+000	6.60174E-004	-3.27687E+002	7	...........
	552	553	4.03591E+000	-1.78375E-006	0.00000E+000	-7.19907E-006	0.00000E+000	6.60057E-004	-3.27687E+002	7	...........
	553	554	4.03591E+000	-1.78377E-006	0.00000E+000	-7.19915E-006	0.00000E+000	6.63274E-004	-3.27687E+002	7	...........
	554	555	4.03591E+000	-1.78317E-006	0.00000E+000	-7.19672E-006	0.00000E+000	6.64207E-004	-3.27687E+002	7	...........
	555	556	4.03591E+000	-1.78390E-006	0.00000E+000	-7.19966E-006	0.00000E+000	6.60540E-004	-3.27687E+002	7	...........
	556	557	4.03591E+000	-1.78377E-006	0.00000E+000	-7.19912E-006	0.00000E+000	6.62857E-004	-3.27687E+002	7	...........
	557	558	4.03591E+000	-1.78364E-006	0.00000E+000	-7.19863E-006	0.00000E+000	6.63207E-004	-3.27687E+002	7	...........
	558	559	4.03591E+000	-1.78408E-006	0.00000E+000	-7.20040E-006	0.00000E+000	6.62190E-004	-3.27687E+002	7	...........
	559	560	4.03592E+000	-1.78407E-006	0.00000E+000	-7.20034E-006	0.00000E+000	6.61757E-004	-3.27687E+002	7	...........
	560	561	4.03592E+000	-1.78478E-006	0.00000E+000	-7.20324E-006	0.00000E+000	6.62857E-004	-3.27687E+002	7	...........
	561	562	4.03591E+000	-1.78453E-006	0.00000E+000	-7.20219E-006	0.00000E+000	6.60757E-004	-3.27687E+002	7	...........
	562	563	4.03592E+000	-1.78394E-006	0.00000E+000	-7.19982E-006	0.00000E+000	6.61857E-004	-3.27687E+002	7	...........
	563	564	4.03592E+000	-1.78285E-006	0.00000E+000	-7.19543E-006	0.00000E+000	6.61840E-004	-3.27687E+002	7	...........
	564	565	4.03592E+000	-1.78425E-006	0.00000E+000	-7.20110E-006	0.00000E+000	6.62457E-004	-3.27687E+002	7	...........
	565	566	4.03593E+000	-1.78364E-006	0.00000E+000	-7.19867E-006	0.00000E+000	6.60607E-004	-3.27687E+002	7	...........
	566	567	4.03593E+000	-1.78394E-006	0.00000E+000	-7.19986E-006	0.00000E+000	6.60690E-004	-3.27687E+002	7	...........
	567	568	4.03593E+000	-1.78312E-006	0.00000E+000	-7.19654E-006	0.00000E+000	6.60907E-004	-3.27687E+002	7	...........
	568	569	4.03593E+000	-1.78414E-006	0.00000E+000	-7.20067E-006	0.00000E+000	6.59840E-004	-3.27687E+002	7	...........
	569	570	4.03594E+000	-1.78390E-006	0.00000E+000	-7.19972E-006	0.00000E+000	6.61757E-004	-3.27687E+002	7	...........
	570	571	4.03594E+000	-1.78439E-006	0.00000E+000	-7.20170E-006	0.00000E+000	6.63340E-004	-3.27687E+002	7	...........
	571	572	4.03594E+000	-1.78370E-006	0.00000E+000	-7.19890E-006	0.00000E+000	6.65607E-004	-3.27687E+002	7	...........
	572	573	4.03594E+000	-1.78431E-006	0.00000E+000	-7.20137E-006	0.00000E+000	6.63524E-004	-3.27687E+002	7	...........
	573	574	4.03595E+000	-1.78382E-006	0.00000E+000	-7.19941E-006	0.00000E+000	6.64274E-004	-3.27687E+002	7	...........
	574	575	4.03596E+000	-1.78339E-006	0.00000E+000	-7.19769E-006	0.00000E+000	6.63440E-004	-3.27687E+002	7	...........
	575	576	4.03596E+000	-1.78352E-006	0.00000E+000	-7.19822E-006	0.00000E+000	6.64407E-004	-3.27687E+002	7	...........
	576	577	4.03596E+000	-1.78382E-006	0.00000E+000	-7.19944E-006	0.00000E+000	6.67857E-004	-3.27687E+002	7	...........
	577	578	4.03596E+000	-1.78299E-006	0.00000E+000	-7.19609E-006	0.00000E+000	6.63874E-004	-3.27687E+002	7	...........
	578	579	4.03594E+000	-1.78289E-006	0.00000E+000	-7.19563E-006	0.00000E+000	6.63657E-004	-3.27687E+002	7	...........
	579	580	4.03595E+000	-1.78364E-006	0.00000E+000	-7.19867E-006	0.00000E+000	6.63840E-004	-3.27687E+002	7	...........
	580	581	4.03596E+000	-1.78316E-006	0.00000E+000	-7.19676E-006	0.00000E+000	6.64407E-004	-3.27687E+002	7	...........
	581	582	4.03596E+000	-1.78399E-006	0.00000E+000	-7.20012E-006	0.00000E+000	6.60674E-004	-3.27687E+002	7	...........
	582	583	4.03596E+000	-1.78415E-006	0.00000E+000	-7.20077E-006	0.00000E+000	6.63790E-004	-3.27687E+002	7	...........
	583	584	4.03597E+000	-1.78409E-006	0.00000E+000	-7.20052E-006	0.00000E+000	6.63474E-004	-3.27687E+002	7	...........
	584	585	4.03596E+000	-1.78424E-006	0.00000E+000	-7.20112E-006	0.00000E+000	6.62457E-004	-3.27687E+002	7	...........
	585	586	4.03597E+000	-1.78414E-006	0.00000E+000	-7.20073E-006	0.00000E+000	6.64374E-004	-3.27687E+002	7	...........
	586	587	4.03597E+000	-1.78312E-006	0.00000E+000	-7.19662E-006	0.00000E+000	6.61557E-004	-3.27687E+002	7	...........
	587	588	4.03596E+000	-1.78326E-006	0.00000E+000	-7.19718E-006	0.00000E+000	6.63957E-004	-3.27687E+002	7	...........
	588	589	4.03597E+000	-1.78353E-006	0.00000E+000	-7.19827E-006	0.00000E+000	6.66207E-004	-3.27687E+002	7	...........
	589	590	4.03597E+000	-1.78314E-006	0.00000E+000	-7.19671E-006	0.00000E+000	6.63074E-004	-3.27687E+002	7	...........
	590	591	4.03598E+000	-1.78286E-006	0.00000E+000	-7.19558E-006	0.00000E+000	6.62924E-004	-3.27687E+002	7	...........
	591	592	4.03598E+000	-1.78307E-006	0.00000E+000	-7.19642E-006	0.00000E+000	6.64040E-004	-3.27687E+002	7	...........
	592	593	4.03598E+000	-1.78278E-006	0.00000E+000	-7.19526E-006	0.00000E+000	6.62340E-004	-3.27687E+002	7	...........
	593	594	4.03598E+000	-1.78379E-006	0.00000E+000	-7.19932E-006	0.00000E+000	6.64007E-004	-3.27687E+002	7	...........
	594	595	4.03598E+000	-1.78375E-006	0.00000E+000	-7.19919E-006	0.00000E+000	6.63640E-004	-3.27687E+002	7	...........
	595	596	4.03598E+000	-1.78259E-006	0.00000E+000	-7.19448E-006	0.00000E+000	6.65257E-004	-3.27687E+002	7	...........
	596	597	4.03598E+000	-1.78278E-006	0.00000E+000	-7.19527E-006	0.00000E+000	6.64057E-004	-3.27687E+002	7	...........
	597	598	4.03598E+000	-1.78350E-006	0.00000E+000	-7.19819E-006	0.00000E+000	6.62524E-004	-3.27687E+002	7	...........
	598	599	4.03598E+000	-1.78327E-006	0.00000E+000	-7.19725E-006	0.00000E+000	6.63240E-004	-3.27687E+002	7	...........
	599	600	4.03598E+000	-1.78200E-006	0.00000E+000	-7.19210E-006	0.00000E+000	6.63824E-004	-3.27687E+002	7	...........
