EXPLAIN
TAG	PWR800_READVOLTAGE
TITLE	LABEL	PWR Read Voltage	Test Identifier
DATE	LABEL	21.6.2024	Date
TIME	LABEL	21:14:53	Time
NOTES	NOTES	1	Notes...
	
PSTAT	PSTAT	REF600-12055	Potentiostat
CAPACITY	QUANT	1.00000E+000	Capacity (A-hr)
CELLTYPE	SELECTOR	1	Cell Type
WORKINGCONNECTION	SELECTOR	0	Working Connection
MAXTIME	VARIABLEANDUNITS	6.00000E+002	s	6.00000E+002	second(s)	Max Time
SAMPLETIME	QUANT	1.00000E+000	Sample Period (s)
STOPAT1	MULTIPARAM	0	0.00000E+000	Stop At 1	None	N/A
STOPAT2	MULTIPARAM	0	0.00000E+000	Stop At 2	None	N/A
AESBHCSELECTOR	TOGGLE	F	Save Both Half Cells
EOC	QUANT	3.905522	Open Circuit (V)
SEQUENCER	TOGGLE	TRUE	Run as Sequence
PSTATMODEL	IQUANT	4	Pstat Model
PSTATSECTION	LABEL	REF600-12055	Pstat Section
PSTATSERIALNO	LABEL	12055	Pstat Serial Number
CTRLMODE	IQUANT	0	Control Mode
ELECTROMETER	IQUANT	0	RE=0 or CS=1
IESTAB	IQUANT	0	I/E Stability
CASPEED	IQUANT	4	Control Amp Speed
CONVENTION	IQUANT	1	Current Convention
ICHRANGE	IQUANT	2	Ich Range
ICHRANGEMODE	TOGGLE	T	Ich Auto Range
ICHOFFSETENABLE	TOGGLE	F	Ich Offset Enable
ICHOFFSET	QUANT	0	Ich Offset (V)
ICHFILTER	IQUANT	1	Ich Filter
VCHRANGE	IQUANT	3	Vch Range
VCHRANGEMODE	TOGGLE	T	Vch Auto Range
VCHOFFSETENABLE	TOGGLE	F	Vch Offset Enable
VCHOFFSET	QUANT	0	Vch Offset (V)
VCHFILTER	IQUANT	1	Vch Filter
ACHRANGE	IQUANT	2	Ach Range
ACHOFFSETENABLE	TOGGLE	F	Ach Offset Enable
ACHOFFSET	QUANT	0	Ach Offset (V)
ACHFILTER	IQUANT	1	Ach Filter
IERANGELOWERLIMIT	IQUANT	7	I/E Range Lower Limit
IERANGEMODE	TOGGLE	F	I/E AutoRange
IERANGE	IQUANT	11	I/E Range
POSFEEDENABLE	TOGGLE	F	Positive Feedback IR Comp
POSFEEDRESISTANCE	QUANT	0	Positive Feedback Resistance (ohm)
ACHSELECT	IQUANT	4	Ach Select
SENSECABLEID	IQUANT	14	Sense Cable ID
PWRCABLEID	IQUANT	14	Power Cable ID
DCCALDATE	LABEL	2/12/2024	DC Calibration Date
ACCALDATE	LABEL	2/12/2024	AC Calibration Date
THERMOSELECT	IQUANT	1	Thermo Select
FRAMEWORKVERSION	LABEL	7.10.3	Framework Version
INSTRUMENTVERSION	LABEL	4.91	Instrument Version
COMMVERSION	LABEL	2.24	Communications Version
CPUPLDVERSION	LABEL	0.00	CPU PLD Version
CTRLPLDVERSION	LABEL	0.00	CTRL PLD Version
PSTATPLDVERSION	LABEL	0.00	PSTAT PLD Version
CURVE	TABLE	600
	Pt	T	Vf	Im	Vu	Pwr	Sig	Ach	Temp	IERange	Over
	#	s	V	A	V	W	V	V	deg C	#	bits
	0	1	4.01431E+000	1.63310E-006	0.00000E+000	6.55579E-006	0.00000E+000	1.02636E-003	-3.27687E+002	7	...........
	1	2	4.01405E+000	1.63314E-006	0.00000E+000	6.55550E-006	0.00000E+000	1.02327E-003	-3.27687E+002	7	...........
	2	3	4.01386E+000	1.63388E-006	0.00000E+000	6.55817E-006	0.00000E+000	1.01947E-003	-3.27687E+002	7	...........
	3	4	4.01367E+000	1.63394E-006	0.00000E+000	6.55809E-006	0.00000E+000	1.01932E-003	-3.27687E+002	7	...........
	4	5	4.01349E+000	1.63346E-006	0.00000E+000	6.55590E-006	0.00000E+000	1.02101E-003	-3.27687E+002	7	...........
	5	6	4.01334E+000	1.63306E-006	0.00000E+000	6.55404E-006	0.00000E+000	1.01891E-003	-3.27687E+002	7	...........
	6	7	4.01318E+000	1.63295E-006	0.00000E+000	6.55333E-006	0.00000E+000	1.01909E-003	-3.27687E+002	7	...........
	7	8	4.01306E+000	1.63342E-006	0.00000E+000	6.55502E-006	0.00000E+000	1.02257E-003	-3.27687E+002	7	...........
	8	9	4.01291E+000	1.63381E-006	0.00000E+000	6.55632E-006	0.00000E+000	1.02287E-003	-3.27687E+002	7	...........
	9	10	4.01276E+000	1.63269E-006	0.00000E+000	6.55160E-006	0.00000E+000	1.02489E-003	-3.27687E+002	7	...........
	10	11	4.01261E+000	1.63294E-006	0.00000E+000	6.55235E-006	0.00000E+000	1.02652E-003	-3.27687E+002	7	...........
	11	12	4.01248E+000	1.63329E-006	0.00000E+000	6.55356E-006	0.00000E+000	1.02492E-003	-3.27687E+002	7	...........
	12	13	4.01236E+000	1.63354E-006	0.00000E+000	6.55438E-006	0.00000E+000	1.02501E-003	-3.27687E+002	7	...........
	13	14	4.01227E+000	1.63350E-006	0.00000E+000	6.55402E-006	0.00000E+000	1.02072E-003	-3.27687E+002	7	...........
	14	15	4.01218E+000	1.63352E-006	0.00000E+000	6.55395E-006	0.00000E+000	1.02137E-003	-3.27687E+002	7	...........
	15	16	4.01210E+000	1.63398E-006	0.00000E+000	6.55569E-006	0.00000E+000	1.02109E-003	-3.27687E+002	7	...........
	16	17	4.01203E+000	1.63368E-006	0.00000E+000	6.55435E-006	0.00000E+000	1.01764E-003	-3.27687E+002	7	...........
	17	18	4.01196E+000	1.63370E-006	0.00000E+000	6.55434E-006	0.00000E+000	1.01879E-003	-3.27687E+002	7	...........
	18	19	4.01191E+000	1.63376E-006	0.00000E+000	6.55450E-006	0.00000E+000	1.01596E-003	-3.27687E+002	7	...........
	19	20	4.01185E+000	1.63364E-006	0.00000E+000	6.55392E-006	0.00000E+000	1.01232E-003	-3.27687E+002	7	...........
	20	21	4.01179E+000	1.63402E-006	0.00000E+000	6.55536E-006	0.00000E+000	8.41740E-004	-3.27687E+002	7	...........
	21	22	4.01174E+000	1.63434E-006	0.00000E+000	6.55654E-006	0.00000E+000	7.62974E-004	-3.27687E+002	7	...........
	22	23	4.01168E+000	1.63409E-006	0.00000E+000	6.55544E-006	0.00000E+000	7.61640E-004	-3.27687E+002	7	...........
	23	24	4.01162E+000	1.63399E-006	0.00000E+000	6.55497E-006	0.00000E+000	7.62090E-004	-3.27687E+002	7	...........
	24	25	4.01156E+000	1.63326E-006	0.00000E+000	6.55191E-006	0.00000E+000	7.63390E-004	-3.27687E+002	7	...........
	25	26	4.01151E+000	1.63328E-006	0.00000E+000	6.55191E-006	0.00000E+000	7.62790E-004	-3.27687E+002	7	...........
	26	27	4.01144E+000	1.63422E-006	0.00000E+000	6.55559E-006	0.00000E+000	7.64774E-004	-3.27687E+002	7	...........
	27	28	4.01137E+000	1.63492E-006	0.00000E+000	6.55827E-006	0.00000E+000	7.68074E-004	-3.27687E+002	7	...........
	28	29	4.01131E+000	1.63442E-006	0.00000E+000	6.55618E-006	0.00000E+000	7.66824E-004	-3.27687E+002	7	...........
	29	30	4.01124E+000	1.63380E-006	0.00000E+000	6.55357E-006	0.00000E+000	7.66507E-004	-3.27687E+002	7	...........
	30	31	4.01119E+000	1.63346E-006	0.00000E+000	6.55213E-006	0.00000E+000	7.68174E-004	-3.27687E+002	7	...........
	31	32	4.01112E+000	1.63366E-006	0.00000E+000	6.55282E-006	0.00000E+000	7.66574E-004	-3.27687E+002	7	...........
	32	33	4.01107E+000	1.63407E-006	0.00000E+000	6.55439E-006	0.00000E+000	7.70207E-004	-3.27687E+002	7	...........
	33	34	4.01102E+000	1.63396E-006	0.00000E+000	6.55386E-006	0.00000E+000	7.67240E-004	-3.27687E+002	7	...........
	34	35	4.01096E+000	1.63392E-006	0.00000E+000	6.55359E-006	0.00000E+000	7.64874E-004	-3.27687E+002	7	...........
	35	36	4.01091E+000	1.63333E-006	0.00000E+000	6.55115E-006	0.00000E+000	7.65724E-004	-3.27687E+002	7	...........
	36	37	4.01087E+000	1.63319E-006	0.00000E+000	6.55051E-006	0.00000E+000	7.63990E-004	-3.27687E+002	7	...........
	37	38	4.01082E+000	1.63296E-006	0.00000E+000	6.54951E-006	0.00000E+000	7.62074E-004	-3.27687E+002	7	...........
	38	39	4.01077E+000	1.63409E-006	0.00000E+000	6.55397E-006	0.00000E+000	7.61824E-004	-3.27687E+002	7	...........
	39	40	4.01072E+000	1.63436E-006	0.00000E+000	6.55497E-006	0.00000E+000	7.61590E-004	-3.27687E+002	7	...........
	40	41	4.01067E+000	1.63487E-006	0.00000E+000	6.55694E-006	0.00000E+000	7.57790E-004	-3.27687E+002	7	...........
	41	42	4.01061E+000	1.63446E-006	0.00000E+000	6.55520E-006	0.00000E+000	7.55774E-004	-3.27687E+002	7	...........
	42	43	4.01057E+000	1.63484E-006	0.00000E+000	6.55662E-006	0.00000E+000	7.52907E-004	-3.27687E+002	7	...........
	43	44	4.01051E+000	1.63436E-006	0.00000E+000	6.55462E-006	0.00000E+000	7.54740E-004	-3.27687E+002	7	...........
	44	45	4.01046E+000	1.63483E-006	0.00000E+000	6.55642E-006	0.00000E+000	7.51324E-004	-3.27687E+002	7	...........
	45	46	4.01041E+000	1.63523E-006	0.00000E+000	6.55795E-006	0.00000E+000	7.51057E-004	-3.27687E+002	7	...........
	46	47	4.01037E+000	1.63528E-006	0.00000E+000	6.55807E-006	0.00000E+000	7.51024E-004	-3.27687E+002	7	...........
	47	48	4.01031E+000	1.63502E-006	0.00000E+000	6.55696E-006	0.00000E+000	7.49574E-004	-3.27687E+002	7	...........
	48	49	4.01026E+000	1.63413E-006	0.00000E+000	6.55328E-006	0.00000E+000	7.45740E-004	-3.27687E+002	7	...........
	49	50	4.01022E+000	1.63398E-006	0.00000E+000	6.55262E-006	0.00000E+000	7.46474E-004	-3.27687E+002	7	...........
	50	51	4.01017E+000	1.63392E-006	0.00000E+000	6.55227E-006	0.00000E+000	7.48890E-004	-3.27687E+002	7	...........
	51	52	4.01012E+000	1.63406E-006	0.00000E+000	6.55276E-006	0.00000E+000	7.51040E-004	-3.27687E+002	7	...........
	52	53	4.01007E+000	1.63432E-006	0.00000E+000	6.55375E-006	0.00000E+000	7.49124E-004	-3.27687E+002	7	...........
	53	54	4.01001E+000	1.63423E-006	0.00000E+000	6.55327E-006	0.00000E+000	7.53824E-004	-3.27687E+002	7	...........
	54	55	4.00997E+000	1.63360E-006	0.00000E+000	6.55068E-006	0.00000E+000	7.53040E-004	-3.27687E+002	7	...........
	55	56	4.00993E+000	1.63381E-006	0.00000E+000	6.55147E-006	0.00000E+000	7.56224E-004	-3.27687E+002	7	...........
	56	57	4.00988E+000	1.63411E-006	0.00000E+000	6.55258E-006	0.00000E+000	7.55324E-004	-3.27687E+002	7	...........
	57	58	4.00984E+000	1.63451E-006	0.00000E+000	6.55411E-006	0.00000E+000	7.56240E-004	-3.27687E+002	7	...........
	58	59	4.00979E+000	1.63438E-006	0.00000E+000	6.55353E-006	0.00000E+000	7.59174E-004	-3.27687E+002	7	...........
	59	60	4.00973E+000	1.63471E-006	0.00000E+000	6.55474E-006	0.00000E+000	7.63557E-004	-3.27687E+002	7	...........
	60	61	4.00970E+000	1.63450E-006	0.00000E+000	6.55385E-006	0.00000E+000	7.61507E-004	-3.27687E+002	7	...........
	61	62	4.00966E+000	1.63378E-006	0.00000E+000	6.55089E-006	0.00000E+000	7.65107E-004	-3.27687E+002	7	...........
	62	63	4.00960E+000	1.63326E-006	0.00000E+000	6.54874E-006	0.00000E+000	7.66424E-004	-3.27687E+002	7	...........
	63	64	4.00955E+000	1.63381E-006	0.00000E+000	6.55086E-006	0.00000E+000	7.66407E-004	-3.27687E+002	7	...........
	64	65	4.00952E+000	1.63526E-006	0.00000E+000	6.55659E-006	0.00000E+000	7.69157E-004	-3.27687E+002	7	...........
	65	66	4.00948E+000	1.63444E-006	0.00000E+000	6.55326E-006	0.00000E+000	7.69207E-004	-3.27687E+002	7	...........
	66	67	4.00944E+000	1.63405E-006	0.00000E+000	6.55161E-006	0.00000E+000	7.69657E-004	-3.27687E+002	7	...........
	67	68	4.00940E+000	1.63441E-006	0.00000E+000	6.55302E-006	0.00000E+000	7.66674E-004	-3.27687E+002	7	...........
	68	69	4.00937E+000	1.63481E-006	0.00000E+000	6.55456E-006	0.00000E+000	7.70424E-004	-3.27687E+002	7	...........
	69	70	4.00934E+000	1.63461E-006	0.00000E+000	6.55369E-006	0.00000E+000	7.68757E-004	-3.27687E+002	7	...........
	70	71	4.00930E+000	1.63546E-006	0.00000E+000	6.55703E-006	0.00000E+000	7.68774E-004	-3.27687E+002	7	...........
	71	72	4.00926E+000	1.63499E-006	0.00000E+000	6.55511E-006	0.00000E+000	7.72824E-004	-3.27687E+002	7	...........
	72	73	4.00923E+000	1.63461E-006	0.00000E+000	6.55351E-006	0.00000E+000	7.69674E-004	-3.27687E+002	7	...........
	73	74	4.00919E+000	1.63470E-006	0.00000E+000	6.55383E-006	0.00000E+000	7.70207E-004	-3.27687E+002	7	...........
	74	75	4.00917E+000	1.63464E-006	0.00000E+000	6.55353E-006	0.00000E+000	7.71074E-004	-3.27687E+002	7	...........
	75	76	4.00914E+000	1.63475E-006	0.00000E+000	6.55395E-006	0.00000E+000	7.71290E-004	-3.27687E+002	7	...........
	76	77	4.00910E+000	1.63500E-006	0.00000E+000	6.55486E-006	0.00000E+000	7.67607E-004	-3.27687E+002	7	...........
	77	78	4.00907E+000	1.63532E-006	0.00000E+000	6.55609E-006	0.00000E+000	7.70690E-004	-3.27687E+002	7	...........
	78	79	4.00904E+000	1.63531E-006	0.00000E+000	6.55601E-006	0.00000E+000	7.70374E-004	-3.27687E+002	7	...........
	79	80	4.00901E+000	1.63477E-006	0.00000E+000	6.55381E-006	0.00000E+000	7.69374E-004	-3.27687E+002	7	...........
	80	81	4.00898E+000	1.63529E-006	0.00000E+000	6.55583E-006	0.00000E+000	7.68557E-004	-3.27687E+002	7	...........
	81	82	4.00894E+000	1.63544E-006	0.00000E+000	6.55639E-006	0.00000E+000	7.66207E-004	-3.27687E+002	7	...........
	82	83	4.00890E+000	1.63592E-006	0.00000E+000	6.55826E-006	0.00000E+000	7.66424E-004	-3.27687E+002	7	...........
	83	84	4.00887E+000	1.63529E-006	0.00000E+000	6.55569E-006	0.00000E+000	7.66390E-004	-3.27687E+002	7	...........
	84	85	4.00884E+000	1.63524E-006	0.00000E+000	6.55540E-006	0.00000E+000	7.63857E-004	-3.27687E+002	7	...........
	85	86	4.00881E+000	1.63500E-006	0.00000E+000	6.55443E-006	0.00000E+000	7.66174E-004	-3.27687E+002	7	...........
	86	87	4.00876E+000	1.63496E-006	0.00000E+000	6.55418E-006	0.00000E+000	7.63024E-004	-3.27687E+002	7	...........
	87	88	4.00874E+000	1.63534E-006	0.00000E+000	6.55565E-006	0.00000E+000	7.64740E-004	-3.27687E+002	7	...........
	88	89	4.00871E+000	1.63539E-006	0.00000E+000	6.55579E-006	0.00000E+000	7.66757E-004	-3.27687E+002	7	...........
	89	90	4.00867E+000	1.63672E-006	0.00000E+000	6.56109E-006	0.00000E+000	7.65557E-004	-3.27687E+002	7	...........
	90	91	4.00864E+000	1.63597E-006	0.00000E+000	6.55799E-006	0.00000E+000	7.65757E-004	-3.27687E+002	7	...........
	91	92	4.00861E+000	1.63676E-006	0.00000E+000	6.56113E-006	0.00000E+000	7.65340E-004	-3.27687E+002	7	...........
	92	93	4.00858E+000	1.63668E-006	0.00000E+000	6.56077E-006	0.00000E+000	7.64874E-004	-3.27687E+002	7	...........
	93	94	4.00856E+000	1.63642E-006	0.00000E+000	6.55968E-006	0.00000E+000	7.64074E-004	-3.27687E+002	7	...........
	94	95	4.00853E+000	1.63679E-006	0.00000E+000	6.56112E-006	0.00000E+000	7.62924E-004	-3.27687E+002	7	...........
	95	96	4.00851E+000	1.63674E-006	0.00000E+000	6.56090E-006	0.00000E+000	7.65140E-004	-3.27687E+002	7	...........
	96	97	4.00847E+000	1.63685E-006	0.00000E+000	6.56127E-006	0.00000E+000	7.65207E-004	-3.27687E+002	7	...........
	97	98	4.00844E+000	1.63645E-006	0.00000E+000	6.55959E-006	0.00000E+000	7.63740E-004	-3.27687E+002	7	...........
	98	99	4.00841E+000	1.63599E-006	0.00000E+000	6.55771E-006	0.00000E+000	7.66057E-004	-3.27687E+002	7	...........
	99	100	4.00839E+000	1.63582E-006	0.00000E+000	6.55700E-006	0.00000E+000	7.64390E-004	-3.27687E+002	7	...........
	100	101	4.00836E+000	1.63636E-006	0.00000E+000	6.55910E-006	0.00000E+000	7.66307E-004	-3.27687E+002	7	...........
	101	102	4.00834E+000	1.63681E-006	0.00000E+000	6.56088E-006	0.00000E+000	7.66007E-004	-3.27687E+002	7	...........
	102	103	4.00830E+000	1.63772E-006	0.00000E+000	6.56446E-006	0.00000E+000	7.68190E-004	-3.27687E+002	7	...........
	103	104	4.00827E+000	1.63683E-006	0.00000E+000	6.56087E-006	0.00000E+000	7.68924E-004	-3.27687E+002	7	...........
	104	105	4.00825E+000	1.63671E-006	0.00000E+000	6.56034E-006	0.00000E+000	7.69357E-004	-3.27687E+002	7	...........
	105	106	4.00822E+000	1.63707E-006	0.00000E+000	6.56174E-006	0.00000E+000	7.69807E-004	-3.27687E+002	7	...........
	106	107	4.00820E+000	1.63725E-006	0.00000E+000	6.56242E-006	0.00000E+000	7.69690E-004	-3.27687E+002	7	...........
	107	108	4.00818E+000	1.63738E-006	0.00000E+000	6.56291E-006	0.00000E+000	7.71174E-004	-3.27687E+002	7	...........
	108	109	4.00814E+000	1.63773E-006	0.00000E+000	6.56424E-006	0.00000E+000	7.71024E-004	-3.27687E+002	7	...........
	109	110	4.00812E+000	1.63763E-006	0.00000E+000	6.56384E-006	0.00000E+000	7.70524E-004	-3.27687E+002	7	...........
	110	111	4.00810E+000	1.63763E-006	0.00000E+000	6.56377E-006	0.00000E+000	7.68907E-004	-3.27687E+002	7	...........
	111	112	4.00807E+000	1.63674E-006	0.00000E+000	6.56018E-006	0.00000E+000	7.71140E-004	-3.27687E+002	7	...........
	112	113	4.00805E+000	1.63714E-006	0.00000E+000	6.56173E-006	0.00000E+000	7.70257E-004	-3.27687E+002	7	...........
	113	114	4.00802E+000	1.63758E-006	0.00000E+000	6.56347E-006	0.00000E+000	7.70607E-004	-3.27687E+002	7	...........
	114	115	4.00799E+000	1.63771E-006	0.00000E+000	6.56393E-006	0.00000E+000	7.73390E-004	-3.27687E+002	7	...........
	115	116	4.00797E+000	1.63738E-006	0.00000E+000	6.56258E-006	0.00000E+000	7.71740E-004	-3.27687E+002	7	...........
	116	117	4.00794E+000	1.63657E-006	0.00000E+000	6.55926E-006	0.00000E+000	7.75524E-004	-3.27687E+002	7	...........
	117	118	4.00792E+000	1.63746E-006	0.00000E+000	6.56281E-006	0.00000E+000	7.73540E-004	-3.27687E+002	7	...........
	118	119	4.00790E+000	1.63751E-006	0.00000E+000	6.56297E-006	0.00000E+000	7.73407E-004	-3.27687E+002	7	...........
	119	120	4.00787E+000	1.63745E-006	0.00000E+000	6.56269E-006	0.00000E+000	7.74440E-004	-3.27687E+002	7	...........
	120	121	4.00786E+000	1.63793E-006	0.00000E+000	6.56460E-006	0.00000E+000	7.74657E-004	-3.27687E+002	7	...........
	121	122	4.00784E+000	1.63782E-006	0.00000E+000	6.56410E-006	0.00000E+000	7.73790E-004	-3.27687E+002	7	...........
	122	123	4.00781E+000	1.63798E-006	0.00000E+000	6.56470E-006	0.00000E+000	7.74007E-004	-3.27687E+002	7	...........
	123	124	4.00780E+000	1.63693E-006	0.00000E+000	6.56050E-006	0.00000E+000	7.72390E-004	-3.27687E+002	7	...........
	124	125	4.00778E+000	1.63775E-006	0.00000E+000	6.56373E-006	0.00000E+000	7.74274E-004	-3.27687E+002	7	...........
	125	126	4.00776E+000	1.63776E-006	0.00000E+000	6.56376E-006	0.00000E+000	7.73957E-004	-3.27687E+002	7	...........
	126	127	4.00775E+000	1.63850E-006	0.00000E+000	6.56670E-006	0.00000E+000	7.71274E-004	-3.27687E+002	7	...........
	127	128	4.00773E+000	1.63791E-006	0.00000E+000	6.56431E-006	0.00000E+000	7.72774E-004	-3.27687E+002	7	...........
	128	129	4.00771E+000	1.63825E-006	0.00000E+000	6.56564E-006	0.00000E+000	7.73490E-004	-3.27687E+002	7	...........
	129	130	4.00769E+000	1.63771E-006	0.00000E+000	6.56342E-006	0.00000E+000	7.71774E-004	-3.27687E+002	7	...........
	130	131	4.00768E+000	1.63872E-006	0.00000E+000	6.56746E-006	0.00000E+000	7.73274E-004	-3.27687E+002	7	...........
	131	132	4.00766E+000	1.63906E-006	0.00000E+000	6.56878E-006	0.00000E+000	7.72890E-004	-3.27687E+002	7	...........
	132	133	4.00764E+000	1.63902E-006	0.00000E+000	6.56861E-006	0.00000E+000	7.69774E-004	-3.27687E+002	7	...........
	133	134	4.00763E+000	1.63935E-006	0.00000E+000	6.56991E-006	0.00000E+000	7.73024E-004	-3.27687E+002	7	...........
	134	135	4.00760E+000	1.63861E-006	0.00000E+000	6.56691E-006	0.00000E+000	7.70024E-004	-3.27687E+002	7	...........
	135	136	4.00758E+000	1.63802E-006	0.00000E+000	6.56450E-006	0.00000E+000	7.70040E-004	-3.27687E+002	7	...........
	136	137	4.00756E+000	1.63822E-006	0.00000E+000	6.56529E-006	0.00000E+000	7.70657E-004	-3.27687E+002	7	...........
	137	138	4.00755E+000	1.63855E-006	0.00000E+000	6.56656E-006	0.00000E+000	7.70557E-004	-3.27687E+002	7	...........
	138	139	4.00753E+000	1.63872E-006	0.00000E+000	6.56720E-006	0.00000E+000	7.68840E-004	-3.27687E+002	7	...........
	139	140	4.00750E+000	1.63946E-006	0.00000E+000	6.57014E-006	0.00000E+000	7.71324E-004	-3.27687E+002	7	...........
	140	141	4.00750E+000	1.63889E-006	0.00000E+000	6.56783E-006	0.00000E+000	7.71607E-004	-3.27687E+002	7	...........
	141	142	4.00748E+000	1.63794E-006	0.00000E+000	6.56401E-006	0.00000E+000	7.69940E-004	-3.27687E+002	7	...........
	142	143	4.00745E+000	1.63824E-006	0.00000E+000	6.56516E-006	0.00000E+000	7.66890E-004	-3.27687E+002	7	...........
	143	144	4.00744E+000	1.63910E-006	0.00000E+000	6.56859E-006	0.00000E+000	7.68057E-004	-3.27687E+002	7	...........
	144	145	4.00741E+000	1.63912E-006	0.00000E+000	6.56862E-006	0.00000E+000	7.68357E-004	-3.27687E+002	7	...........
	145	146	4.00739E+000	1.63878E-006	0.00000E+000	6.56724E-006	0.00000E+000	7.66140E-004	-3.27687E+002	7	...........
	146	147	4.00738E+000	1.63853E-006	0.00000E+000	6.56621E-006	0.00000E+000	7.65290E-004	-3.27687E+002	7	...........
	147	148	4.00735E+000	1.63853E-006	0.00000E+000	6.56616E-006	0.00000E+000	7.66507E-004	-3.27687E+002	7	...........
	148	149	4.00732E+000	1.63802E-006	0.00000E+000	6.56409E-006	0.00000E+000	7.65474E-004	-3.27687E+002	7	...........
	149	150	4.00730E+000	1.63888E-006	0.00000E+000	6.56749E-006	0.00000E+000	7.67874E-004	-3.27687E+002	7	...........
	150	151	4.00728E+000	1.63904E-006	0.00000E+000	6.56808E-006	0.00000E+000	7.66124E-004	-3.27687E+002	7	...........
	151	152	4.00726E+000	1.63898E-006	0.00000E+000	6.56781E-006	0.00000E+000	7.66590E-004	-3.27687E+002	7	...........
	152	153	4.00724E+000	1.63862E-006	0.00000E+000	6.56636E-006	0.00000E+000	7.63907E-004	-3.27687E+002	7	...........
	153	154	4.00722E+000	1.63854E-006	0.00000E+000	6.56600E-006	0.00000E+000	7.66140E-004	-3.27687E+002	7	...........
	154	155	4.00720E+000	1.63797E-006	0.00000E+000	6.56367E-006	0.00000E+000	7.64057E-004	-3.27687E+002	7	...........
	155	156	4.00718E+000	1.63861E-006	0.00000E+000	6.56619E-006	0.00000E+000	7.65007E-004	-3.27687E+002	7	...........
	156	157	4.00715E+000	1.63892E-006	0.00000E+000	6.56742E-006	0.00000E+000	7.62540E-004	-3.27687E+002	7	...........
	157	158	4.00713E+000	1.63902E-006	0.00000E+000	6.56777E-006	0.00000E+000	7.64440E-004	-3.27687E+002	7	...........
	158	159	4.00712E+000	1.63898E-006	0.00000E+000	6.56760E-006	0.00000E+000	7.64074E-004	-3.27687E+002	7	...........
	159	160	4.00710E+000	1.63831E-006	0.00000E+000	6.56487E-006	0.00000E+000	7.65240E-004	-3.27687E+002	7	...........
	160	161	4.00708E+000	1.63875E-006	0.00000E+000	6.56662E-006	0.00000E+000	7.62240E-004	-3.27687E+002	7	...........
	161	162	4.00705E+000	1.63904E-006	0.00000E+000	6.56774E-006	0.00000E+000	7.60607E-004	-3.27687E+002	7	...........
	162	163	4.00704E+000	1.63965E-006	0.00000E+000	6.57016E-006	0.00000E+000	7.61974E-004	-3.27687E+002	7	...........
	163	164	4.00702E+000	1.63997E-006	0.00000E+000	6.57140E-006	0.00000E+000	7.64074E-004	-3.27687E+002	7	...........
	164	165	4.00700E+000	1.64071E-006	0.00000E+000	6.57431E-006	0.00000E+000	7.62490E-004	-3.27687E+002	7	...........
	165	166	4.00698E+000	1.63988E-006	0.00000E+000	6.57099E-006	0.00000E+000	7.62274E-004	-3.27687E+002	7	...........
	166	167	4.00696E+000	1.63917E-006	0.00000E+000	6.56807E-006	0.00000E+000	7.62124E-004	-3.27687E+002	7	...........
	167	168	4.00695E+000	1.63959E-006	0.00000E+000	6.56977E-006	0.00000E+000	7.62574E-004	-3.27687E+002	7	...........
	168	169	4.00694E+000	1.64013E-006	0.00000E+000	6.57191E-006	0.00000E+000	7.62574E-004	-3.27687E+002	7	...........
	169	170	4.00691E+000	1.63999E-006	0.00000E+000	6.57130E-006	0.00000E+000	7.63507E-004	-3.27687E+002	7	...........
	170	171	4.00689E+000	1.63954E-006	0.00000E+000	6.56947E-006	0.00000E+000	7.61590E-004	-3.27687E+002	7	...........
	171	172	4.00687E+000	1.63955E-006	0.00000E+000	6.56947E-006	0.00000E+000	7.61640E-004	-3.27687E+002	7	...........
	172	173	4.00686E+000	1.63963E-006	0.00000E+000	6.56978E-006	0.00000E+000	7.60474E-004	-3.27687E+002	7	...........
	173	174	4.00684E+000	1.63922E-006	0.00000E+000	6.56810E-006	0.00000E+000	7.61324E-004	-3.27687E+002	7	...........
	174	175	4.00682E+000	1.63996E-006	0.00000E+000	6.57104E-006	0.00000E+000	7.65690E-004	-3.27687E+002	7	...........
	175	176	4.00679E+000	1.63932E-006	0.00000E+000	6.56842E-006	0.00000E+000	7.62857E-004	-3.27687E+002	7	...........
	176	177	4.00678E+000	1.64016E-006	0.00000E+000	6.57176E-006	0.00000E+000	7.62640E-004	-3.27687E+002	7	...........
	177	178	4.00676E+000	1.64001E-006	0.00000E+000	6.57110E-006	0.00000E+000	7.62574E-004	-3.27687E+002	7	...........
	178	179	4.00673E+000	1.63958E-006	0.00000E+000	6.56934E-006	0.00000E+000	7.62640E-004	-3.27687E+002	7	...........
	179	180	4.00672E+000	1.63983E-006	0.00000E+000	6.57035E-006	0.00000E+000	7.66140E-004	-3.27687E+002	7	...........
	180	181	4.00671E+000	1.63965E-006	0.00000E+000	6.56961E-006	0.00000E+000	7.64140E-004	-3.27687E+002	7	...........
	181	182	4.00669E+000	1.64090E-006	0.00000E+000	6.57459E-006	0.00000E+000	7.64857E-004	-3.27687E+002	7	...........
	182	183	4.00667E+000	1.64034E-006	0.00000E+000	6.57229E-006	0.00000E+000	7.65490E-004	-3.27687E+002	7	...........
	183	184	4.00664E+000	1.64006E-006	0.00000E+000	6.57114E-006	0.00000E+000	7.65574E-004	-3.27687E+002	7	...........
	184	185	4.00662E+000	1.63986E-006	0.00000E+000	6.57029E-006	0.00000E+000	7.66440E-004	-3.27687E+002	7	...........
	185	186	4.00661E+000	1.63919E-006	0.00000E+000	6.56758E-006	0.00000E+000	7.67957E-004	-3.27687E+002	7	...........
	186	187	4.00659E+000	1.63916E-006	0.00000E+000	6.56745E-006	0.00000E+000	7.66640E-004	-3.27687E+002	7	...........
	187	188	4.00657E+000	1.63959E-006	0.00000E+000	6.56913E-006	0.00000E+000	7.66074E-004	-3.27687E+002	7	...........
	188	189	4.00656E+000	1.63989E-006	0.00000E+000	6.57031E-006	0.00000E+000	7.67174E-004	-3.27687E+002	7	...........
	189	190	4.00654E+000	1.63990E-006	0.00000E+000	6.57031E-006	0.00000E+000	7.69540E-004	-3.27687E+002	7	...........
	190	191	4.00651E+000	1.63995E-006	0.00000E+000	6.57048E-006	0.00000E+000	7.68474E-004	-3.27687E+002	7	...........
	191	192	4.00649E+000	1.64008E-006	0.00000E+000	6.57098E-006	0.00000E+000	7.69190E-004	-3.27687E+002	7	...........
	192	193	4.00647E+000	1.63980E-006	0.00000E+000	6.56981E-006	0.00000E+000	7.69690E-004	-3.27687E+002	7	...........
	193	194	4.00645E+000	1.64020E-006	0.00000E+000	6.57140E-006	0.00000E+000	7.65707E-004	-3.27687E+002	7	...........
	194	195	4.00642E+000	1.64068E-006	0.00000E+000	6.57327E-006	0.00000E+000	7.66974E-004	-3.27687E+002	7	...........
	195	196	4.00640E+000	1.64006E-006	0.00000E+000	6.57075E-006	0.00000E+000	7.72340E-004	-3.27687E+002	7	...........
	196	197	4.00638E+000	1.64073E-006	0.00000E+000	6.57339E-006	0.00000E+000	7.70257E-004	-3.27687E+002	7	...........
	197	198	4.00636E+000	1.63996E-006	0.00000E+000	6.57027E-006	0.00000E+000	7.71907E-004	-3.27687E+002	7	...........
	198	199	4.00634E+000	1.63977E-006	0.00000E+000	6.56949E-006	0.00000E+000	7.67957E-004	-3.27687E+002	7	...........
	199	200	4.00632E+000	1.63938E-006	0.00000E+000	6.56788E-006	0.00000E+000	7.69974E-004	-3.27687E+002	7	...........
	200	201	4.00630E+000	1.63959E-006	0.00000E+000	6.56869E-006	0.00000E+000	7.70224E-004	-3.27687E+002	7	...........
	201	202	4.00629E+000	1.64077E-006	0.00000E+000	6.57339E-006	0.00000E+000	7.69024E-004	-3.27687E+002	7	...........
	202	203	4.00627E+000	1.64104E-006	0.00000E+000	6.57443E-006	0.00000E+000	7.71424E-004	-3.27687E+002	7	...........
	203	204	4.00625E+000	1.64046E-006	0.00000E+000	6.57210E-006	0.00000E+000	7.68407E-004	-3.27687E+002	7	...........
	204	205	4.00623E+000	1.64082E-006	0.00000E+000	6.57349E-006	0.00000E+000	7.69824E-004	-3.27687E+002	7	...........
	205	206	4.00619E+000	1.64044E-006	0.00000E+000	6.57192E-006	0.00000E+000	7.70857E-004	-3.27687E+002	7	...........
	206	207	4.00618E+000	1.64105E-006	0.00000E+000	6.57435E-006	0.00000E+000	7.69090E-004	-3.27687E+002	7	...........
	207	208	4.00616E+000	1.64167E-006	0.00000E+000	6.57681E-006	0.00000E+000	7.69140E-004	-3.27687E+002	7	...........
	208	209	4.00613E+000	1.64031E-006	0.00000E+000	6.57132E-006	0.00000E+000	7.70474E-004	-3.27687E+002	7	...........
	209	210	4.00612E+000	1.64023E-006	0.00000E+000	6.57094E-006	0.00000E+000	7.69374E-004	-3.27687E+002	7	...........
	210	211	4.00610E+000	1.64073E-006	0.00000E+000	6.57293E-006	0.00000E+000	7.68924E-004	-3.27687E+002	7	...........
	211	212	4.00609E+000	1.63998E-006	0.00000E+000	6.56990E-006	0.00000E+000	7.70374E-004	-3.27687E+002	7	...........
	212	213	4.00608E+000	1.64046E-006	0.00000E+000	6.57180E-006	0.00000E+000	7.70324E-004	-3.27687E+002	7	...........
	213	214	4.00606E+000	1.64127E-006	0.00000E+000	6.57500E-006	0.00000E+000	7.69657E-004	-3.27687E+002	7	...........
	214	215	4.00603E+000	1.64093E-006	0.00000E+000	6.57363E-006	0.00000E+000	7.72457E-004	-3.27687E+002	7	...........
	215	216	4.00602E+000	1.64054E-006	0.00000E+000	6.57204E-006	0.00000E+000	7.69357E-004	-3.27687E+002	7	...........
	216	217	4.00600E+000	1.63960E-006	0.00000E+000	6.56826E-006	0.00000E+000	7.69807E-004	-3.27687E+002	7	...........
	217	218	4.00599E+000	1.64070E-006	0.00000E+000	6.57263E-006	0.00000E+000	7.70657E-004	-3.27687E+002	7	...........
	218	219	4.00598E+000	1.64105E-006	0.00000E+000	6.57403E-006	0.00000E+000	7.68357E-004	-3.27687E+002	7	...........
	219	220	4.00596E+000	1.64138E-006	0.00000E+000	6.57531E-006	0.00000E+000	7.68774E-004	-3.27687E+002	7	...........
	220	221	4.00594E+000	1.64055E-006	0.00000E+000	6.57196E-006	0.00000E+000	7.69557E-004	-3.27687E+002	7	...........
	221	222	4.00593E+000	1.64061E-006	0.00000E+000	6.57217E-006	0.00000E+000	7.70357E-004	-3.27687E+002	7	...........
	222	223	4.00591E+000	1.64058E-006	0.00000E+000	6.57200E-006	0.00000E+000	7.70957E-004	-3.27687E+002	7	...........
	223	224	4.00590E+000	1.64015E-006	0.00000E+000	6.57027E-006	0.00000E+000	7.67607E-004	-3.27687E+002	7	...........
	224	225	4.00586E+000	1.63986E-006	0.00000E+000	6.56905E-006	0.00000E+000	7.68757E-004	-3.27687E+002	7	...........
	225	226	4.00585E+000	1.64054E-006	0.00000E+000	6.57177E-006	0.00000E+000	7.71724E-004	-3.27687E+002	7	...........
	226	227	4.00585E+000	1.64145E-006	0.00000E+000	6.57540E-006	0.00000E+000	7.68474E-004	-3.27687E+002	7	...........
	227	228	4.00584E+000	1.64126E-006	0.00000E+000	6.57465E-006	0.00000E+000	7.67690E-004	-3.27687E+002	7	...........
	228	229	4.00582E+000	1.64016E-006	0.00000E+000	6.57019E-006	0.00000E+000	7.69074E-004	-3.27687E+002	7	...........
	229	230	4.00582E+000	1.64028E-006	0.00000E+000	6.57067E-006	0.00000E+000	7.67024E-004	-3.27687E+002	7	...........
	230	231	4.00580E+000	1.64025E-006	0.00000E+000	6.57052E-006	0.00000E+000	7.69174E-004	-3.27687E+002	7	...........
	231	232	4.00579E+000	1.64008E-006	0.00000E+000	6.56981E-006	0.00000E+000	7.67540E-004	-3.27687E+002	7	...........
	232	233	4.00577E+000	1.64056E-006	0.00000E+000	6.57170E-006	0.00000E+000	7.64890E-004	-3.27687E+002	7	...........
	233	234	4.00576E+000	1.64069E-006	0.00000E+000	6.57222E-006	0.00000E+000	7.67774E-004	-3.27687E+002	7	...........
	234	235	4.00576E+000	1.64093E-006	0.00000E+000	6.57316E-006	0.00000E+000	7.65590E-004	-3.27687E+002	7	...........
	235	236	4.00575E+000	1.64110E-006	0.00000E+000	6.57385E-006	0.00000E+000	7.68174E-004	-3.27687E+002	7	...........
	236	237	4.00574E+000	1.63997E-006	0.00000E+000	6.56929E-006	0.00000E+000	7.67057E-004	-3.27687E+002	7	...........
	237	238	4.00572E+000	1.64085E-006	0.00000E+000	6.57281E-006	0.00000E+000	7.64407E-004	-3.27687E+002	7	...........
	238	239	4.00571E+000	1.64110E-006	0.00000E+000	6.57378E-006	0.00000E+000	7.67890E-004	-3.27687E+002	7	...........
	239	240	4.00570E+000	1.64159E-006	0.00000E+000	6.57573E-006	0.00000E+000	7.66807E-004	-3.27687E+002	7	...........
	240	241	4.00569E+000	1.64078E-006	0.00000E+000	6.57245E-006	0.00000E+000	7.65874E-004	-3.27687E+002	7	...........
	241	242	4.00568E+000	1.64062E-006	0.00000E+000	6.57180E-006	0.00000E+000	7.67407E-004	-3.27687E+002	7	...........
	242	243	4.00566E+000	1.64133E-006	0.00000E+000	6.57463E-006	0.00000E+000	7.65724E-004	-3.27687E+002	7	...........
	243	244	4.00565E+000	1.64251E-006	0.00000E+000	6.57931E-006	0.00000E+000	7.65874E-004	-3.27687E+002	7	...........
	244	245	4.00565E+000	1.64191E-006	0.00000E+000	6.57694E-006	0.00000E+000	7.64257E-004	-3.27687E+002	7	...........
	245	246	4.00564E+000	1.64155E-006	0.00000E+000	6.57546E-006	0.00000E+000	7.64774E-004	-3.27687E+002	7	...........
	246	247	4.00563E+000	1.64154E-006	0.00000E+000	6.57539E-006	0.00000E+000	7.65790E-004	-3.27687E+002	7	...........
	247	248	4.00562E+000	1.64147E-006	0.00000E+000	6.57512E-006	0.00000E+000	7.63457E-004	-3.27687E+002	7	...........
	248	249	4.00560E+000	1.64090E-006	0.00000E+000	6.57280E-006	0.00000E+000	7.66674E-004	-3.27687E+002	7	...........
	249	250	4.00560E+000	1.64084E-006	0.00000E+000	6.57255E-006	0.00000E+000	7.64640E-004	-3.27687E+002	7	...........
	250	251	4.00559E+000	1.64151E-006	0.00000E+000	6.57521E-006	0.00000E+000	7.62874E-004	-3.27687E+002	7	...........
	251	252	4.00558E+000	1.64250E-006	0.00000E+000	6.57915E-006	0.00000E+000	7.64874E-004	-3.27687E+002	7	...........
	252	253	4.00557E+000	1.64161E-006	0.00000E+000	6.57557E-006	0.00000E+000	7.64590E-004	-3.27687E+002	7	...........
	253	254	4.00556E+000	1.64098E-006	0.00000E+000	6.57305E-006	0.00000E+000	7.64857E-004	-3.27687E+002	7	...........
	254	255	4.00555E+000	1.64150E-006	0.00000E+000	6.57512E-006	0.00000E+000	7.62490E-004	-3.27687E+002	7	...........
	255	256	4.00553E+000	1.64145E-006	0.00000E+000	6.57486E-006	0.00000E+000	7.64924E-004	-3.27687E+002	7	...........
	256	257	4.00553E+000	1.64135E-006	0.00000E+000	6.57448E-006	0.00000E+000	7.63507E-004	-3.27687E+002	7	...........
	257	258	4.00553E+000	1.64225E-006	0.00000E+000	6.57807E-006	0.00000E+000	7.63857E-004	-3.27687E+002	7	...........
	258	259	4.00552E+000	1.64137E-006	0.00000E+000	6.57455E-006	0.00000E+000	7.62357E-004	-3.27687E+002	7	...........
	259	260	4.00551E+000	1.64147E-006	0.00000E+000	6.57491E-006	0.00000E+000	7.62824E-004	-3.27687E+002	7	...........
	260	261	4.00551E+000	1.64115E-006	0.00000E+000	6.57363E-006	0.00000E+000	7.65207E-004	-3.27687E+002	7	...........
	261	262	4.00549E+000	1.64098E-006	0.00000E+000	6.57291E-006	0.00000E+000	7.60707E-004	-3.27687E+002	7	...........
	262	263	4.00548E+000	1.64095E-006	0.00000E+000	6.57280E-006	0.00000E+000	7.62640E-004	-3.27687E+002	7	...........
	263	264	4.00548E+000	1.64210E-006	0.00000E+000	6.57741E-006	0.00000E+000	7.63624E-004	-3.27687E+002	7	...........
	264	265	4.00547E+000	1.64185E-006	0.00000E+000	6.57639E-006	0.00000E+000	7.61890E-004	-3.27687E+002	7	...........
	265	266	4.00546E+000	1.64142E-006	0.00000E+000	6.57463E-006	0.00000E+000	7.63624E-004	-3.27687E+002	7	...........
	266	267	4.00545E+000	1.64102E-006	0.00000E+000	6.57302E-006	0.00000E+000	7.60490E-004	-3.27687E+002	7	...........
	267	268	4.00544E+000	1.64156E-006	0.00000E+000	6.57519E-006	0.00000E+000	7.61124E-004	-3.27687E+002	7	...........
	268	269	4.00544E+000	1.64142E-006	0.00000E+000	6.57461E-006	0.00000E+000	7.62740E-004	-3.27687E+002	7	...........
	269	270	4.00543E+000	1.64182E-006	0.00000E+000	6.57618E-006	0.00000E+000	7.61624E-004	-3.27687E+002	7	...........
	270	271	4.00542E+000	1.64149E-006	0.00000E+000	6.57486E-006	0.00000E+000	7.57640E-004	-3.27687E+002	7	...........
	271	272	4.00541E+000	1.64081E-006	0.00000E+000	6.57213E-006	0.00000E+000	7.58940E-004	-3.27687E+002	7	...........
	272	273	4.00540E+000	1.64096E-006	0.00000E+000	6.57270E-006	0.00000E+000	7.60940E-004	-3.27687E+002	7	...........
	273	274	4.00540E+000	1.64135E-006	0.00000E+000	6.57426E-006	0.00000E+000	7.59990E-004	-3.27687E+002	7	...........
	274	275	4.00539E+000	1.64125E-006	0.00000E+000	6.57383E-006	0.00000E+000	7.61674E-004	-3.27687E+002	7	...........
	275	276	4.00538E+000	1.64175E-006	0.00000E+000	6.57584E-006	0.00000E+000	7.61290E-004	-3.27687E+002	7	...........
	276	277	4.00537E+000	1.64230E-006	0.00000E+000	6.57801E-006	0.00000E+000	7.59124E-004	-3.27687E+002	7	...........
	277	278	4.00537E+000	1.64096E-006	0.00000E+000	6.57266E-006	0.00000E+000	7.58874E-004	-3.27687E+002	7	...........
	278	279	4.00536E+000	1.64096E-006	0.00000E+000	6.57264E-006	0.00000E+000	7.59757E-004	-3.27687E+002	7	...........
	279	280	4.00535E+000	1.64038E-006	0.00000E+000	6.57030E-006	0.00000E+000	7.59390E-004	-3.27687E+002	7	...........
	280	281	4.00534E+000	1.64077E-006	0.00000E+000	6.57185E-006	0.00000E+000	7.61640E-004	-3.27687E+002	7	...........
	281	282	4.00534E+000	1.64134E-006	0.00000E+000	6.57412E-006	0.00000E+000	7.60057E-004	-3.27687E+002	7	...........
	282	283	4.00533E+000	1.64101E-006	0.00000E+000	6.57280E-006	0.00000E+000	7.59607E-004	-3.27687E+002	7	...........
	283	284	4.00532E+000	1.64092E-006	0.00000E+000	6.57242E-006	0.00000E+000	7.60857E-004	-3.27687E+002	7	...........
	284	285	4.00531E+000	1.64033E-006	0.00000E+000	6.57002E-006	0.00000E+000	7.59924E-004	-3.27687E+002	7	...........
	285	286	4.00530E+000	1.64050E-006	0.00000E+000	6.57070E-006	0.00000E+000	7.60357E-004	-3.27687E+002	7	...........
	286	287	4.00529E+000	1.64105E-006	0.00000E+000	6.57289E-006	0.00000E+000	7.59757E-004	-3.27687E+002	7	...........
	287	288	4.00529E+000	1.64153E-006	0.00000E+000	6.57479E-006	0.00000E+000	7.59290E-004	-3.27687E+002	7	...........
	288	289	4.00528E+000	1.64203E-006	0.00000E+000	6.57681E-006	0.00000E+000	7.59357E-004	-3.27687E+002	7	...........
	289	290	4.00527E+000	1.64188E-006	0.00000E+000	6.57618E-006	0.00000E+000	7.60490E-004	-3.27687E+002	7	...........
	290	291	4.00526E+000	1.64125E-006	0.00000E+000	6.57364E-006	0.00000E+000	7.60990E-004	-3.27687E+002	7	...........
	291	292	4.00526E+000	1.64073E-006	0.00000E+000	6.57156E-006	0.00000E+000	7.60124E-004	-3.27687E+002	7	...........
	292	293	4.00525E+000	1.64118E-006	0.00000E+000	6.57335E-006	0.00000E+000	7.60290E-004	-3.27687E+002	7	...........
	293	294	4.00525E+000	1.64121E-006	0.00000E+000	6.57344E-006	0.00000E+000	7.60357E-004	-3.27687E+002	7	...........
	294	295	4.00524E+000	1.64125E-006	0.00000E+000	6.57361E-006	0.00000E+000	7.62174E-004	-3.27687E+002	7	...........
	295	296	4.00523E+000	1.64093E-006	0.00000E+000	6.57229E-006	0.00000E+000	7.59890E-004	-3.27687E+002	7	...........
	296	297	4.00522E+000	1.64114E-006	0.00000E+000	6.57313E-006	0.00000E+000	7.60057E-004	-3.27687E+002	7	...........
	297	298	4.00521E+000	1.64083E-006	0.00000E+000	6.57186E-006	0.00000E+000	7.59940E-004	-3.27687E+002	7	...........
	298	299	4.00520E+000	1.64065E-006	0.00000E+000	6.57113E-006	0.00000E+000	7.62107E-004	-3.27687E+002	7	...........
	299	300	4.00519E+000	1.64088E-006	0.00000E+000	6.57205E-006	0.00000E+000	7.62690E-004	-3.27687E+002	7	...........
	300	301	4.00519E+000	1.64174E-006	0.00000E+000	6.57549E-006	0.00000E+000	7.59924E-004	-3.27687E+002	7	...........
	301	302	4.00517E+000	1.64205E-006	0.00000E+000	6.57669E-006	0.00000E+000	7.60224E-004	-3.27687E+002	7	...........
	302	303	4.00516E+000	1.64115E-006	0.00000E+000	6.57307E-006	0.00000E+000	7.60424E-004	-3.27687E+002	7	...........
	303	304	4.00516E+000	1.64102E-006	0.00000E+000	6.57254E-006	0.00000E+000	7.59524E-004	-3.27687E+002	7	...........
	304	305	4.00515E+000	1.64059E-006	0.00000E+000	6.57080E-006	0.00000E+000	7.58607E-004	-3.27687E+002	7	...........
	305	306	4.00514E+000	1.64092E-006	0.00000E+000	6.57213E-006	0.00000E+000	7.61357E-004	-3.27687E+002	7	...........
	306	307	4.00513E+000	1.64070E-006	0.00000E+000	6.57120E-006	0.00000E+000	7.61224E-004	-3.27687E+002	7	...........
	307	308	4.00513E+000	1.64103E-006	0.00000E+000	6.57252E-006	0.00000E+000	7.60674E-004	-3.27687E+002	7	...........
	308	309	4.00512E+000	1.64055E-006	0.00000E+000	6.57059E-006	0.00000E+000	7.60990E-004	-3.27687E+002	7	...........
	309	310	4.00511E+000	1.64088E-006	0.00000E+000	6.57192E-006	0.00000E+000	7.60890E-004	-3.27687E+002	7	...........
	310	311	4.00510E+000	1.64121E-006	0.00000E+000	6.57319E-006	0.00000E+000	7.61874E-004	-3.27687E+002	7	...........
	311	312	4.00510E+000	1.64145E-006	0.00000E+000	6.57416E-006	0.00000E+000	7.59757E-004	-3.27687E+002	7	...........
	312	313	4.00508E+000	1.64141E-006	0.00000E+000	6.57397E-006	0.00000E+000	7.61224E-004	-3.27687E+002	7	...........
	313	314	4.00507E+000	1.64219E-006	0.00000E+000	6.57708E-006	0.00000E+000	7.61424E-004	-3.27687E+002	7	...........
	314	315	4.00506E+000	1.64267E-006	0.00000E+000	6.57899E-006	0.00000E+000	7.63924E-004	-3.27687E+002	7	...........
	315	316	4.00505E+000	1.64182E-006	0.00000E+000	6.57559E-006	0.00000E+000	7.60424E-004	-3.27687E+002	7	...........
	316	317	4.00505E+000	1.64205E-006	0.00000E+000	6.57647E-006	0.00000E+000	7.60740E-004	-3.27687E+002	7	...........
	317	318	4.00503E+000	1.64208E-006	0.00000E+000	6.57656E-006	0.00000E+000	7.62674E-004	-3.27687E+002	7	...........
	318	319	4.00502E+000	1.64196E-006	0.00000E+000	6.57610E-006	0.00000E+000	7.64440E-004	-3.27687E+002	7	...........
	319	320	4.00502E+000	1.64181E-006	0.00000E+000	6.57549E-006	0.00000E+000	7.64157E-004	-3.27687E+002	7	...........
	320	321	4.00501E+000	1.64142E-006	0.00000E+000	6.57389E-006	0.00000E+000	7.62640E-004	-3.27687E+002	7	...........
	321	322	4.00500E+000	1.64143E-006	0.00000E+000	6.57393E-006	0.00000E+000	7.63807E-004	-3.27687E+002	7	...........
	322	323	4.00499E+000	1.64078E-006	0.00000E+000	6.57131E-006	0.00000E+000	7.62607E-004	-3.27687E+002	7	...........
	323	324	4.00498E+000	1.64135E-006	0.00000E+000	6.57357E-006	0.00000E+000	7.62607E-004	-3.27687E+002	7	...........
	324	325	4.00498E+000	1.64227E-006	0.00000E+000	6.57725E-006	0.00000E+000	7.62907E-004	-3.27687E+002	7	...........
	325	326	4.00496E+000	1.64247E-006	0.00000E+000	6.57801E-006	0.00000E+000	7.64324E-004	-3.27687E+002	7	...........
	326	327	4.00495E+000	1.64170E-006	0.00000E+000	6.57492E-006	0.00000E+000	7.63440E-004	-3.27687E+002	7	...........
	327	328	4.00494E+000	1.64167E-006	0.00000E+000	6.57478E-006	0.00000E+000	7.62724E-004	-3.27687E+002	7	...........
	328	329	4.00493E+000	1.64099E-006	0.00000E+000	6.57207E-006	0.00000E+000	7.63490E-004	-3.27687E+002	7	...........
	329	330	4.00492E+000	1.64122E-006	0.00000E+000	6.57294E-006	0.00000E+000	7.65257E-004	-3.27687E+002	7	...........
	330	331	4.00491E+000	1.64132E-006	0.00000E+000	6.57334E-006	0.00000E+000	7.65090E-004	-3.27687E+002	7	...........
	331	332	4.00489E+000	1.64102E-006	0.00000E+000	6.57210E-006	0.00000E+000	7.64840E-004	-3.27687E+002	7	...........
	332	333	4.00489E+000	1.64113E-006	0.00000E+000	6.57253E-006	0.00000E+000	7.63307E-004	-3.27687E+002	7	...........
	333	334	4.00488E+000	1.64112E-006	0.00000E+000	6.57247E-006	0.00000E+000	7.65457E-004	-3.27687E+002	7	...........
	334	335	4.00488E+000	1.64114E-006	0.00000E+000	6.57257E-006	0.00000E+000	7.65557E-004	-3.27687E+002	7	...........
	335	336	4.00487E+000	1.64050E-006	0.00000E+000	6.56997E-006	0.00000E+000	7.63240E-004	-3.27687E+002	7	...........
	336	337	4.00487E+000	1.64084E-006	0.00000E+000	6.57133E-006	0.00000E+000	7.63090E-004	-3.27687E+002	7	...........
	337	338	4.00486E+000	1.64128E-006	0.00000E+000	6.57308E-006	0.00000E+000	7.61174E-004	-3.27687E+002	7	...........
	338	339	4.00485E+000	1.64236E-006	0.00000E+000	6.57741E-006	0.00000E+000	7.63990E-004	-3.27687E+002	7	...........
	339	340	4.00484E+000	1.64150E-006	0.00000E+000	6.57394E-006	0.00000E+000	7.63357E-004	-3.27687E+002	7	...........
	340	341	4.00483E+000	1.64083E-006	0.00000E+000	6.57126E-006	0.00000E+000	7.65607E-004	-3.27687E+002	7	...........
	341	342	4.00482E+000	1.64091E-006	0.00000E+000	6.57156E-006	0.00000E+000	7.66557E-004	-3.27687E+002	7	...........
	342	343	4.00481E+000	1.64120E-006	0.00000E+000	6.57268E-006	0.00000E+000	7.66340E-004	-3.27687E+002	7	...........
	343	344	4.00480E+000	1.64088E-006	0.00000E+000	6.57139E-006	0.00000E+000	7.63524E-004	-3.27687E+002	7	...........
	344	345	4.00479E+000	1.64188E-006	0.00000E+000	6.57540E-006	0.00000E+000	7.63607E-004	-3.27687E+002	7	...........
	345	346	4.00478E+000	1.64070E-006	0.00000E+000	6.57062E-006	0.00000E+000	7.64524E-004	-3.27687E+002	7	...........
	346	347	4.00478E+000	1.64079E-006	0.00000E+000	6.57099E-006	0.00000E+000	7.63107E-004	-3.27687E+002	7	...........
	347	348	4.00477E+000	1.64021E-006	0.00000E+000	6.56866E-006	0.00000E+000	7.66224E-004	-3.27687E+002	7	...........
	348	349	4.00476E+000	1.64078E-006	0.00000E+000	6.57093E-006	0.00000E+000	7.63657E-004	-3.27687E+002	7	...........
	349	350	4.00475E+000	1.64104E-006	0.00000E+000	6.57195E-006	0.00000E+000	7.63124E-004	-3.27687E+002	7	...........
	350	351	4.00474E+000	1.64134E-006	0.00000E+000	6.57314E-006	0.00000E+000	7.65507E-004	-3.27687E+002	7	...........
	351	352	4.00473E+000	1.64119E-006	0.00000E+000	6.57254E-006	0.00000E+000	7.65940E-004	-3.27687E+002	7	...........
	352	353	4.00473E+000	1.64092E-006	0.00000E+000	6.57144E-006	0.00000E+000	7.65507E-004	-3.27687E+002	7	...........
	353	354	4.00472E+000	1.64052E-006	0.00000E+000	6.56983E-006	0.00000E+000	7.65024E-004	-3.27687E+002	7	...........
	354	355	4.00470E+000	1.64069E-006	0.00000E+000	6.57046E-006	0.00000E+000	7.65224E-004	-3.27687E+002	7	...........
	355	356	4.00470E+000	1.64102E-006	0.00000E+000	6.57178E-006	0.00000E+000	7.64974E-004	-3.27687E+002	7	...........
	356	357	4.00468E+000	1.64076E-006	0.00000E+000	6.57074E-006	0.00000E+000	7.66757E-004	-3.27687E+002	7	...........
	357	358	4.00468E+000	1.64065E-006	0.00000E+000	6.57026E-006	0.00000E+000	7.65090E-004	-3.27687E+002	7	...........
	358	359	4.00468E+000	1.64096E-006	0.00000E+000	6.57152E-006	0.00000E+000	7.63357E-004	-3.27687E+002	7	...........
	359	360	4.00467E+000	1.64085E-006	0.00000E+000	6.57107E-006	0.00000E+000	7.64674E-004	-3.27687E+002	7	...........
	360	361	4.00466E+000	1.64072E-006	0.00000E+000	6.57054E-006	0.00000E+000	7.65790E-004	-3.27687E+002	7	...........
	361	362	4.00465E+000	1.64078E-006	0.00000E+000	6.57073E-006	0.00000E+000	7.65607E-004	-3.27687E+002	7	...........
	362	363	4.00464E+000	1.64132E-006	0.00000E+000	6.57290E-006	0.00000E+000	7.66074E-004	-3.27687E+002	7	...........
	363	364	4.00463E+000	1.64216E-006	0.00000E+000	6.57626E-006	0.00000E+000	7.65207E-004	-3.27687E+002	7	...........
	364	365	4.00462E+000	1.64054E-006	0.00000E+000	6.56975E-006	0.00000E+000	7.66524E-004	-3.27687E+002	7	...........
	365	366	4.00462E+000	1.64066E-006	0.00000E+000	6.57024E-006	0.00000E+000	7.65307E-004	-3.27687E+002	7	...........
	366	367	4.00462E+000	1.64091E-006	0.00000E+000	6.57122E-006	0.00000E+000	7.66440E-004	-3.27687E+002	7	...........
	367	368	4.00461E+000	1.64074E-006	0.00000E+000	6.57052E-006	0.00000E+000	7.64290E-004	-3.27687E+002	7	...........
	368	369	4.00460E+000	1.64115E-006	0.00000E+000	6.57214E-006	0.00000E+000	7.64857E-004	-3.27687E+002	7	...........
	369	370	4.00460E+000	1.64100E-006	0.00000E+000	6.57153E-006	0.00000E+000	7.65907E-004	-3.27687E+002	7	...........
	370	371	4.00459E+000	1.64118E-006	0.00000E+000	6.57225E-006	0.00000E+000	7.65774E-004	-3.27687E+002	7	...........
	371	372	4.00457E+000	1.64008E-006	0.00000E+000	6.56782E-006	0.00000E+000	7.63607E-004	-3.27687E+002	7	...........
	372	373	4.00457E+000	1.64030E-006	0.00000E+000	6.56872E-006	0.00000E+000	7.63940E-004	-3.27687E+002	7	...........
	373	374	4.00457E+000	1.64069E-006	0.00000E+000	6.57026E-006	0.00000E+000	7.65207E-004	-3.27687E+002	7	...........
	374	375	4.00456E+000	1.64125E-006	0.00000E+000	6.57250E-006	0.00000E+000	7.64090E-004	-3.27687E+002	7	...........
	375	376	4.00455E+000	1.64148E-006	0.00000E+000	6.57338E-006	0.00000E+000	7.64774E-004	-3.27687E+002	7	...........
	376	377	4.00455E+000	1.64109E-006	0.00000E+000	6.57185E-006	0.00000E+000	7.64890E-004	-3.27687E+002	7	...........
	377	378	4.00454E+000	1.64114E-006	0.00000E+000	6.57201E-006	0.00000E+000	7.63924E-004	-3.27687E+002	7	...........
	378	379	4.00454E+000	1.64120E-006	0.00000E+000	6.57224E-006	0.00000E+000	7.65190E-004	-3.27687E+002	7	...........
	379	380	4.00452E+000	1.64151E-006	0.00000E+000	6.57348E-006	0.00000E+000	7.61624E-004	-3.27687E+002	7	...........
	380	381	4.00452E+000	1.64108E-006	0.00000E+000	6.57175E-006	0.00000E+000	7.62074E-004	-3.27687E+002	7	...........
	381	382	4.00452E+000	1.64099E-006	0.00000E+000	6.57136E-006	0.00000E+000	7.63957E-004	-3.27687E+002	7	...........
	382	383	4.00451E+000	1.64112E-006	0.00000E+000	6.57189E-006	0.00000E+000	7.64374E-004	-3.27687E+002	7	...........
	383	384	4.00451E+000	1.64096E-006	0.00000E+000	6.57126E-006	0.00000E+000	7.63957E-004	-3.27687E+002	7	...........
	384	385	4.00450E+000	1.64072E-006	0.00000E+000	6.57027E-006	0.00000E+000	7.61924E-004	-3.27687E+002	7	...........
	385	386	4.00449E+000	1.64040E-006	0.00000E+000	6.56897E-006	0.00000E+000	7.62224E-004	-3.27687E+002	7	...........
	386	387	4.00448E+000	1.64018E-006	0.00000E+000	6.56807E-006	0.00000E+000	7.62990E-004	-3.27687E+002	7	...........
	387	388	4.00447E+000	1.64090E-006	0.00000E+000	6.57095E-006	0.00000E+000	7.62657E-004	-3.27687E+002	7	...........
	388	389	4.00447E+000	1.64063E-006	0.00000E+000	6.56985E-006	0.00000E+000	7.62574E-004	-3.27687E+002	7	...........
	389	390	4.00447E+000	1.64082E-006	0.00000E+000	6.57062E-006	0.00000E+000	7.60540E-004	-3.27687E+002	7	...........
	390	391	4.00445E+000	1.64041E-006	0.00000E+000	6.56893E-006	0.00000E+000	7.62324E-004	-3.27687E+002	7	...........
	391	392	4.00445E+000	1.64068E-006	0.00000E+000	6.57003E-006	0.00000E+000	7.62290E-004	-3.27687E+002	7	...........
	392	393	4.00445E+000	1.64067E-006	0.00000E+000	6.56997E-006	0.00000E+000	7.61657E-004	-3.27687E+002	7	...........
	393	394	4.00445E+000	1.64087E-006	0.00000E+000	6.57076E-006	0.00000E+000	7.59674E-004	-3.27687E+002	7	...........
	394	395	4.00442E+000	1.64168E-006	0.00000E+000	6.57400E-006	0.00000E+000	7.60007E-004	-3.27687E+002	7	...........
	395	396	4.00442E+000	1.64121E-006	0.00000E+000	6.57211E-006	0.00000E+000	7.62040E-004	-3.27687E+002	7	...........
	396	397	4.00442E+000	1.64057E-006	0.00000E+000	6.56952E-006	0.00000E+000	7.59024E-004	-3.27687E+002	7	...........
	397	398	4.00441E+000	1.64048E-006	0.00000E+000	6.56914E-006	0.00000E+000	7.58924E-004	-3.27687E+002	7	...........
	398	399	4.00440E+000	1.64012E-006	0.00000E+000	6.56771E-006	0.00000E+000	7.59474E-004	-3.27687E+002	7	...........
	399	400	4.00441E+000	1.64019E-006	0.00000E+000	6.56799E-006	0.00000E+000	7.58924E-004	-3.27687E+002	7	...........
	400	401	4.00439E+000	1.64176E-006	0.00000E+000	6.57426E-006	0.00000E+000	7.59257E-004	-3.27687E+002	7	...........
	401	402	4.00438E+000	1.64078E-006	0.00000E+000	6.57031E-006	0.00000E+000	7.57907E-004	-3.27687E+002	7	...........
	402	403	4.00438E+000	1.64057E-006	0.00000E+000	6.56946E-006	0.00000E+000	7.58124E-004	-3.27687E+002	7	...........
	403	404	4.00437E+000	1.64031E-006	0.00000E+000	6.56842E-006	0.00000E+000	7.55840E-004	-3.27687E+002	7	...........
	404	405	4.00437E+000	1.64061E-006	0.00000E+000	6.56960E-006	0.00000E+000	7.58824E-004	-3.27687E+002	7	...........
	405	406	4.00435E+000	1.64003E-006	0.00000E+000	6.56725E-006	0.00000E+000	7.57524E-004	-3.27687E+002	7	...........
	406	407	4.00435E+000	1.64039E-006	0.00000E+000	6.56868E-006	0.00000E+000	7.59174E-004	-3.27687E+002	7	...........
	407	408	4.00434E+000	1.64082E-006	0.00000E+000	6.57040E-006	0.00000E+000	7.56624E-004	-3.27687E+002	7	...........
	408	409	4.00433E+000	1.63966E-006	0.00000E+000	6.56575E-006	0.00000E+000	7.54657E-004	-3.27687E+002	7	...........
	409	410	4.00433E+000	1.63990E-006	0.00000E+000	6.56668E-006	0.00000E+000	7.55657E-004	-3.27687E+002	7	...........
	410	411	4.00433E+000	1.63974E-006	0.00000E+000	6.56604E-006	0.00000E+000	7.55840E-004	-3.27687E+002	7	...........
	411	412	4.00432E+000	1.63981E-006	0.00000E+000	6.56633E-006	0.00000E+000	7.55490E-004	-3.27687E+002	7	...........
	412	413	4.00432E+000	1.64051E-006	0.00000E+000	6.56914E-006	0.00000E+000	7.55940E-004	-3.27687E+002	7	...........
	413	414	4.00432E+000	1.64104E-006	0.00000E+000	6.57124E-006	0.00000E+000	7.53757E-004	-3.27687E+002	7	...........
	414	415	4.00430E+000	1.63990E-006	0.00000E+000	6.56664E-006	0.00000E+000	7.56090E-004	-3.27687E+002	7	...........
	415	416	4.00429E+000	1.64010E-006	0.00000E+000	6.56746E-006	0.00000E+000	7.55657E-004	-3.27687E+002	7	...........
	416	417	4.00427E+000	1.64095E-006	0.00000E+000	6.57080E-006	0.00000E+000	7.57757E-004	-3.27687E+002	7	...........
	417	418	4.00427E+000	1.64079E-006	0.00000E+000	6.57014E-006	0.00000E+000	7.57240E-004	-3.27687E+002	7	...........
	418	419	4.00427E+000	1.64108E-006	0.00000E+000	6.57133E-006	0.00000E+000	7.53890E-004	-3.27687E+002	7	...........
	419	420	4.00426E+000	1.64158E-006	0.00000E+000	6.57329E-006	0.00000E+000	7.53307E-004	-3.27687E+002	7	...........
	420	421	4.00424E+000	1.64069E-006	0.00000E+000	6.56972E-006	0.00000E+000	7.53974E-004	-3.27687E+002	7	...........
	421	422	4.00423E+000	1.64052E-006	0.00000E+000	6.56901E-006	0.00000E+000	7.52890E-004	-3.27687E+002	7	...........
	422	423	4.00423E+000	1.64022E-006	0.00000E+000	6.56782E-006	0.00000E+000	7.51224E-004	-3.27687E+002	7	...........
	423	424	4.00423E+000	1.64066E-006	0.00000E+000	6.56958E-006	0.00000E+000	7.54157E-004	-3.27687E+002	7	...........
	424	425	4.00421E+000	1.64107E-006	0.00000E+000	6.57120E-006	0.00000E+000	7.49090E-004	-3.27687E+002	7	...........
	425	426	4.00421E+000	1.64175E-006	0.00000E+000	6.57392E-006	0.00000E+000	7.52774E-004	-3.27687E+002	7	...........
	426	427	4.00420E+000	1.64078E-006	0.00000E+000	6.57000E-006	0.00000E+000	7.52107E-004	-3.27687E+002	7	...........
	427	428	4.00419E+000	1.64110E-006	0.00000E+000	6.57128E-006	0.00000E+000	7.50074E-004	-3.27687E+002	7	...........
	428	429	4.00419E+000	1.64031E-006	0.00000E+000	6.56810E-006	0.00000E+000	7.50807E-004	-3.27687E+002	7	...........
	429	430	4.00419E+000	1.64113E-006	0.00000E+000	6.57141E-006	0.00000E+000	7.50757E-004	-3.27687E+002	7	...........
	430	431	4.00418E+000	1.64068E-006	0.00000E+000	6.56958E-006	0.00000E+000	7.49690E-004	-3.27687E+002	7	...........
	431	432	4.00417E+000	1.64038E-006	0.00000E+000	6.56836E-006	0.00000E+000	7.52240E-004	-3.27687E+002	7	...........
	432	433	4.00416E+000	1.64087E-006	0.00000E+000	6.57031E-006	0.00000E+000	7.50774E-004	-3.27687E+002	7	...........
	433	434	4.00415E+000	1.64031E-006	0.00000E+000	6.56804E-006	0.00000E+000	7.50040E-004	-3.27687E+002	7	...........
	434	435	4.00414E+000	1.64050E-006	0.00000E+000	6.56881E-006	0.00000E+000	7.48807E-004	-3.27687E+002	7	...........
	435	436	4.00414E+000	1.64041E-006	0.00000E+000	6.56841E-006	0.00000E+000	7.49957E-004	-3.27687E+002	7	...........
	436	437	4.00413E+000	1.64018E-006	0.00000E+000	6.56749E-006	0.00000E+000	7.46557E-004	-3.27687E+002	7	...........
	437	438	4.00412E+000	1.64072E-006	0.00000E+000	6.56965E-006	0.00000E+000	7.47474E-004	-3.27687E+002	7	...........
	438	439	4.00411E+000	1.64156E-006	0.00000E+000	6.57298E-006	0.00000E+000	7.48940E-004	-3.27687E+002	7	...........
	439	440	4.00410E+000	1.64038E-006	0.00000E+000	6.56824E-006	0.00000E+000	7.47207E-004	-3.27687E+002	7	...........
	440	441	4.00410E+000	1.64060E-006	0.00000E+000	6.56911E-006	0.00000E+000	7.47257E-004	-3.27687E+002	7	...........
	441	442	4.00410E+000	1.64035E-006	0.00000E+000	6.56812E-006	0.00000E+000	7.44574E-004	-3.27687E+002	7	...........
	442	443	4.00409E+000	1.64027E-006	0.00000E+000	6.56778E-006	0.00000E+000	7.47174E-004	-3.27687E+002	7	...........
	443	444	4.00409E+000	1.64101E-006	0.00000E+000	6.57077E-006	0.00000E+000	7.48007E-004	-3.27687E+002	7	...........
	444	445	4.00408E+000	1.64048E-006	0.00000E+000	6.56861E-006	0.00000E+000	7.45874E-004	-3.27687E+002	7	...........
	445	446	4.00407E+000	1.64026E-006	0.00000E+000	6.56769E-006	0.00000E+000	7.47824E-004	-3.27687E+002	7	...........
	446	447	4.00406E+000	1.64062E-006	0.00000E+000	6.56915E-006	0.00000E+000	7.48090E-004	-3.27687E+002	7	...........
	447	448	4.00406E+000	1.64074E-006	0.00000E+000	6.56961E-006	0.00000E+000	7.47840E-004	-3.27687E+002	7	...........
	448	449	4.00404E+000	1.64038E-006	0.00000E+000	6.56816E-006	0.00000E+000	7.45840E-004	-3.27687E+002	7	...........
	449	450	4.00403E+000	1.64204E-006	0.00000E+000	6.57480E-006	0.00000E+000	7.46807E-004	-3.27687E+002	7	...........
	450	451	4.00403E+000	1.64188E-006	0.00000E+000	6.57414E-006	0.00000E+000	7.48457E-004	-3.27687E+002	7	...........
	451	452	4.00402E+000	1.64182E-006	0.00000E+000	6.57387E-006	0.00000E+000	7.46307E-004	-3.27687E+002	7	...........
	452	453	4.00401E+000	1.64075E-006	0.00000E+000	6.56958E-006	0.00000E+000	7.44957E-004	-3.27687E+002	7	...........
	453	454	4.00400E+000	1.64060E-006	0.00000E+000	6.56898E-006	0.00000E+000	7.46457E-004	-3.27687E+002	7	...........
	454	455	4.00400E+000	1.64122E-006	0.00000E+000	6.57145E-006	0.00000E+000	7.48307E-004	-3.27687E+002	7	...........
	455	456	4.00400E+000	1.64115E-006	0.00000E+000	6.57114E-006	0.00000E+000	7.47707E-004	-3.27687E+002	7	...........
	456	457	4.00399E+000	1.64032E-006	0.00000E+000	6.56782E-006	0.00000E+000	7.46574E-004	-3.27687E+002	7	...........
	457	458	4.00399E+000	1.64091E-006	0.00000E+000	6.57019E-006	0.00000E+000	7.46140E-004	-3.27687E+002	7	...........
	458	459	4.00397E+000	1.64103E-006	0.00000E+000	6.57062E-006	0.00000E+000	7.45524E-004	-3.27687E+002	7	...........
	459	460	4.00396E+000	1.64096E-006	0.00000E+000	6.57032E-006	0.00000E+000	7.46807E-004	-3.27687E+002	7	...........
	460	461	4.00395E+000	1.64009E-006	0.00000E+000	6.56684E-006	0.00000E+000	7.49207E-004	-3.27687E+002	7	...........
	461	462	4.00395E+000	1.64089E-006	0.00000E+000	6.57003E-006	0.00000E+000	7.46807E-004	-3.27687E+002	7	...........
	462	463	4.00394E+000	1.64116E-006	0.00000E+000	6.57112E-006	0.00000E+000	7.42790E-004	-3.27687E+002	7	...........
	463	464	4.00394E+000	1.64142E-006	0.00000E+000	6.57216E-006	0.00000E+000	7.45190E-004	-3.27687E+002	7	...........
	464	465	4.00394E+000	1.64079E-006	0.00000E+000	6.56961E-006	0.00000E+000	7.47007E-004	-3.27687E+002	7	...........
	465	466	4.00392E+000	1.64148E-006	0.00000E+000	6.57236E-006	0.00000E+000	7.44974E-004	-3.27687E+002	7	...........
	466	467	4.00391E+000	1.64139E-006	0.00000E+000	6.57196E-006	0.00000E+000	7.47390E-004	-3.27687E+002	7	...........
	467	468	4.00390E+000	1.64090E-006	0.00000E+000	6.57002E-006	0.00000E+000	7.43857E-004	-3.27687E+002	7	...........
	468	469	4.00390E+000	1.64086E-006	0.00000E+000	6.56983E-006	0.00000E+000	7.43507E-004	-3.27687E+002	7	...........
	469	470	4.00389E+000	1.64083E-006	0.00000E+000	6.56968E-006	0.00000E+000	7.42857E-004	-3.27687E+002	7	...........
	470	471	4.00389E+000	1.64118E-006	0.00000E+000	6.57108E-006	0.00000E+000	7.42224E-004	-3.27687E+002	7	...........
	471	472	4.00388E+000	1.64106E-006	0.00000E+000	6.57059E-006	0.00000E+000	7.46957E-004	-3.27687E+002	7	...........
	472	473	4.00387E+000	1.64088E-006	0.00000E+000	6.56985E-006	0.00000E+000	7.43524E-004	-3.27687E+002	7	...........
	473	474	4.00386E+000	1.64112E-006	0.00000E+000	6.57083E-006	0.00000E+000	7.42507E-004	-3.27687E+002	7	...........
	474	475	4.00385E+000	1.64038E-006	0.00000E+000	6.56784E-006	0.00000E+000	7.41874E-004	-3.27687E+002	7	...........
	475	476	4.00384E+000	1.64180E-006	0.00000E+000	6.57349E-006	0.00000E+000	7.42040E-004	-3.27687E+002	7	...........
	476	477	4.00384E+000	1.64103E-006	0.00000E+000	6.57041E-006	0.00000E+000	7.42340E-004	-3.27687E+002	7	...........
	477	478	4.00383E+000	1.64021E-006	0.00000E+000	6.56712E-006	0.00000E+000	7.43107E-004	-3.27687E+002	7	...........
	478	479	4.00382E+000	1.64096E-006	0.00000E+000	6.57013E-006	0.00000E+000	7.43090E-004	-3.27687E+002	7	...........
	479	480	4.00381E+000	1.64136E-006	0.00000E+000	6.57171E-006	0.00000E+000	7.46357E-004	-3.27687E+002	7	...........
	480	481	4.00381E+000	1.64167E-006	0.00000E+000	6.57293E-006	0.00000E+000	7.43974E-004	-3.27687E+002	7	...........
	481	482	4.00380E+000	1.64152E-006	0.00000E+000	6.57232E-006	0.00000E+000	7.42257E-004	-3.27687E+002	7	...........
	482	483	4.00379E+000	1.64114E-006	0.00000E+000	6.57077E-006	0.00000E+000	7.43790E-004	-3.27687E+002	7	...........
	483	484	4.00378E+000	1.64091E-006	0.00000E+000	6.56984E-006	0.00000E+000	7.45190E-004	-3.27687E+002	7	...........
	484	485	4.00377E+000	1.64088E-006	0.00000E+000	6.56973E-006	0.00000E+000	7.44340E-004	-3.27687E+002	7	...........
	485	486	4.00377E+000	1.63985E-006	0.00000E+000	6.56558E-006	0.00000E+000	7.45707E-004	-3.27687E+002	7	...........
	486	487	4.00376E+000	1.63998E-006	0.00000E+000	6.56609E-006	0.00000E+000	7.43090E-004	-3.27687E+002	7	...........
	487	488	4.00376E+000	1.64080E-006	0.00000E+000	6.56936E-006	0.00000E+000	7.42890E-004	-3.27687E+002	7	...........
	488	489	4.00374E+000	1.64162E-006	0.00000E+000	6.57261E-006	0.00000E+000	7.42674E-004	-3.27687E+002	7	...........
	489	490	4.00374E+000	1.64067E-006	0.00000E+000	6.56883E-006	0.00000E+000	7.42124E-004	-3.27687E+002	7	...........
	490	491	4.00373E+000	1.64036E-006	0.00000E+000	6.56757E-006	0.00000E+000	7.41974E-004	-3.27687E+002	7	...........
	491	492	4.00372E+000	1.64130E-006	0.00000E+000	6.57132E-006	0.00000E+000	7.43807E-004	-3.27687E+002	7	...........
	492	493	4.00372E+000	1.64131E-006	0.00000E+000	6.57135E-006	0.00000E+000	7.43090E-004	-3.27687E+002	7	...........
	493	494	4.00371E+000	1.64089E-006	0.00000E+000	6.56966E-006	0.00000E+000	7.42274E-004	-3.27687E+002	7	...........
	494	495	4.00370E+000	1.64131E-006	0.00000E+000	6.57131E-006	0.00000E+000	7.43840E-004	-3.27687E+002	7	...........
	495	496	4.00369E+000	1.64149E-006	0.00000E+000	6.57201E-006	0.00000E+000	7.43857E-004	-3.27687E+002	7	...........
	496	497	4.00369E+000	1.64072E-006	0.00000E+000	6.56892E-006	0.00000E+000	7.42357E-004	-3.27687E+002	7	...........
	497	498	4.00368E+000	1.64052E-006	0.00000E+000	6.56811E-006	0.00000E+000	7.42357E-004	-3.27687E+002	7	...........
	498	499	4.00367E+000	1.64049E-006	0.00000E+000	6.56798E-006	0.00000E+000	7.43507E-004	-3.27687E+002	7	...........
	499	500	4.00367E+000	1.64022E-006	0.00000E+000	6.56690E-006	0.00000E+000	7.44107E-004	-3.27687E+002	7	...........
	500	501	4.00366E+000	1.64145E-006	0.00000E+000	6.57181E-006	0.00000E+000	7.45007E-004	-3.27687E+002	7	...........
	501	502	4.00366E+000	1.64176E-006	0.00000E+000	6.57304E-006	0.00000E+000	7.44057E-004	-3.27687E+002	7	...........
	502	503	4.00365E+000	1.64093E-006	0.00000E+000	6.56969E-006	0.00000E+000	7.43707E-004	-3.27687E+002	7	...........
	503	504	4.00364E+000	1.64128E-006	0.00000E+000	6.57107E-006	0.00000E+000	7.43457E-004	-3.27687E+002	7	...........
	504	505	4.00364E+000	1.64121E-006	0.00000E+000	6.57082E-006	0.00000E+000	7.45524E-004	-3.27687E+002	7	...........
	505	506	4.00363E+000	1.64134E-006	0.00000E+000	6.57133E-006	0.00000E+000	7.43357E-004	-3.27687E+002	7	...........
	506	507	4.00362E+000	1.64100E-006	0.00000E+000	6.56993E-006	0.00000E+000	7.43824E-004	-3.27687E+002	7	...........
	507	508	4.00360E+000	1.64099E-006	0.00000E+000	6.56989E-006	0.00000E+000	7.43357E-004	-3.27687E+002	7	...........
	508	509	4.00359E+000	1.64098E-006	0.00000E+000	6.56981E-006	0.00000E+000	7.45024E-004	-3.27687E+002	7	...........
	509	510	4.00360E+000	1.64044E-006	0.00000E+000	6.56767E-006	0.00000E+000	7.45874E-004	-3.27687E+002	7	...........
	510	511	4.00359E+000	1.64033E-006	0.00000E+000	6.56723E-006	0.00000E+000	7.42124E-004	-3.27687E+002	7	...........
	511	512	4.00358E+000	1.64026E-006	0.00000E+000	6.56693E-006	0.00000E+000	7.46190E-004	-3.27687E+002	7	...........
	512	513	4.00358E+000	1.64162E-006	0.00000E+000	6.57234E-006	0.00000E+000	7.46907E-004	-3.27687E+002	7	...........
	513	514	4.00357E+000	1.64158E-006	0.00000E+000	6.57219E-006	0.00000E+000	7.46090E-004	-3.27687E+002	7	...........
	514	515	4.00355E+000	1.64063E-006	0.00000E+000	6.56833E-006	0.00000E+000	7.46607E-004	-3.27687E+002	7	...........
	515	516	4.00356E+000	1.64030E-006	0.00000E+000	6.56704E-006	0.00000E+000	7.47624E-004	-3.27687E+002	7	...........
	516	517	4.00354E+000	1.64003E-006	0.00000E+000	6.56594E-006	0.00000E+000	7.47824E-004	-3.27687E+002	7	...........
	517	518	4.00355E+000	1.64019E-006	0.00000E+000	6.56657E-006	0.00000E+000	7.45257E-004	-3.27687E+002	7	...........
	518	519	4.00354E+000	1.63970E-006	0.00000E+000	6.56461E-006	0.00000E+000	7.47440E-004	-3.27687E+002	7	...........
	519	520	4.00353E+000	1.64014E-006	0.00000E+000	6.56634E-006	0.00000E+000	7.48240E-004	-3.27687E+002	7	...........
	520	521	4.00353E+000	1.64039E-006	0.00000E+000	6.56734E-006	0.00000E+000	7.47674E-004	-3.27687E+002	7	...........
	521	522	4.00352E+000	1.64049E-006	0.00000E+000	6.56772E-006	0.00000E+000	7.45990E-004	-3.27687E+002	7	...........
	522	523	4.00351E+000	1.63932E-006	0.00000E+000	6.56303E-006	0.00000E+000	7.47040E-004	-3.27687E+002	7	...........
	523	524	4.00350E+000	1.64023E-006	0.00000E+000	6.56665E-006	0.00000E+000	7.51424E-004	-3.27687E+002	7	...........
	524	525	4.00349E+000	1.64054E-006	0.00000E+000	6.56789E-006	0.00000E+000	7.50807E-004	-3.27687E+002	7	...........
	525	526	4.00350E+000	1.64158E-006	0.00000E+000	6.57204E-006	0.00000E+000	7.49157E-004	-3.27687E+002	7	...........
	526	527	4.00349E+000	1.64032E-006	0.00000E+000	6.56702E-006	0.00000E+000	7.49074E-004	-3.27687E+002	7	...........
	527	528	4.00348E+000	1.64050E-006	0.00000E+000	6.56770E-006	0.00000E+000	7.49240E-004	-3.27687E+002	7	...........
	528	529	4.00347E+000	1.63963E-006	0.00000E+000	6.56422E-006	0.00000E+000	7.48840E-004	-3.27687E+002	7	...........
	529	530	4.00347E+000	1.64010E-006	0.00000E+000	6.56610E-006	0.00000E+000	7.48140E-004	-3.27687E+002	7	...........
	530	531	4.00347E+000	1.64056E-006	0.00000E+000	6.56793E-006	0.00000E+000	7.47290E-004	-3.27687E+002	7	...........
	531	532	4.00345E+000	1.64056E-006	0.00000E+000	6.56792E-006	0.00000E+000	7.48740E-004	-3.27687E+002	7	...........
	532	533	4.00345E+000	1.64095E-006	0.00000E+000	6.56945E-006	0.00000E+000	7.52957E-004	-3.27687E+002	7	...........
	533	534	4.00344E+000	1.63981E-006	0.00000E+000	6.56489E-006	0.00000E+000	7.51807E-004	-3.27687E+002	7	...........
	534	535	4.00344E+000	1.64022E-006	0.00000E+000	6.56651E-006	0.00000E+000	7.53474E-004	-3.27687E+002	7	...........
	535	536	4.00343E+000	1.63981E-006	0.00000E+000	6.56486E-006	0.00000E+000	7.51574E-004	-3.27687E+002	7	...........
	536	537	4.00342E+000	1.64004E-006	0.00000E+000	6.56578E-006	0.00000E+000	7.52707E-004	-3.27687E+002	7	...........
	537	538	4.00341E+000	1.64046E-006	0.00000E+000	6.56745E-006	0.00000E+000	7.50640E-004	-3.27687E+002	7	...........
	538	539	4.00339E+000	1.64132E-006	0.00000E+000	6.57085E-006	0.00000E+000	7.53207E-004	-3.27687E+002	7	...........
	539	540	4.00340E+000	1.64056E-006	0.00000E+000	6.56781E-006	0.00000E+000	7.52907E-004	-3.27687E+002	7	...........
	540	541	4.00340E+000	1.64042E-006	0.00000E+000	6.56727E-006	0.00000E+000	7.53340E-004	-3.27687E+002	7	...........
	541	542	4.00340E+000	1.63974E-006	0.00000E+000	6.56451E-006	0.00000E+000	7.53090E-004	-3.27687E+002	7	...........
	542	543	4.00339E+000	1.63994E-006	0.00000E+000	6.56531E-006	0.00000E+000	7.50740E-004	-3.27687E+002	7	...........
	543	544	4.00337E+000	1.63967E-006	0.00000E+000	6.56422E-006	0.00000E+000	7.51307E-004	-3.27687E+002	7	...........
	544	545	4.00338E+000	1.63998E-006	0.00000E+000	6.56544E-006	0.00000E+000	7.51474E-004	-3.27687E+002	7	...........
	545	546	4.00337E+000	1.64022E-006	0.00000E+000	6.56639E-006	0.00000E+000	7.52240E-004	-3.27687E+002	7	...........
	546	547	4.00336E+000	1.63944E-006	0.00000E+000	6.56327E-006	0.00000E+000	7.53390E-004	-3.27687E+002	7	...........
	547	548	4.00335E+000	1.63989E-006	0.00000E+000	6.56504E-006	0.00000E+000	7.54657E-004	-3.27687E+002	7	...........
	548	549	4.00334E+000	1.64007E-006	0.00000E+000	6.56577E-006	0.00000E+000	7.51707E-004	-3.27687E+002	7	...........
	549	550	4.00334E+000	1.64045E-006	0.00000E+000	6.56729E-006	0.00000E+000	7.53790E-004	-3.27687E+002	7	...........
	550	551	4.00333E+000	1.64096E-006	0.00000E+000	6.56928E-006	0.00000E+000	7.52307E-004	-3.27687E+002	7	...........
	551	552	4.00332E+000	1.64039E-006	0.00000E+000	6.56700E-006	0.00000E+000	7.52440E-004	-3.27687E+002	7	...........
	552	553	4.00332E+000	1.64050E-006	0.00000E+000	6.56745E-006	0.00000E+000	7.54590E-004	-3.27687E+002	7	...........
	553	554	4.00330E+000	1.64027E-006	0.00000E+000	6.56649E-006	0.00000E+000	7.53407E-004	-3.27687E+002	7	...........
	554	555	4.00330E+000	1.64129E-006	0.00000E+000	6.57056E-006	0.00000E+000	7.53974E-004	-3.27687E+002	7	...........
	555	556	4.00330E+000	1.64005E-006	0.00000E+000	6.56560E-006	0.00000E+000	7.54624E-004	-3.27687E+002	7	...........
	556	557	4.00329E+000	1.64076E-006	0.00000E+000	6.56844E-006	0.00000E+000	7.54890E-004	-3.27687E+002	7	...........
	557	558	4.00328E+000	1.64001E-006	0.00000E+000	6.56544E-006	0.00000E+000	7.56307E-004	-3.27687E+002	7	...........
	558	559	4.00328E+000	1.64026E-006	0.00000E+000	6.56641E-006	0.00000E+000	7.55107E-004	-3.27687E+002	7	...........
	559	560	4.00327E+000	1.63923E-006	0.00000E+000	6.56227E-006	0.00000E+000	7.55057E-004	-3.27687E+002	7	...........
	560	561	4.00326E+000	1.63937E-006	0.00000E+000	6.56282E-006	0.00000E+000	7.58140E-004	-3.27687E+002	7	...........
	561	562	4.00326E+000	1.64040E-006	0.00000E+000	6.56694E-006	0.00000E+000	7.56657E-004	-3.27687E+002	7	...........
	562	563	4.00325E+000	1.64101E-006	0.00000E+000	6.56939E-006	0.00000E+000	7.58357E-004	-3.27687E+002	7	...........
	563	564	4.00323E+000	1.64096E-006	0.00000E+000	6.56915E-006	0.00000E+000	7.59690E-004	-3.27687E+002	7	...........
	564	565	4.00323E+000	1.64001E-006	0.00000E+000	6.56534E-006	0.00000E+000	7.55807E-004	-3.27687E+002	7	...........
	565	566	4.00323E+000	1.64014E-006	0.00000E+000	6.56588E-006	0.00000E+000	7.57474E-004	-3.27687E+002	7	...........
	566	567	4.00322E+000	1.64026E-006	0.00000E+000	6.56632E-006	0.00000E+000	7.56540E-004	-3.27687E+002	7	...........
	567	568	4.00322E+000	1.64085E-006	0.00000E+000	6.56867E-006	0.00000E+000	7.57974E-004	-3.27687E+002	7	...........
	568	569	4.00321E+000	1.64078E-006	0.00000E+000	6.56840E-006	0.00000E+000	7.58190E-004	-3.27687E+002	7	...........
	569	570	4.00321E+000	1.64008E-006	0.00000E+000	6.56558E-006	0.00000E+000	7.57957E-004	-3.27687E+002	7	...........
	570	571	4.00319E+000	1.64021E-006	0.00000E+000	6.56606E-006	0.00000E+000	7.59324E-004	-3.27687E+002	7	...........
	571	572	4.00319E+000	1.63962E-006	0.00000E+000	6.56369E-006	0.00000E+000	7.58590E-004	-3.27687E+002	7	...........
	572	573	4.00318E+000	1.64000E-006	0.00000E+000	6.56523E-006	0.00000E+000	7.59657E-004	-3.27687E+002	7	...........
	573	574	4.00317E+000	1.63982E-006	0.00000E+000	6.56450E-006	0.00000E+000	7.59724E-004	-3.27687E+002	7	...........
	574	575	4.00317E+000	1.64039E-006	0.00000E+000	6.56676E-006	0.00000E+000	7.58340E-004	-3.27687E+002	7	...........
	575	576	4.00316E+000	1.64114E-006	0.00000E+000	6.56974E-006	0.00000E+000	7.59874E-004	-3.27687E+002	7	...........
	576	577	4.00316E+000	1.64086E-006	0.00000E+000	6.56861E-006	0.00000E+000	7.60524E-004	-3.27687E+002	7	...........
	577	578	4.00315E+000	1.64047E-006	0.00000E+000	6.56705E-006	0.00000E+000	7.58607E-004	-3.27687E+002	7	...........
	578	579	4.00314E+000	1.64037E-006	0.00000E+000	6.56662E-006	0.00000E+000	7.58890E-004	-3.27687E+002	7	...........
	579	580	4.00314E+000	1.64087E-006	0.00000E+000	6.56865E-006	0.00000E+000	7.60207E-004	-3.27687E+002	7	...........
	580	581	4.00313E+000	1.64035E-006	0.00000E+000	6.56652E-006	0.00000E+000	7.60174E-004	-3.27687E+002	7	...........
	581	582	4.00313E+000	1.64038E-006	0.00000E+000	6.56663E-006	0.00000E+000	7.62340E-004	-3.27687E+002	7	...........
	582	583	4.00312E+000	1.64041E-006	0.00000E+000	6.56677E-006	0.00000E+000	7.60607E-004	-3.27687E+002	7	...........
	583	584	4.00312E+000	1.64023E-006	0.00000E+000	6.56603E-006	0.00000E+000	7.58924E-004	-3.27687E+002	7	...........
	584	585	4.00312E+000	1.63969E-006	0.00000E+000	6.56388E-006	0.00000E+000	7.61040E-004	-3.27687E+002	7	...........
	585	586	4.00310E+000	1.64009E-006	0.00000E+000	6.56546E-006	0.00000E+000	7.61590E-004	-3.27687E+002	7	...........
	586	587	4.00310E+000	1.63999E-006	0.00000E+000	6.56505E-006	0.00000E+000	7.59974E-004	-3.27687E+002	7	...........
	587	588	4.00310E+000	1.64111E-006	0.00000E+000	6.56954E-006	0.00000E+000	7.61224E-004	-3.27687E+002	7	...........
	588	589	4.00309E+000	1.64104E-006	0.00000E+000	6.56920E-006	0.00000E+000	7.61974E-004	-3.27687E+002	7	...........
	589	590	4.00308E+000	1.64033E-006	0.00000E+000	6.56638E-006	0.00000E+000	7.60790E-004	-3.27687E+002	7	...........
	590	591	4.00309E+000	1.64094E-006	0.00000E+000	6.56882E-006	0.00000E+000	7.59357E-004	-3.27687E+002	7	...........
	591	592	4.00307E+000	1.64124E-006	0.00000E+000	6.57000E-006	0.00000E+000	7.62640E-004	-3.27687E+002	7	...........
	592	593	4.00306E+000	1.64206E-006	0.00000E+000	6.57325E-006	0.00000E+000	7.63140E-004	-3.27687E+002	7	...........
	593	594	4.00306E+000	1.64076E-006	0.00000E+000	6.56805E-006	0.00000E+000	7.62457E-004	-3.27687E+002	7	...........
	594	595	4.00305E+000	1.64060E-006	0.00000E+000	6.56742E-006	0.00000E+000	7.61974E-004	-3.27687E+002	7	...........
	595	596	4.00305E+000	1.64031E-006	0.00000E+000	6.56625E-006	0.00000E+000	7.62240E-004	-3.27687E+002	7	...........
	596	597	4.00304E+000	1.64000E-006	0.00000E+000	6.56498E-006	0.00000E+000	7.63307E-004	-3.27687E+002	7	...........
	597	598	4.00303E+000	1.63955E-006	0.00000E+000	6.56315E-006	0.00000E+000	7.63890E-004	-3.27687E+002	7	...........
	598	599	4.00303E+000	1.64021E-006	0.00000E+000	6.56579E-006	0.00000E+000	7.58624E-004	-3.27687E+002	7	...........
	599	600	4.00302E+000	1.64032E-006	0.00000E+000	6.56625E-006	0.00000E+000	7.63990E-004	-3.27687E+002	7	...........
