EXPLAIN
TAG	PWR800_READVOLTAGE
TITLE	LABEL	PWR Read Voltage	Test Identifier
DATE	LABEL	21.6.2024	Date
TIME	LABEL	19:54:47	Time
NOTES	NOTES	1	Notes...
	
PSTAT	PSTAT	REF600-12055	Potentiostat
CAPACITY	QUANT	1.00000E+000	Capacity (A-hr)
CELLTYPE	SELECTOR	1	Cell Type
WORKINGCONNECTION	SELECTOR	0	Working Connection
MAXTIME	VARIABLEANDUNITS	6.00000E+002	s	6.00000E+002	second(s)	Max Time
SAMPLETIME	QUANT	1.00000E+000	Sample Period (s)
STOPAT1	MULTIPARAM	0	0.00000E+000	Stop At 1	None	N/A
STOPAT2	MULTIPARAM	0	0.00000E+000	Stop At 2	None	N/A
AESBHCSELECTOR	TOGGLE	F	Save Both Half Cells
EOC	QUANT	3.820191	Open Circuit (V)
SEQUENCER	TOGGLE	TRUE	Run as Sequence
PSTATMODEL	IQUANT	4	Pstat Model
PSTATSECTION	LABEL	REF600-12055	Pstat Section
PSTATSERIALNO	LABEL	12055	Pstat Serial Number
CTRLMODE	IQUANT	0	Control Mode
ELECTROMETER	IQUANT	0	RE=0 or CS=1
IESTAB	IQUANT	0	I/E Stability
CASPEED	IQUANT	4	Control Amp Speed
CONVENTION	IQUANT	1	Current Convention
ICHRANGE	IQUANT	2	Ich Range
ICHRANGEMODE	TOGGLE	T	Ich Auto Range
ICHOFFSETENABLE	TOGGLE	F	Ich Offset Enable
ICHOFFSET	QUANT	0	Ich Offset (V)
ICHFILTER	IQUANT	1	Ich Filter
VCHRANGE	IQUANT	3	Vch Range
VCHRANGEMODE	TOGGLE	T	Vch Auto Range
VCHOFFSETENABLE	TOGGLE	F	Vch Offset Enable
VCHOFFSET	QUANT	0	Vch Offset (V)
VCHFILTER	IQUANT	1	Vch Filter
ACHRANGE	IQUANT	2	Ach Range
ACHOFFSETENABLE	TOGGLE	F	Ach Offset Enable
ACHOFFSET	QUANT	0	Ach Offset (V)
ACHFILTER	IQUANT	1	Ach Filter
IERANGELOWERLIMIT	IQUANT	7	I/E Range Lower Limit
IERANGEMODE	TOGGLE	F	I/E AutoRange
IERANGE	IQUANT	11	I/E Range
POSFEEDENABLE	TOGGLE	F	Positive Feedback IR Comp
POSFEEDRESISTANCE	QUANT	0	Positive Feedback Resistance (ohm)
ACHSELECT	IQUANT	4	Ach Select
SENSECABLEID	IQUANT	14	Sense Cable ID
PWRCABLEID	IQUANT	14	Power Cable ID
DCCALDATE	LABEL	2/12/2024	DC Calibration Date
ACCALDATE	LABEL	2/12/2024	AC Calibration Date
THERMOSELECT	IQUANT	1	Thermo Select
FRAMEWORKVERSION	LABEL	7.10.3	Framework Version
INSTRUMENTVERSION	LABEL	4.91	Instrument Version
COMMVERSION	LABEL	2.24	Communications Version
CPUPLDVERSION	LABEL	0.00	CPU PLD Version
CTRLPLDVERSION	LABEL	0.00	CTRL PLD Version
PSTATPLDVERSION	LABEL	0.00	PSTAT PLD Version
CURVE	TABLE	600
	Pt	T	Vf	Im	Vu	Pwr	Sig	Ach	Temp	IERange	Over
	#	s	V	A	V	W	V	V	deg C	#	bits
	0	1	3.91445E+000	1.50218E-006	0.00000E+000	5.88022E-006	0.00000E+000	1.00361E-003	-3.27687E+002	7	...........
	1	2	3.91417E+000	1.50241E-006	0.00000E+000	5.88067E-006	0.00000E+000	1.00297E-003	-3.27687E+002	7	...........
	2	3	3.91396E+000	1.50264E-006	0.00000E+000	5.88128E-006	0.00000E+000	1.00712E-003	-3.27687E+002	7	...........
	3	4	3.91380E+000	1.50212E-006	0.00000E+000	5.87899E-006	0.00000E+000	1.00997E-003	-3.27687E+002	7	...........
	4	5	3.91365E+000	1.50170E-006	0.00000E+000	5.87714E-006	0.00000E+000	1.01521E-003	-3.27687E+002	7	...........
	5	6	3.91350E+000	1.50139E-006	0.00000E+000	5.87568E-006	0.00000E+000	1.01851E-003	-3.27687E+002	7	...........
	6	7	3.91340E+000	1.50163E-006	0.00000E+000	5.87649E-006	0.00000E+000	1.01869E-003	-3.27687E+002	7	...........
	7	8	3.91330E+000	1.50258E-006	0.00000E+000	5.88005E-006	0.00000E+000	1.01967E-003	-3.27687E+002	7	...........
	8	9	3.91321E+000	1.50175E-006	0.00000E+000	5.87665E-006	0.00000E+000	1.01996E-003	-3.27687E+002	7	...........
	9	10	3.91311E+000	1.50147E-006	0.00000E+000	5.87540E-006	0.00000E+000	1.01794E-003	-3.27687E+002	7	...........
	10	11	3.91302E+000	1.50109E-006	0.00000E+000	5.87380E-006	0.00000E+000	1.01742E-003	-3.27687E+002	7	...........
	11	12	3.91293E+000	1.50176E-006	0.00000E+000	5.87630E-006	0.00000E+000	1.01714E-003	-3.27687E+002	7	...........
	12	13	3.91285E+000	1.50171E-006	0.00000E+000	5.87595E-006	0.00000E+000	1.01751E-003	-3.27687E+002	7	...........
	13	14	3.91276E+000	1.50137E-006	0.00000E+000	5.87448E-006	0.00000E+000	1.01577E-003	-3.27687E+002	7	...........
	14	15	3.91267E+000	1.50136E-006	0.00000E+000	5.87432E-006	0.00000E+000	1.01471E-003	-3.27687E+002	7	...........
	15	16	3.91259E+000	1.50126E-006	0.00000E+000	5.87383E-006	0.00000E+000	1.01369E-003	-3.27687E+002	7	...........
	16	17	3.91249E+000	1.50095E-006	0.00000E+000	5.87246E-006	0.00000E+000	1.01552E-003	-3.27687E+002	7	...........
	17	18	3.91243E+000	1.50114E-006	0.00000E+000	5.87311E-006	0.00000E+000	1.01809E-003	-3.27687E+002	7	...........
	18	19	3.91235E+000	1.50213E-006	0.00000E+000	5.87686E-006	0.00000E+000	1.01619E-003	-3.27687E+002	7	...........
	19	20	3.91228E+000	1.50248E-006	0.00000E+000	5.87813E-006	0.00000E+000	1.01966E-003	-3.27687E+002	7	...........
	20	21	3.91220E+000	1.50208E-006	0.00000E+000	5.87644E-006	0.00000E+000	9.04490E-004	-3.27687E+002	7	...........
	21	22	3.91214E+000	1.50237E-006	0.00000E+000	5.87748E-006	0.00000E+000	8.49574E-004	-3.27687E+002	7	...........
	22	23	3.91207E+000	1.50251E-006	0.00000E+000	5.87792E-006	0.00000E+000	8.51190E-004	-3.27687E+002	7	...........
	23	24	3.91202E+000	1.50225E-006	0.00000E+000	5.87682E-006	0.00000E+000	8.51340E-004	-3.27687E+002	7	...........
	24	25	3.91195E+000	1.50246E-006	0.00000E+000	5.87754E-006	0.00000E+000	8.52390E-004	-3.27687E+002	7	...........
	25	26	3.91190E+000	1.50312E-006	0.00000E+000	5.88003E-006	0.00000E+000	8.48790E-004	-3.27687E+002	7	...........
	26	27	3.91184E+000	1.50264E-006	0.00000E+000	5.87807E-006	0.00000E+000	8.48940E-004	-3.27687E+002	7	...........
	27	28	3.91178E+000	1.50284E-006	0.00000E+000	5.87880E-006	0.00000E+000	8.49524E-004	-3.27687E+002	7	...........
	28	29	3.91174E+000	1.50221E-006	0.00000E+000	5.87624E-006	0.00000E+000	8.50357E-004	-3.27687E+002	7	...........
	29	30	3.91169E+000	1.50264E-006	0.00000E+000	5.87785E-006	0.00000E+000	8.49557E-004	-3.27687E+002	7	...........
	30	31	3.91164E+000	1.50261E-006	0.00000E+000	5.87769E-006	0.00000E+000	8.50240E-004	-3.27687E+002	7	...........
	31	32	3.91160E+000	1.50243E-006	0.00000E+000	5.87691E-006	0.00000E+000	8.48540E-004	-3.27687E+002	7	...........
	32	33	3.91155E+000	1.50379E-006	0.00000E+000	5.88216E-006	0.00000E+000	8.48007E-004	-3.27687E+002	7	...........
	33	34	3.91150E+000	1.50283E-006	0.00000E+000	5.87830E-006	0.00000E+000	8.48140E-004	-3.27687E+002	7	...........
	34	35	3.91146E+000	1.50288E-006	0.00000E+000	5.87845E-006	0.00000E+000	8.47090E-004	-3.27687E+002	7	...........
	35	36	3.91140E+000	1.50247E-006	0.00000E+000	5.87675E-006	0.00000E+000	8.49107E-004	-3.27687E+002	7	...........
	36	37	3.91136E+000	1.50357E-006	0.00000E+000	5.88098E-006	0.00000E+000	8.46190E-004	-3.27687E+002	7	...........
	37	38	3.91130E+000	1.50317E-006	0.00000E+000	5.87935E-006	0.00000E+000	8.47340E-004	-3.27687E+002	7	...........
	38	39	3.91126E+000	1.50314E-006	0.00000E+000	5.87918E-006	0.00000E+000	8.48307E-004	-3.27687E+002	7	...........
	39	40	3.91120E+000	1.50369E-006	0.00000E+000	5.88122E-006	0.00000E+000	8.48340E-004	-3.27687E+002	7	...........
	40	41	3.91115E+000	1.50319E-006	0.00000E+000	5.87919E-006	0.00000E+000	8.48757E-004	-3.27687E+002	7	...........
	41	42	3.91111E+000	1.50339E-006	0.00000E+000	5.87993E-006	0.00000E+000	8.45990E-004	-3.27687E+002	7	...........
	42	43	3.91106E+000	1.50304E-006	0.00000E+000	5.87846E-006	0.00000E+000	8.47590E-004	-3.27687E+002	7	...........
	43	44	3.91101E+000	1.50394E-006	0.00000E+000	5.88192E-006	0.00000E+000	8.46857E-004	-3.27687E+002	7	...........
	44	45	3.91096E+000	1.50409E-006	0.00000E+000	5.88243E-006	0.00000E+000	8.48024E-004	-3.27687E+002	7	...........
	45	46	3.91091E+000	1.50474E-006	0.00000E+000	5.88491E-006	0.00000E+000	8.47140E-004	-3.27687E+002	7	...........
	46	47	3.91088E+000	1.50378E-006	0.00000E+000	5.88113E-006	0.00000E+000	8.46774E-004	-3.27687E+002	7	...........
	47	48	3.91084E+000	1.50374E-006	0.00000E+000	5.88091E-006	0.00000E+000	8.46924E-004	-3.27687E+002	7	...........
	48	49	3.91080E+000	1.50399E-006	0.00000E+000	5.88182E-006	0.00000E+000	8.49257E-004	-3.27687E+002	7	...........
	49	50	3.91075E+000	1.50411E-006	0.00000E+000	5.88219E-006	0.00000E+000	8.50490E-004	-3.27687E+002	7	...........
	50	51	3.91070E+000	1.50440E-006	0.00000E+000	5.88328E-006	0.00000E+000	8.49224E-004	-3.27687E+002	7	...........
	51	52	3.91067E+000	1.50437E-006	0.00000E+000	5.88309E-006	0.00000E+000	8.52507E-004	-3.27687E+002	7	...........
	52	53	3.91062E+000	1.50463E-006	0.00000E+000	5.88402E-006	0.00000E+000	8.49974E-004	-3.27687E+002	7	...........
	53	54	3.91058E+000	1.50375E-006	0.00000E+000	5.88052E-006	0.00000E+000	8.49624E-004	-3.27687E+002	7	...........
	54	55	3.91053E+000	1.50313E-006	0.00000E+000	5.87803E-006	0.00000E+000	8.52740E-004	-3.27687E+002	7	...........
	55	56	3.91049E+000	1.50397E-006	0.00000E+000	5.88126E-006	0.00000E+000	8.51540E-004	-3.27687E+002	7	...........
	56	57	3.91044E+000	1.50454E-006	0.00000E+000	5.88341E-006	0.00000E+000	8.51257E-004	-3.27687E+002	7	...........
	57	58	3.91040E+000	1.50510E-006	0.00000E+000	5.88552E-006	0.00000E+000	8.52624E-004	-3.27687E+002	7	...........
	58	59	3.91034E+000	1.50447E-006	0.00000E+000	5.88299E-006	0.00000E+000	8.52157E-004	-3.27687E+002	7	...........
	59	60	3.91030E+000	1.50444E-006	0.00000E+000	5.88283E-006	0.00000E+000	8.51774E-004	-3.27687E+002	7	...........
	60	61	3.91025E+000	1.50475E-006	0.00000E+000	5.88393E-006	0.00000E+000	8.50690E-004	-3.27687E+002	7	...........
	61	62	3.91021E+000	1.50506E-006	0.00000E+000	5.88509E-006	0.00000E+000	8.50757E-004	-3.27687E+002	7	...........
	62	63	3.91016E+000	1.50488E-006	0.00000E+000	5.88432E-006	0.00000E+000	8.49990E-004	-3.27687E+002	7	...........
	63	64	3.91012E+000	1.50532E-006	0.00000E+000	5.88597E-006	0.00000E+000	8.50274E-004	-3.27687E+002	7	...........
	64	65	3.91008E+000	1.50515E-006	0.00000E+000	5.88527E-006	0.00000E+000	8.49807E-004	-3.27687E+002	7	...........
	65	66	3.91005E+000	1.50508E-006	0.00000E+000	5.88493E-006	0.00000E+000	8.51440E-004	-3.27687E+002	7	...........
	66	67	3.91001E+000	1.50456E-006	0.00000E+000	5.88284E-006	0.00000E+000	8.47890E-004	-3.27687E+002	7	...........
	67	68	3.90997E+000	1.50506E-006	0.00000E+000	5.88475E-006	0.00000E+000	8.50107E-004	-3.27687E+002	7	...........
	68	69	3.90994E+000	1.50546E-006	0.00000E+000	5.88627E-006	0.00000E+000	8.49440E-004	-3.27687E+002	7	...........
	69	70	3.90990E+000	1.50601E-006	0.00000E+000	5.88837E-006	0.00000E+000	8.47657E-004	-3.27687E+002	7	...........
	70	71	3.90988E+000	1.50608E-006	0.00000E+000	5.88860E-006	0.00000E+000	8.48674E-004	-3.27687E+002	7	...........
	71	72	3.90985E+000	1.50620E-006	0.00000E+000	5.88901E-006	0.00000E+000	8.47707E-004	-3.27687E+002	7	...........
	72	73	3.90982E+000	1.50540E-006	0.00000E+000	5.88582E-006	0.00000E+000	8.49707E-004	-3.27687E+002	7	...........
	73	74	3.90979E+000	1.50599E-006	0.00000E+000	5.88810E-006	0.00000E+000	8.47240E-004	-3.27687E+002	7	...........
	74	75	3.90976E+000	1.50644E-006	0.00000E+000	5.88984E-006	0.00000E+000	8.45874E-004	-3.27687E+002	7	...........
	75	76	3.90974E+000	1.50633E-006	0.00000E+000	5.88936E-006	0.00000E+000	8.45790E-004	-3.27687E+002	7	...........
	76	77	3.90972E+000	1.50617E-006	0.00000E+000	5.88868E-006	0.00000E+000	8.47374E-004	-3.27687E+002	7	...........
	77	78	3.90970E+000	1.50623E-006	0.00000E+000	5.88889E-006	0.00000E+000	8.46357E-004	-3.27687E+002	7	...........
	78	79	3.90967E+000	1.50649E-006	0.00000E+000	5.88989E-006	0.00000E+000	8.44890E-004	-3.27687E+002	7	...........
	79	80	3.90965E+000	1.50559E-006	0.00000E+000	5.88633E-006	0.00000E+000	8.41690E-004	-3.27687E+002	7	...........
	80	81	3.90962E+000	1.50589E-006	0.00000E+000	5.88745E-006	0.00000E+000	8.41440E-004	-3.27687E+002	7	...........
	81	82	3.90961E+000	1.50625E-006	0.00000E+000	5.88884E-006	0.00000E+000	8.44607E-004	-3.27687E+002	7	...........
	82	83	3.90959E+000	1.50683E-006	0.00000E+000	5.89108E-006	0.00000E+000	8.42607E-004	-3.27687E+002	7	...........
	83	84	3.90956E+000	1.50588E-006	0.00000E+000	5.88734E-006	0.00000E+000	8.39107E-004	-3.27687E+002	7	...........
	84	85	3.90954E+000	1.50605E-006	0.00000E+000	5.88796E-006	0.00000E+000	8.38607E-004	-3.27687E+002	7	...........
	85	86	3.90953E+000	1.50559E-006	0.00000E+000	5.88616E-006	0.00000E+000	8.38240E-004	-3.27687E+002	7	...........
	86	87	3.90951E+000	1.50598E-006	0.00000E+000	5.88763E-006	0.00000E+000	8.34957E-004	-3.27687E+002	7	...........
	87	88	3.90949E+000	1.50670E-006	0.00000E+000	5.89042E-006	0.00000E+000	8.34824E-004	-3.27687E+002	7	...........
	88	89	3.90947E+000	1.50673E-006	0.00000E+000	5.89053E-006	0.00000E+000	8.35107E-004	-3.27687E+002	7	...........
	89	90	3.90946E+000	1.50711E-006	0.00000E+000	5.89197E-006	0.00000E+000	8.37107E-004	-3.27687E+002	7	...........
	90	91	3.90945E+000	1.50680E-006	0.00000E+000	5.89074E-006	0.00000E+000	8.33757E-004	-3.27687E+002	7	...........
	91	92	3.90943E+000	1.50716E-006	0.00000E+000	5.89213E-006	0.00000E+000	8.36957E-004	-3.27687E+002	7	...........
	92	93	3.90942E+000	1.50704E-006	0.00000E+000	5.89167E-006	0.00000E+000	8.35974E-004	-3.27687E+002	7	...........
	93	94	3.90940E+000	1.50718E-006	0.00000E+000	5.89216E-006	0.00000E+000	8.32990E-004	-3.27687E+002	7	...........
	94	95	3.90938E+000	1.50792E-006	0.00000E+000	5.89504E-006	0.00000E+000	8.33540E-004	-3.27687E+002	7	...........
	95	96	3.90937E+000	1.50848E-006	0.00000E+000	5.89719E-006	0.00000E+000	8.34357E-004	-3.27687E+002	7	...........
	96	97	3.90935E+000	1.50850E-006	0.00000E+000	5.89726E-006	0.00000E+000	8.33757E-004	-3.27687E+002	7	...........
	97	98	3.90932E+000	1.50771E-006	0.00000E+000	5.89413E-006	0.00000E+000	8.32657E-004	-3.27687E+002	7	...........
	98	99	3.90931E+000	1.50781E-006	0.00000E+000	5.89450E-006	0.00000E+000	8.33890E-004	-3.27687E+002	7	...........
	99	100	3.90930E+000	1.50825E-006	0.00000E+000	5.89621E-006	0.00000E+000	8.31140E-004	-3.27687E+002	7	...........
	100	101	3.90928E+000	1.50775E-006	0.00000E+000	5.89421E-006	0.00000E+000	8.30957E-004	-3.27687E+002	7	...........
	101	102	3.90926E+000	1.50728E-006	0.00000E+000	5.89234E-006	0.00000E+000	8.32290E-004	-3.27687E+002	7	...........
	102	103	3.90925E+000	1.50727E-006	0.00000E+000	5.89227E-006	0.00000E+000	8.33074E-004	-3.27687E+002	7	...........
	103	104	3.90923E+000	1.50700E-006	0.00000E+000	5.89122E-006	0.00000E+000	8.34024E-004	-3.27687E+002	7	...........
	104	105	3.90922E+000	1.50738E-006	0.00000E+000	5.89268E-006	0.00000E+000	8.33690E-004	-3.27687E+002	7	...........
	105	106	3.90920E+000	1.50786E-006	0.00000E+000	5.89451E-006	0.00000E+000	8.30690E-004	-3.27687E+002	7	...........
	106	107	3.90918E+000	1.50784E-006	0.00000E+000	5.89441E-006	0.00000E+000	8.33857E-004	-3.27687E+002	7	...........
	107	108	3.90916E+000	1.50886E-006	0.00000E+000	5.89839E-006	0.00000E+000	8.33207E-004	-3.27687E+002	7	...........
	108	109	3.90915E+000	1.50832E-006	0.00000E+000	5.89625E-006	0.00000E+000	8.33907E-004	-3.27687E+002	7	...........
	109	110	3.90913E+000	1.50783E-006	0.00000E+000	5.89432E-006	0.00000E+000	8.30757E-004	-3.27687E+002	7	...........
	110	111	3.90910E+000	1.50835E-006	0.00000E+000	5.89630E-006	0.00000E+000	8.32707E-004	-3.27687E+002	7	...........
	111	112	3.90909E+000	1.50855E-006	0.00000E+000	5.89707E-006	0.00000E+000	8.33224E-004	-3.27687E+002	7	...........
	112	113	3.90907E+000	1.50913E-006	0.00000E+000	5.89930E-006	0.00000E+000	8.33157E-004	-3.27687E+002	7	...........
	113	114	3.90905E+000	1.50821E-006	0.00000E+000	5.89568E-006	0.00000E+000	8.33940E-004	-3.27687E+002	7	...........
	114	115	3.90905E+000	1.50882E-006	0.00000E+000	5.89804E-006	0.00000E+000	8.30790E-004	-3.27687E+002	7	...........
	115	116	3.90903E+000	1.50887E-006	0.00000E+000	5.89822E-006	0.00000E+000	8.33007E-004	-3.27687E+002	7	...........
	116	117	3.90900E+000	1.50866E-006	0.00000E+000	5.89737E-006	0.00000E+000	8.34990E-004	-3.27687E+002	7	...........
	117	118	3.90899E+000	1.50878E-006	0.00000E+000	5.89780E-006	0.00000E+000	8.34807E-004	-3.27687E+002	7	...........
	118	119	3.90896E+000	1.50926E-006	0.00000E+000	5.89963E-006	0.00000E+000	8.35157E-004	-3.27687E+002	7	...........
	119	120	3.90895E+000	1.50947E-006	0.00000E+000	5.90042E-006	0.00000E+000	8.35074E-004	-3.27687E+002	7	...........
	120	121	3.90893E+000	1.50916E-006	0.00000E+000	5.89922E-006	0.00000E+000	8.32590E-004	-3.27687E+002	7	...........
	121	122	3.90891E+000	1.50977E-006	0.00000E+000	5.90157E-006	0.00000E+000	8.35757E-004	-3.27687E+002	7	...........
	122	123	3.90890E+000	1.50964E-006	0.00000E+000	5.90105E-006	0.00000E+000	8.35090E-004	-3.27687E+002	7	...........
	123	124	3.90888E+000	1.50886E-006	0.00000E+000	5.89796E-006	0.00000E+000	8.30490E-004	-3.27687E+002	7	...........
	124	125	3.90886E+000	1.50949E-006	0.00000E+000	5.90041E-006	0.00000E+000	8.36357E-004	-3.27687E+002	7	...........
	125	126	3.90885E+000	1.50962E-006	0.00000E+000	5.90088E-006	0.00000E+000	8.34957E-004	-3.27687E+002	7	...........
	126	127	3.90883E+000	1.50927E-006	0.00000E+000	5.89948E-006	0.00000E+000	8.35040E-004	-3.27687E+002	7	...........
	127	128	3.90881E+000	1.50924E-006	0.00000E+000	5.89935E-006	0.00000E+000	8.32924E-004	-3.27687E+002	7	...........
	128	129	3.90880E+000	1.50970E-006	0.00000E+000	5.90109E-006	0.00000E+000	8.33174E-004	-3.27687E+002	7	...........
	129	130	3.90878E+000	1.50919E-006	0.00000E+000	5.89910E-006	0.00000E+000	8.32390E-004	-3.27687E+002	7	...........
	130	131	3.90877E+000	1.50908E-006	0.00000E+000	5.89866E-006	0.00000E+000	8.35174E-004	-3.27687E+002	7	...........
	131	132	3.90875E+000	1.50970E-006	0.00000E+000	5.90104E-006	0.00000E+000	8.33007E-004	-3.27687E+002	7	...........
	132	133	3.90874E+000	1.51082E-006	0.00000E+000	5.90539E-006	0.00000E+000	8.32057E-004	-3.27687E+002	7	...........
	133	134	3.90872E+000	1.51013E-006	0.00000E+000	5.90266E-006	0.00000E+000	8.32474E-004	-3.27687E+002	7	...........
	134	135	3.90870E+000	1.50992E-006	0.00000E+000	5.90184E-006	0.00000E+000	8.32157E-004	-3.27687E+002	7	...........
	135	136	3.90870E+000	1.51007E-006	0.00000E+000	5.90239E-006	0.00000E+000	8.31374E-004	-3.27687E+002	7	...........
	136	137	3.90868E+000	1.51056E-006	0.00000E+000	5.90427E-006	0.00000E+000	8.30857E-004	-3.27687E+002	7	...........
	137	138	3.90866E+000	1.51095E-006	0.00000E+000	5.90579E-006	0.00000E+000	8.32040E-004	-3.27687E+002	7	...........
	138	139	3.90864E+000	1.51115E-006	0.00000E+000	5.90656E-006	0.00000E+000	8.32590E-004	-3.27687E+002	7	...........
	139	140	3.90864E+000	1.51093E-006	0.00000E+000	5.90568E-006	0.00000E+000	8.29440E-004	-3.27687E+002	7	...........
	140	141	3.90862E+000	1.51087E-006	0.00000E+000	5.90542E-006	0.00000E+000	8.31057E-004	-3.27687E+002	7	...........
	141	142	3.90861E+000	1.51029E-006	0.00000E+000	5.90316E-006	0.00000E+000	8.32857E-004	-3.27687E+002	7	...........
	142	143	3.90860E+000	1.51041E-006	0.00000E+000	5.90358E-006	0.00000E+000	8.29990E-004	-3.27687E+002	7	...........
	143	144	3.90858E+000	1.51029E-006	0.00000E+000	5.90307E-006	0.00000E+000	8.33274E-004	-3.27687E+002	7	...........
	144	145	3.90856E+000	1.51083E-006	0.00000E+000	5.90518E-006	0.00000E+000	8.32390E-004	-3.27687E+002	7	...........
	145	146	3.90855E+000	1.51146E-006	0.00000E+000	5.90761E-006	0.00000E+000	8.32557E-004	-3.27687E+002	7	...........
	146	147	3.90854E+000	1.51071E-006	0.00000E+000	5.90469E-006	0.00000E+000	8.31824E-004	-3.27687E+002	7	...........
	147	148	3.90853E+000	1.51070E-006	0.00000E+000	5.90463E-006	0.00000E+000	8.32224E-004	-3.27687E+002	7	...........
	148	149	3.90851E+000	1.51146E-006	0.00000E+000	5.90757E-006	0.00000E+000	8.33590E-004	-3.27687E+002	7	...........
	149	150	3.90849E+000	1.51136E-006	0.00000E+000	5.90715E-006	0.00000E+000	8.33090E-004	-3.27687E+002	7	...........
	150	151	3.90849E+000	1.51151E-006	0.00000E+000	5.90771E-006	0.00000E+000	8.32207E-004	-3.27687E+002	7	...........
	151	152	3.90847E+000	1.51096E-006	0.00000E+000	5.90554E-006	0.00000E+000	8.33507E-004	-3.27687E+002	7	...........
	152	153	3.90847E+000	1.51067E-006	0.00000E+000	5.90441E-006	0.00000E+000	8.29340E-004	-3.27687E+002	7	...........
	153	154	3.90845E+000	1.50979E-006	0.00000E+000	5.90094E-006	0.00000E+000	8.32590E-004	-3.27687E+002	7	...........
	154	155	3.90844E+000	1.51014E-006	0.00000E+000	5.90230E-006	0.00000E+000	8.34474E-004	-3.27687E+002	7	...........
	155	156	3.90843E+000	1.50990E-006	0.00000E+000	5.90135E-006	0.00000E+000	8.29840E-004	-3.27687E+002	7	...........
	156	157	3.90841E+000	1.51021E-006	0.00000E+000	5.90252E-006	0.00000E+000	8.33607E-004	-3.27687E+002	7	...........
	157	158	3.90841E+000	1.51183E-006	0.00000E+000	5.90885E-006	0.00000E+000	8.33774E-004	-3.27687E+002	7	...........
	158	159	3.90840E+000	1.51166E-006	0.00000E+000	5.90815E-006	0.00000E+000	8.29574E-004	-3.27687E+002	7	...........
	159	160	3.90838E+000	1.51099E-006	0.00000E+000	5.90552E-006	0.00000E+000	8.29724E-004	-3.27687E+002	7	...........
	160	161	3.90837E+000	1.51127E-006	0.00000E+000	5.90660E-006	0.00000E+000	8.30124E-004	-3.27687E+002	7	...........
	161	162	3.90836E+000	1.51094E-006	0.00000E+000	5.90531E-006	0.00000E+000	8.29724E-004	-3.27687E+002	7	...........
	162	163	3.90835E+000	1.51157E-006	0.00000E+000	5.90774E-006	0.00000E+000	8.28974E-004	-3.27687E+002	7	...........
	163	164	3.90834E+000	1.51174E-006	0.00000E+000	5.90837E-006	0.00000E+000	8.30340E-004	-3.27687E+002	7	...........
	164	165	3.90832E+000	1.51187E-006	0.00000E+000	5.90887E-006	0.00000E+000	8.31674E-004	-3.27687E+002	7	...........
	165	166	3.90831E+000	1.51113E-006	0.00000E+000	5.90598E-006	0.00000E+000	8.30440E-004	-3.27687E+002	7	...........
	166	167	3.90831E+000	1.51139E-006	0.00000E+000	5.90698E-006	0.00000E+000	8.32307E-004	-3.27687E+002	7	...........
	167	168	3.90829E+000	1.51145E-006	0.00000E+000	5.90718E-006	0.00000E+000	8.31190E-004	-3.27687E+002	7	...........
	168	169	3.90828E+000	1.51166E-006	0.00000E+000	5.90800E-006	0.00000E+000	8.31224E-004	-3.27687E+002	7	...........
	169	170	3.90826E+000	1.51239E-006	0.00000E+000	5.91083E-006	0.00000E+000	8.31657E-004	-3.27687E+002	7	...........
	170	171	3.90825E+000	1.51194E-006	0.00000E+000	5.90906E-006	0.00000E+000	8.31307E-004	-3.27687E+002	7	...........
	171	172	3.90824E+000	1.51145E-006	0.00000E+000	5.90711E-006	0.00000E+000	8.28040E-004	-3.27687E+002	7	...........
	172	173	3.90823E+000	1.51140E-006	0.00000E+000	5.90689E-006	0.00000E+000	8.31040E-004	-3.27687E+002	7	...........
	173	174	3.90821E+000	1.51139E-006	0.00000E+000	5.90684E-006	0.00000E+000	8.30457E-004	-3.27687E+002	7	...........
	174	175	3.90821E+000	1.51166E-006	0.00000E+000	5.90788E-006	0.00000E+000	8.33607E-004	-3.27687E+002	7	...........
	175	176	3.90820E+000	1.51236E-006	0.00000E+000	5.91061E-006	0.00000E+000	8.32674E-004	-3.27687E+002	7	...........
	176	177	3.90818E+000	1.51163E-006	0.00000E+000	5.90772E-006	0.00000E+000	8.28374E-004	-3.27687E+002	7	...........
	177	178	3.90817E+000	1.51181E-006	0.00000E+000	5.90839E-006	0.00000E+000	8.30890E-004	-3.27687E+002	7	...........
	178	179	3.90817E+000	1.51182E-006	0.00000E+000	5.90845E-006	0.00000E+000	8.32757E-004	-3.27687E+002	7	...........
	179	180	3.90816E+000	1.51111E-006	0.00000E+000	5.90567E-006	0.00000E+000	8.30940E-004	-3.27687E+002	7	...........
	180	181	3.90814E+000	1.51123E-006	0.00000E+000	5.90612E-006	0.00000E+000	8.30790E-004	-3.27687E+002	7	...........
	181	182	3.90813E+000	1.51171E-006	0.00000E+000	5.90796E-006	0.00000E+000	8.29640E-004	-3.27687E+002	7	...........
	182	183	3.90812E+000	1.51231E-006	0.00000E+000	5.91028E-006	0.00000E+000	8.27640E-004	-3.27687E+002	7	...........
	183	184	3.90811E+000	1.51182E-006	0.00000E+000	5.90836E-006	0.00000E+000	8.29024E-004	-3.27687E+002	7	...........
	184	185	3.90809E+000	1.51188E-006	0.00000E+000	5.90858E-006	0.00000E+000	8.31024E-004	-3.27687E+002	7	...........
	185	186	3.90808E+000	1.51234E-006	0.00000E+000	5.91034E-006	0.00000E+000	8.31390E-004	-3.27687E+002	7	...........
	186	187	3.90807E+000	1.51220E-006	0.00000E+000	5.90980E-006	0.00000E+000	8.33574E-004	-3.27687E+002	7	...........
	187	188	3.90806E+000	1.51230E-006	0.00000E+000	5.91014E-006	0.00000E+000	8.30757E-004	-3.27687E+002	7	...........
	188	189	3.90806E+000	1.51241E-006	0.00000E+000	5.91060E-006	0.00000E+000	8.30424E-004	-3.27687E+002	7	...........
	189	190	3.90804E+000	1.51157E-006	0.00000E+000	5.90727E-006	0.00000E+000	8.30940E-004	-3.27687E+002	7	...........
	190	191	3.90803E+000	1.51213E-006	0.00000E+000	5.90947E-006	0.00000E+000	8.29540E-004	-3.27687E+002	7	...........
	191	192	3.90802E+000	1.51188E-006	0.00000E+000	5.90846E-006	0.00000E+000	8.30057E-004	-3.27687E+002	7	...........
	192	193	3.90800E+000	1.51177E-006	0.00000E+000	5.90801E-006	0.00000E+000	8.32724E-004	-3.27687E+002	7	...........
	193	194	3.90798E+000	1.51207E-006	0.00000E+000	5.90914E-006	0.00000E+000	8.28607E-004	-3.27687E+002	7	...........
	194	195	3.90798E+000	1.51229E-006	0.00000E+000	5.90998E-006	0.00000E+000	8.32524E-004	-3.27687E+002	7	...........
	195	196	3.90796E+000	1.51201E-006	0.00000E+000	5.90889E-006	0.00000E+000	8.26790E-004	-3.27687E+002	7	...........
	196	197	3.90795E+000	1.51189E-006	0.00000E+000	5.90842E-006	0.00000E+000	8.29340E-004	-3.27687E+002	7	...........
	197	198	3.90794E+000	1.51144E-006	0.00000E+000	5.90661E-006	0.00000E+000	8.30340E-004	-3.27687E+002	7	...........
	198	199	3.90794E+000	1.51230E-006	0.00000E+000	5.90997E-006	0.00000E+000	8.30507E-004	-3.27687E+002	7	...........
	199	200	3.90794E+000	1.51186E-006	0.00000E+000	5.90826E-006	0.00000E+000	8.28357E-004	-3.27687E+002	7	...........
	200	201	3.90792E+000	1.51203E-006	0.00000E+000	5.90890E-006	0.00000E+000	8.27707E-004	-3.27687E+002	7	...........
	201	202	3.90790E+000	1.51236E-006	0.00000E+000	5.91013E-006	0.00000E+000	8.28274E-004	-3.27687E+002	7	...........
	202	203	3.90789E+000	1.51254E-006	0.00000E+000	5.91083E-006	0.00000E+000	8.29540E-004	-3.27687E+002	7	...........
	203	204	3.90788E+000	1.51190E-006	0.00000E+000	5.90833E-006	0.00000E+000	8.26440E-004	-3.27687E+002	7	...........
	204	205	3.90787E+000	1.51176E-006	0.00000E+000	5.90777E-006	0.00000E+000	8.27657E-004	-3.27687E+002	7	...........
	205	206	3.90786E+000	1.51178E-006	0.00000E+000	5.90783E-006	0.00000E+000	8.31907E-004	-3.27687E+002	7	...........
	206	207	3.90786E+000	1.51217E-006	0.00000E+000	5.90934E-006	0.00000E+000	8.28307E-004	-3.27687E+002	7	...........
	207	208	3.90785E+000	1.51337E-006	0.00000E+000	5.91401E-006	0.00000E+000	8.28757E-004	-3.27687E+002	7	...........
	208	209	3.90783E+000	1.51217E-006	0.00000E+000	5.90931E-006	0.00000E+000	8.28924E-004	-3.27687E+002	7	...........
	209	210	3.90783E+000	1.51198E-006	0.00000E+000	5.90854E-006	0.00000E+000	8.29957E-004	-3.27687E+002	7	...........
	210	211	3.90780E+000	1.51183E-006	0.00000E+000	5.90795E-006	0.00000E+000	8.29424E-004	-3.27687E+002	7	...........
	211	212	3.90780E+000	1.51209E-006	0.00000E+000	5.90896E-006	0.00000E+000	8.30757E-004	-3.27687E+002	7	...........
	212	213	3.90780E+000	1.51254E-006	0.00000E+000	5.91070E-006	0.00000E+000	8.29974E-004	-3.27687E+002	7	...........
	213	214	3.90779E+000	1.51228E-006	0.00000E+000	5.90969E-006	0.00000E+000	8.24807E-004	-3.27687E+002	7	...........
	214	215	3.90776E+000	1.51196E-006	0.00000E+000	5.90839E-006	0.00000E+000	8.30590E-004	-3.27687E+002	7	...........
	215	216	3.90775E+000	1.51201E-006	0.00000E+000	5.90856E-006	0.00000E+000	8.29540E-004	-3.27687E+002	7	...........
	216	217	3.90775E+000	1.51188E-006	0.00000E+000	5.90806E-006	0.00000E+000	8.30407E-004	-3.27687E+002	7	...........
	217	218	3.90773E+000	1.51235E-006	0.00000E+000	5.90985E-006	0.00000E+000	8.31024E-004	-3.27687E+002	7	...........
	218	219	3.90773E+000	1.51152E-006	0.00000E+000	5.90662E-006	0.00000E+000	8.31607E-004	-3.27687E+002	7	...........
	219	220	3.90771E+000	1.51308E-006	0.00000E+000	5.91267E-006	0.00000E+000	8.30507E-004	-3.27687E+002	7	...........
	220	221	3.90771E+000	1.51242E-006	0.00000E+000	5.91010E-006	0.00000E+000	8.32140E-004	-3.27687E+002	7	...........
	221	222	3.90770E+000	1.51267E-006	0.00000E+000	5.91108E-006	0.00000E+000	8.32007E-004	-3.27687E+002	7	...........
	222	223	3.90769E+000	1.51218E-006	0.00000E+000	5.90911E-006	0.00000E+000	8.31174E-004	-3.27687E+002	7	...........
	223	224	3.90769E+000	1.51233E-006	0.00000E+000	5.90971E-006	0.00000E+000	8.29507E-004	-3.27687E+002	7	...........
	224	225	3.90767E+000	1.51269E-006	0.00000E+000	5.91111E-006	0.00000E+000	8.27357E-004	-3.27687E+002	7	...........
	225	226	3.90767E+000	1.51296E-006	0.00000E+000	5.91216E-006	0.00000E+000	8.27224E-004	-3.27687E+002	7	...........
	226	227	3.90766E+000	1.51232E-006	0.00000E+000	5.90963E-006	0.00000E+000	8.31657E-004	-3.27687E+002	7	...........
	227	228	3.90764E+000	1.51240E-006	0.00000E+000	5.90993E-006	0.00000E+000	8.31307E-004	-3.27687E+002	7	...........
	228	229	3.90763E+000	1.51232E-006	0.00000E+000	5.90960E-006	0.00000E+000	8.33090E-004	-3.27687E+002	7	...........
	229	230	3.90762E+000	1.51209E-006	0.00000E+000	5.90867E-006	0.00000E+000	8.31474E-004	-3.27687E+002	7	...........
	230	231	3.90761E+000	1.51216E-006	0.00000E+000	5.90895E-006	0.00000E+000	8.27524E-004	-3.27687E+002	7	...........
	231	232	3.90760E+000	1.51278E-006	0.00000E+000	5.91132E-006	0.00000E+000	8.29007E-004	-3.27687E+002	7	...........
	232	233	3.90759E+000	1.51296E-006	0.00000E+000	5.91202E-006	0.00000E+000	8.30540E-004	-3.27687E+002	7	...........
	233	234	3.90758E+000	1.51223E-006	0.00000E+000	5.90917E-006	0.00000E+000	8.28224E-004	-3.27687E+002	7	...........
	234	235	3.90757E+000	1.51192E-006	0.00000E+000	5.90796E-006	0.00000E+000	8.30807E-004	-3.27687E+002	7	...........
	235	236	3.90756E+000	1.51181E-006	0.00000E+000	5.90748E-006	0.00000E+000	8.30457E-004	-3.27687E+002	7	...........
	236	237	3.90756E+000	1.51226E-006	0.00000E+000	5.90924E-006	0.00000E+000	8.30174E-004	-3.27687E+002	7	...........
	237	238	3.90755E+000	1.51249E-006	0.00000E+000	5.91012E-006	0.00000E+000	8.30140E-004	-3.27687E+002	7	...........
	238	239	3.90754E+000	1.51249E-006	0.00000E+000	5.91013E-006	0.00000E+000	8.31557E-004	-3.27687E+002	7	...........
	239	240	3.90753E+000	1.51209E-006	0.00000E+000	5.90852E-006	0.00000E+000	8.29140E-004	-3.27687E+002	7	...........
	240	241	3.90752E+000	1.51177E-006	0.00000E+000	5.90726E-006	0.00000E+000	8.29407E-004	-3.27687E+002	7	...........
	241	242	3.90751E+000	1.51196E-006	0.00000E+000	5.90798E-006	0.00000E+000	8.30890E-004	-3.27687E+002	7	...........
	242	243	3.90751E+000	1.51225E-006	0.00000E+000	5.90913E-006	0.00000E+000	8.29057E-004	-3.27687E+002	7	...........
	243	244	3.90750E+000	1.51264E-006	0.00000E+000	5.91064E-006	0.00000E+000	8.31574E-004	-3.27687E+002	7	...........
	244	245	3.90748E+000	1.51343E-006	0.00000E+000	5.91371E-006	0.00000E+000	8.29607E-004	-3.27687E+002	7	...........
	245	246	3.90748E+000	1.51265E-006	0.00000E+000	5.91066E-006	0.00000E+000	8.33890E-004	-3.27687E+002	7	...........
	246	247	3.90747E+000	1.51237E-006	0.00000E+000	5.90953E-006	0.00000E+000	8.31624E-004	-3.27687E+002	7	...........
	247	248	3.90745E+000	1.51195E-006	0.00000E+000	5.90788E-006	0.00000E+000	8.30124E-004	-3.27687E+002	7	...........
	248	249	3.90745E+000	1.51229E-006	0.00000E+000	5.90919E-006	0.00000E+000	8.31090E-004	-3.27687E+002	7	...........
	249	250	3.90744E+000	1.51271E-006	0.00000E+000	5.91083E-006	0.00000E+000	8.29824E-004	-3.27687E+002	7	...........
	250	251	3.90742E+000	1.51281E-006	0.00000E+000	5.91120E-006	0.00000E+000	8.29357E-004	-3.27687E+002	7	...........
	251	252	3.90742E+000	1.51224E-006	0.00000E+000	5.90897E-006	0.00000E+000	8.30257E-004	-3.27687E+002	7	...........
	252	253	3.90740E+000	1.51276E-006	0.00000E+000	5.91097E-006	0.00000E+000	8.28840E-004	-3.27687E+002	7	...........
	253	254	3.90741E+000	1.51299E-006	0.00000E+000	5.91187E-006	0.00000E+000	8.29707E-004	-3.27687E+002	7	...........
	254	255	3.90739E+000	1.51218E-006	0.00000E+000	5.90867E-006	0.00000E+000	8.32074E-004	-3.27687E+002	7	...........
	255	256	3.90739E+000	1.51288E-006	0.00000E+000	5.91143E-006	0.00000E+000	8.28957E-004	-3.27687E+002	7	...........
	256	257	3.90738E+000	1.51293E-006	0.00000E+000	5.91158E-006	0.00000E+000	8.34857E-004	-3.27687E+002	7	...........
	257	258	3.90738E+000	1.51353E-006	0.00000E+000	5.91391E-006	0.00000E+000	8.31840E-004	-3.27687E+002	7	...........
	258	259	3.90737E+000	1.51302E-006	0.00000E+000	5.91191E-006	0.00000E+000	8.28790E-004	-3.27687E+002	7	...........
	259	260	3.90736E+000	1.51324E-006	0.00000E+000	5.91276E-006	0.00000E+000	8.29374E-004	-3.27687E+002	7	...........
	260	261	3.90735E+000	1.51326E-006	0.00000E+000	5.91285E-006	0.00000E+000	8.29657E-004	-3.27687E+002	7	...........
	261	262	3.90733E+000	1.51372E-006	0.00000E+000	5.91462E-006	0.00000E+000	8.31857E-004	-3.27687E+002	7	...........
	262	263	3.90733E+000	1.51357E-006	0.00000E+000	5.91402E-006	0.00000E+000	8.30807E-004	-3.27687E+002	7	...........
	263	264	3.90732E+000	1.51285E-006	0.00000E+000	5.91118E-006	0.00000E+000	8.30224E-004	-3.27687E+002	7	...........
	264	265	3.90731E+000	1.51354E-006	0.00000E+000	5.91389E-006	0.00000E+000	8.29607E-004	-3.27687E+002	7	...........
	265	266	3.90731E+000	1.51301E-006	0.00000E+000	5.91178E-006	0.00000E+000	8.29640E-004	-3.27687E+002	7	...........
	266	267	3.90730E+000	1.51277E-006	0.00000E+000	5.91084E-006	0.00000E+000	8.30640E-004	-3.27687E+002	7	...........
	267	268	3.90729E+000	1.51315E-006	0.00000E+000	5.91233E-006	0.00000E+000	8.31840E-004	-3.27687E+002	7	...........
	268	269	3.90728E+000	1.51394E-006	0.00000E+000	5.91539E-006	0.00000E+000	8.28124E-004	-3.27687E+002	7	...........
	269	270	3.90728E+000	1.51456E-006	0.00000E+000	5.91779E-006	0.00000E+000	8.29340E-004	-3.27687E+002	7	...........
	270	271	3.90726E+000	1.51396E-006	0.00000E+000	5.91543E-006	0.00000E+000	8.31224E-004	-3.27687E+002	7	...........
	271	272	3.90725E+000	1.51333E-006	0.00000E+000	5.91297E-006	0.00000E+000	8.30407E-004	-3.27687E+002	7	...........
	272	273	3.90724E+000	1.51351E-006	0.00000E+000	5.91366E-006	0.00000E+000	8.30490E-004	-3.27687E+002	7	...........
	273	274	3.90724E+000	1.51408E-006	0.00000E+000	5.91586E-006	0.00000E+000	8.29440E-004	-3.27687E+002	7	...........
	274	275	3.90722E+000	1.51407E-006	0.00000E+000	5.91581E-006	0.00000E+000	8.30690E-004	-3.27687E+002	7	...........
	275	276	3.90722E+000	1.51390E-006	0.00000E+000	5.91514E-006	0.00000E+000	8.32057E-004	-3.27687E+002	7	...........
	276	277	3.90722E+000	1.51381E-006	0.00000E+000	5.91477E-006	0.00000E+000	8.31840E-004	-3.27687E+002	7	...........
	277	278	3.90721E+000	1.51358E-006	0.00000E+000	5.91389E-006	0.00000E+000	8.29740E-004	-3.27687E+002	7	...........
	278	279	3.90720E+000	1.51317E-006	0.00000E+000	5.91227E-006	0.00000E+000	8.31490E-004	-3.27687E+002	7	...........
	279	280	3.90720E+000	1.51330E-006	0.00000E+000	5.91279E-006	0.00000E+000	8.30140E-004	-3.27687E+002	7	...........
	280	281	3.90720E+000	1.51368E-006	0.00000E+000	5.91424E-006	0.00000E+000	8.27607E-004	-3.27687E+002	7	...........
	281	282	3.90718E+000	1.51340E-006	0.00000E+000	5.91313E-006	0.00000E+000	8.29040E-004	-3.27687E+002	7	...........
	282	283	3.90717E+000	1.51420E-006	0.00000E+000	5.91625E-006	0.00000E+000	8.29940E-004	-3.27687E+002	7	...........
	283	284	3.90717E+000	1.51346E-006	0.00000E+000	5.91333E-006	0.00000E+000	8.28807E-004	-3.27687E+002	7	...........
	284	285	3.90715E+000	1.51355E-006	0.00000E+000	5.91365E-006	0.00000E+000	8.27524E-004	-3.27687E+002	7	...........
	285	286	3.90714E+000	1.51337E-006	0.00000E+000	5.91294E-006	0.00000E+000	8.30924E-004	-3.27687E+002	7	...........
	286	287	3.90714E+000	1.51429E-006	0.00000E+000	5.91653E-006	0.00000E+000	8.27040E-004	-3.27687E+002	7	...........
	287	288	3.90713E+000	1.51415E-006	0.00000E+000	5.91600E-006	0.00000E+000	8.28757E-004	-3.27687E+002	7	...........
	288	289	3.90713E+000	1.51372E-006	0.00000E+000	5.91430E-006	0.00000E+000	8.28224E-004	-3.27687E+002	7	...........
	289	290	3.90712E+000	1.51377E-006	0.00000E+000	5.91446E-006	0.00000E+000	8.29440E-004	-3.27687E+002	7	...........
	290	291	3.90711E+000	1.51380E-006	0.00000E+000	5.91459E-006	0.00000E+000	8.32074E-004	-3.27687E+002	7	...........
	291	292	3.90710E+000	1.51368E-006	0.00000E+000	5.91412E-006	0.00000E+000	8.30807E-004	-3.27687E+002	7	...........
	292	293	3.90709E+000	1.51365E-006	0.00000E+000	5.91398E-006	0.00000E+000	8.28907E-004	-3.27687E+002	7	...........
	293	294	3.90709E+000	1.51414E-006	0.00000E+000	5.91588E-006	0.00000E+000	8.31474E-004	-3.27687E+002	7	...........
	294	295	3.90708E+000	1.51482E-006	0.00000E+000	5.91851E-006	0.00000E+000	8.29857E-004	-3.27687E+002	7	...........
	295	296	3.90708E+000	1.51430E-006	0.00000E+000	5.91647E-006	0.00000E+000	8.29057E-004	-3.27687E+002	7	...........
	296	297	3.90707E+000	1.51407E-006	0.00000E+000	5.91557E-006	0.00000E+000	8.33307E-004	-3.27687E+002	7	...........
	297	298	3.90706E+000	1.51397E-006	0.00000E+000	5.91516E-006	0.00000E+000	8.29740E-004	-3.27687E+002	7	...........
	298	299	3.90706E+000	1.51403E-006	0.00000E+000	5.91539E-006	0.00000E+000	8.32990E-004	-3.27687E+002	7	...........
	299	300	3.90704E+000	1.51438E-006	0.00000E+000	5.91675E-006	0.00000E+000	8.26940E-004	-3.27687E+002	7	...........
	300	301	3.90703E+000	1.51436E-006	0.00000E+000	5.91667E-006	0.00000E+000	8.28874E-004	-3.27687E+002	7	...........
	301	302	3.90703E+000	1.51428E-006	0.00000E+000	5.91634E-006	0.00000E+000	8.29074E-004	-3.27687E+002	7	...........
	302	303	3.90702E+000	1.51391E-006	0.00000E+000	5.91489E-006	0.00000E+000	8.27607E-004	-3.27687E+002	7	...........
	303	304	3.90702E+000	1.51377E-006	0.00000E+000	5.91433E-006	0.00000E+000	8.29640E-004	-3.27687E+002	7	...........
	304	305	3.90700E+000	1.51305E-006	0.00000E+000	5.91149E-006	0.00000E+000	8.27990E-004	-3.27687E+002	7	...........
	305	306	3.90701E+000	1.51352E-006	0.00000E+000	5.91333E-006	0.00000E+000	8.24574E-004	-3.27687E+002	7	...........
	306	307	3.90700E+000	1.51374E-006	0.00000E+000	5.91417E-006	0.00000E+000	8.27090E-004	-3.27687E+002	7	...........
	307	308	3.90698E+000	1.51391E-006	0.00000E+000	5.91482E-006	0.00000E+000	8.28724E-004	-3.27687E+002	7	...........
	308	309	3.90698E+000	1.51387E-006	0.00000E+000	5.91465E-006	0.00000E+000	8.28424E-004	-3.27687E+002	7	...........
	309	310	3.90697E+000	1.51346E-006	0.00000E+000	5.91303E-006	0.00000E+000	8.29690E-004	-3.27687E+002	7	...........
	310	311	3.90697E+000	1.51333E-006	0.00000E+000	5.91252E-006	0.00000E+000	8.30757E-004	-3.27687E+002	7	...........
	311	312	3.90696E+000	1.51417E-006	0.00000E+000	5.91579E-006	0.00000E+000	8.28174E-004	-3.27687E+002	7	...........
	312	313	3.90696E+000	1.51393E-006	0.00000E+000	5.91487E-006	0.00000E+000	8.26824E-004	-3.27687E+002	7	...........
	313	314	3.90695E+000	1.51357E-006	0.00000E+000	5.91344E-006	0.00000E+000	8.26624E-004	-3.27687E+002	7	...........
	314	315	3.90694E+000	1.51365E-006	0.00000E+000	5.91374E-006	0.00000E+000	8.27674E-004	-3.27687E+002	7	...........
	315	316	3.90693E+000	1.51372E-006	0.00000E+000	5.91398E-006	0.00000E+000	8.26940E-004	-3.27687E+002	7	...........
	316	317	3.90692E+000	1.51275E-006	0.00000E+000	5.91020E-006	0.00000E+000	8.29490E-004	-3.27687E+002	7	...........
	317	318	3.90691E+000	1.51311E-006	0.00000E+000	5.91158E-006	0.00000E+000	8.28607E-004	-3.27687E+002	7	...........
	318	319	3.90691E+000	1.51381E-006	0.00000E+000	5.91431E-006	0.00000E+000	8.27124E-004	-3.27687E+002	7	...........
	319	320	3.90691E+000	1.51449E-006	0.00000E+000	5.91696E-006	0.00000E+000	8.26957E-004	-3.27687E+002	7	...........
	320	321	3.90690E+000	1.51393E-006	0.00000E+000	5.91477E-006	0.00000E+000	8.25640E-004	-3.27687E+002	7	...........
	321	322	3.90689E+000	1.51353E-006	0.00000E+000	5.91321E-006	0.00000E+000	8.26857E-004	-3.27687E+002	7	...........
	322	323	3.90688E+000	1.51358E-006	0.00000E+000	5.91335E-006	0.00000E+000	8.23574E-004	-3.27687E+002	7	...........
	323	324	3.90688E+000	1.51410E-006	0.00000E+000	5.91539E-006	0.00000E+000	8.29290E-004	-3.27687E+002	7	...........
	324	325	3.90687E+000	1.51386E-006	0.00000E+000	5.91444E-006	0.00000E+000	8.23057E-004	-3.27687E+002	7	...........
	325	326	3.90686E+000	1.51404E-006	0.00000E+000	5.91514E-006	0.00000E+000	8.27207E-004	-3.27687E+002	7	...........
	326	327	3.90686E+000	1.51419E-006	0.00000E+000	5.91572E-006	0.00000E+000	8.28057E-004	-3.27687E+002	7	...........
	327	328	3.90685E+000	1.51376E-006	0.00000E+000	5.91405E-006	0.00000E+000	8.28207E-004	-3.27687E+002	7	...........
	328	329	3.90685E+000	1.51379E-006	0.00000E+000	5.91413E-006	0.00000E+000	8.27474E-004	-3.27687E+002	7	...........
	329	330	3.90685E+000	1.51399E-006	0.00000E+000	5.91492E-006	0.00000E+000	8.26174E-004	-3.27687E+002	7	...........
	330	331	3.90684E+000	1.51415E-006	0.00000E+000	5.91554E-006	0.00000E+000	8.28090E-004	-3.27687E+002	7	...........
	331	332	3.90684E+000	1.51470E-006	0.00000E+000	5.91770E-006	0.00000E+000	8.29407E-004	-3.27687E+002	7	...........
	332	333	3.90683E+000	1.51438E-006	0.00000E+000	5.91642E-006	0.00000E+000	8.25324E-004	-3.27687E+002	7	...........
	333	334	3.90682E+000	1.51369E-006	0.00000E+000	5.91370E-006	0.00000E+000	8.25874E-004	-3.27687E+002	7	...........
	334	335	3.90682E+000	1.51407E-006	0.00000E+000	5.91520E-006	0.00000E+000	8.27107E-004	-3.27687E+002	7	...........
	335	336	3.90680E+000	1.51409E-006	0.00000E+000	5.91524E-006	0.00000E+000	8.23757E-004	-3.27687E+002	7	...........
	336	337	3.90680E+000	1.51437E-006	0.00000E+000	5.91633E-006	0.00000E+000	8.27157E-004	-3.27687E+002	7	...........
	337	338	3.90680E+000	1.51392E-006	0.00000E+000	5.91458E-006	0.00000E+000	8.24607E-004	-3.27687E+002	7	...........
	338	339	3.90679E+000	1.51469E-006	0.00000E+000	5.91759E-006	0.00000E+000	8.25624E-004	-3.27687E+002	7	...........
	339	340	3.90679E+000	1.51396E-006	0.00000E+000	5.91472E-006	0.00000E+000	8.24424E-004	-3.27687E+002	7	...........
	340	341	3.90678E+000	1.51372E-006	0.00000E+000	5.91376E-006	0.00000E+000	8.24274E-004	-3.27687E+002	7	...........
	341	342	3.90677E+000	1.51336E-006	0.00000E+000	5.91234E-006	0.00000E+000	8.24757E-004	-3.27687E+002	7	...........
	342	343	3.90678E+000	1.51399E-006	0.00000E+000	5.91483E-006	0.00000E+000	8.26374E-004	-3.27687E+002	7	...........
	343	344	3.90677E+000	1.51435E-006	0.00000E+000	5.91623E-006	0.00000E+000	8.26907E-004	-3.27687E+002	7	...........
	344	345	3.90676E+000	1.51443E-006	0.00000E+000	5.91653E-006	0.00000E+000	8.23840E-004	-3.27687E+002	7	...........
	345	346	3.90676E+000	1.51395E-006	0.00000E+000	5.91465E-006	0.00000E+000	8.25924E-004	-3.27687E+002	7	...........
	346	347	3.90675E+000	1.51357E-006	0.00000E+000	5.91313E-006	0.00000E+000	8.24824E-004	-3.27687E+002	7	...........
	347	348	3.90674E+000	1.51342E-006	0.00000E+000	5.91255E-006	0.00000E+000	8.28707E-004	-3.27687E+002	7	...........
	348	349	3.90674E+000	1.51407E-006	0.00000E+000	5.91508E-006	0.00000E+000	8.26657E-004	-3.27687E+002	7	...........
	349	350	3.90673E+000	1.51385E-006	0.00000E+000	5.91418E-006	0.00000E+000	8.26374E-004	-3.27687E+002	7	...........
	350	351	3.90672E+000	1.51395E-006	0.00000E+000	5.91460E-006	0.00000E+000	8.28124E-004	-3.27687E+002	7	...........
	351	352	3.90672E+000	1.51409E-006	0.00000E+000	5.91514E-006	0.00000E+000	8.29407E-004	-3.27687E+002	7	...........
	352	353	3.90671E+000	1.51362E-006	0.00000E+000	5.91329E-006	0.00000E+000	8.26457E-004	-3.27687E+002	7	...........
	353	354	3.90670E+000	1.51285E-006	0.00000E+000	5.91026E-006	0.00000E+000	8.26224E-004	-3.27687E+002	7	...........
	354	355	3.90670E+000	1.51336E-006	0.00000E+000	5.91224E-006	0.00000E+000	8.22974E-004	-3.27687E+002	7	...........
	355	356	3.90670E+000	1.51358E-006	0.00000E+000	5.91309E-006	0.00000E+000	8.23090E-004	-3.27687E+002	7	...........
	356	357	3.90669E+000	1.51411E-006	0.00000E+000	5.91514E-006	0.00000E+000	8.23257E-004	-3.27687E+002	7	...........
	357	358	3.90669E+000	1.51423E-006	0.00000E+000	5.91561E-006	0.00000E+000	8.21790E-004	-3.27687E+002	7	...........
	358	359	3.90668E+000	1.51357E-006	0.00000E+000	5.91304E-006	0.00000E+000	8.26107E-004	-3.27687E+002	7	...........
	359	360	3.90667E+000	1.51408E-006	0.00000E+000	5.91502E-006	0.00000E+000	8.24524E-004	-3.27687E+002	7	...........
	360	361	3.90667E+000	1.51392E-006	0.00000E+000	5.91438E-006	0.00000E+000	8.22840E-004	-3.27687E+002	7	...........
	361	362	3.90666E+000	1.51444E-006	0.00000E+000	5.91642E-006	0.00000E+000	8.20657E-004	-3.27687E+002	7	...........
	362	363	3.90666E+000	1.51421E-006	0.00000E+000	5.91549E-006	0.00000E+000	8.21957E-004	-3.27687E+002	7	...........
	363	364	3.90666E+000	1.51369E-006	0.00000E+000	5.91346E-006	0.00000E+000	8.22957E-004	-3.27687E+002	7	...........
	364	365	3.90665E+000	1.51407E-006	0.00000E+000	5.91494E-006	0.00000E+000	8.22724E-004	-3.27687E+002	7	...........
	365	366	3.90664E+000	1.51337E-006	0.00000E+000	5.91218E-006	0.00000E+000	8.22324E-004	-3.27687E+002	7	...........
	366	367	3.90664E+000	1.51305E-006	0.00000E+000	5.91093E-006	0.00000E+000	8.22857E-004	-3.27687E+002	7	...........
	367	368	3.90663E+000	1.51369E-006	0.00000E+000	5.91343E-006	0.00000E+000	8.22874E-004	-3.27687E+002	7	...........
	368	369	3.90663E+000	1.51408E-006	0.00000E+000	5.91494E-006	0.00000E+000	8.21274E-004	-3.27687E+002	7	...........
	369	370	3.90663E+000	1.51458E-006	0.00000E+000	5.91690E-006	0.00000E+000	8.19190E-004	-3.27687E+002	7	...........
	370	371	3.90662E+000	1.51414E-006	0.00000E+000	5.91516E-006	0.00000E+000	8.22157E-004	-3.27687E+002	7	...........
	371	372	3.90660E+000	1.51429E-006	0.00000E+000	5.91574E-006	0.00000E+000	8.20207E-004	-3.27687E+002	7	...........
	372	373	3.90660E+000	1.51398E-006	0.00000E+000	5.91450E-006	0.00000E+000	8.23924E-004	-3.27687E+002	7	...........
	373	374	3.90660E+000	1.51423E-006	0.00000E+000	5.91548E-006	0.00000E+000	8.22240E-004	-3.27687E+002	7	...........
	374	375	3.90659E+000	1.51384E-006	0.00000E+000	5.91394E-006	0.00000E+000	8.25007E-004	-3.27687E+002	7	...........
	375	376	3.90659E+000	1.51473E-006	0.00000E+000	5.91743E-006	0.00000E+000	8.21207E-004	-3.27687E+002	7	...........
	376	377	3.90658E+000	1.51459E-006	0.00000E+000	5.91687E-006	0.00000E+000	8.24224E-004	-3.27687E+002	7	...........
	377	378	3.90657E+000	1.51430E-006	0.00000E+000	5.91571E-006	0.00000E+000	8.21874E-004	-3.27687E+002	7	...........
	378	379	3.90657E+000	1.51441E-006	0.00000E+000	5.91613E-006	0.00000E+000	8.21324E-004	-3.27687E+002	7	...........
	379	380	3.90656E+000	1.51458E-006	0.00000E+000	5.91682E-006	0.00000E+000	8.21990E-004	-3.27687E+002	7	...........
	380	381	3.90656E+000	1.51456E-006	0.00000E+000	5.91672E-006	0.00000E+000	8.20224E-004	-3.27687E+002	7	...........
	381	382	3.90656E+000	1.51480E-006	0.00000E+000	5.91765E-006	0.00000E+000	8.21190E-004	-3.27687E+002	7	...........
	382	383	3.90655E+000	1.51509E-006	0.00000E+000	5.91875E-006	0.00000E+000	8.21290E-004	-3.27687E+002	7	...........
	383	384	3.90653E+000	1.51474E-006	0.00000E+000	5.91737E-006	0.00000E+000	8.22257E-004	-3.27687E+002	7	...........
	384	385	3.90653E+000	1.51456E-006	0.00000E+000	5.91668E-006	0.00000E+000	8.21007E-004	-3.27687E+002	7	...........
	385	386	3.90653E+000	1.51510E-006	0.00000E+000	5.91880E-006	0.00000E+000	8.25890E-004	-3.27687E+002	7	...........
	386	387	3.90652E+000	1.51443E-006	0.00000E+000	5.91614E-006	0.00000E+000	8.20840E-004	-3.27687E+002	7	...........
	387	388	3.90652E+000	1.51515E-006	0.00000E+000	5.91897E-006	0.00000E+000	8.19390E-004	-3.27687E+002	7	...........
	388	389	3.90652E+000	1.51509E-006	0.00000E+000	5.91874E-006	0.00000E+000	8.17190E-004	-3.27687E+002	7	...........
	389	390	3.90651E+000	1.51441E-006	0.00000E+000	5.91605E-006	0.00000E+000	8.19924E-004	-3.27687E+002	7	...........
	390	391	3.90650E+000	1.51453E-006	0.00000E+000	5.91652E-006	0.00000E+000	8.20090E-004	-3.27687E+002	7	...........
	391	392	3.90649E+000	1.51427E-006	0.00000E+000	5.91548E-006	0.00000E+000	8.19840E-004	-3.27687E+002	7	...........
	392	393	3.90649E+000	1.51444E-006	0.00000E+000	5.91614E-006	0.00000E+000	8.16424E-004	-3.27687E+002	7	...........
	393	394	3.90648E+000	1.51458E-006	0.00000E+000	5.91666E-006	0.00000E+000	8.16974E-004	-3.27687E+002	7	...........
	394	395	3.90647E+000	1.51547E-006	0.00000E+000	5.92013E-006	0.00000E+000	8.17790E-004	-3.27687E+002	7	...........
	395	396	3.90648E+000	1.51472E-006	0.00000E+000	5.91723E-006	0.00000E+000	8.18640E-004	-3.27687E+002	7	...........
	396	397	3.90646E+000	1.51455E-006	0.00000E+000	5.91652E-006	0.00000E+000	8.18624E-004	-3.27687E+002	7	...........
	397	398	3.90645E+000	1.51465E-006	0.00000E+000	5.91691E-006	0.00000E+000	8.18774E-004	-3.27687E+002	7	...........
	398	399	3.90645E+000	1.51530E-006	0.00000E+000	5.91944E-006	0.00000E+000	8.19440E-004	-3.27687E+002	7	...........
	399	400	3.90645E+000	1.51573E-006	0.00000E+000	5.92113E-006	0.00000E+000	8.16574E-004	-3.27687E+002	7	...........
	400	401	3.90645E+000	1.51531E-006	0.00000E+000	5.91948E-006	0.00000E+000	8.17007E-004	-3.27687E+002	7	...........
	401	402	3.90642E+000	1.51566E-006	0.00000E+000	5.92083E-006	0.00000E+000	8.16174E-004	-3.27687E+002	7	...........
	402	403	3.90642E+000	1.51549E-006	0.00000E+000	5.92014E-006	0.00000E+000	8.15657E-004	-3.27687E+002	7	...........
	403	404	3.90642E+000	1.51560E-006	0.00000E+000	5.92057E-006	0.00000E+000	8.16824E-004	-3.27687E+002	7	...........
	404	405	3.90642E+000	1.51477E-006	0.00000E+000	5.91734E-006	0.00000E+000	8.13957E-004	-3.27687E+002	7	...........
	405	406	3.90641E+000	1.51534E-006	0.00000E+000	5.91952E-006	0.00000E+000	8.15174E-004	-3.27687E+002	7	...........
	406	407	3.90640E+000	1.51594E-006	0.00000E+000	5.92187E-006	0.00000E+000	8.16507E-004	-3.27687E+002	7	...........
	407	408	3.90640E+000	1.51573E-006	0.00000E+000	5.92107E-006	0.00000E+000	8.18040E-004	-3.27687E+002	7	...........
	408	409	3.90640E+000	1.51554E-006	0.00000E+000	5.92031E-006	0.00000E+000	8.15390E-004	-3.27687E+002	7	...........
	409	410	3.90639E+000	1.51510E-006	0.00000E+000	5.91858E-006	0.00000E+000	8.16474E-004	-3.27687E+002	7	...........
	410	411	3.90639E+000	1.51529E-006	0.00000E+000	5.91932E-006	0.00000E+000	8.16707E-004	-3.27687E+002	7	...........
	411	412	3.90638E+000	1.51570E-006	0.00000E+000	5.92090E-006	0.00000E+000	8.13824E-004	-3.27687E+002	7	...........
	412	413	3.90638E+000	1.51587E-006	0.00000E+000	5.92157E-006	0.00000E+000	8.15690E-004	-3.27687E+002	7	...........
	413	414	3.90637E+000	1.51558E-006	0.00000E+000	5.92042E-006	0.00000E+000	8.13890E-004	-3.27687E+002	7	...........
	414	415	3.90636E+000	1.51542E-006	0.00000E+000	5.91978E-006	0.00000E+000	8.12240E-004	-3.27687E+002	7	...........
	415	416	3.90635E+000	1.51508E-006	0.00000E+000	5.91843E-006	0.00000E+000	8.13807E-004	-3.27687E+002	7	...........
	416	417	3.90635E+000	1.51460E-006	0.00000E+000	5.91656E-006	0.00000E+000	8.15240E-004	-3.27687E+002	7	...........
	417	418	3.90635E+000	1.51493E-006	0.00000E+000	5.91783E-006	0.00000E+000	8.15674E-004	-3.27687E+002	7	...........
	418	419	3.90634E+000	1.51566E-006	0.00000E+000	5.92068E-006	0.00000E+000	8.13874E-004	-3.27687E+002	7	...........
	419	420	3.90634E+000	1.51707E-006	0.00000E+000	5.92617E-006	0.00000E+000	8.16174E-004	-3.27687E+002	7	...........
	420	421	3.90633E+000	1.51552E-006	0.00000E+000	5.92012E-006	0.00000E+000	8.20290E-004	-3.27687E+002	7	...........
	421	422	3.90633E+000	1.51572E-006	0.00000E+000	5.92090E-006	0.00000E+000	8.15857E-004	-3.27687E+002	7	...........
	422	423	3.90632E+000	1.51480E-006	0.00000E+000	5.91730E-006	0.00000E+000	8.14290E-004	-3.27687E+002	7	...........
	423	424	3.90631E+000	1.51521E-006	0.00000E+000	5.91886E-006	0.00000E+000	8.14257E-004	-3.27687E+002	7	...........
	424	425	3.90631E+000	1.51532E-006	0.00000E+000	5.91931E-006	0.00000E+000	8.12924E-004	-3.27687E+002	7	...........
	425	426	3.90630E+000	1.51583E-006	0.00000E+000	5.92129E-006	0.00000E+000	8.13740E-004	-3.27687E+002	7	...........
	426	427	3.90629E+000	1.51583E-006	0.00000E+000	5.92127E-006	0.00000E+000	8.07690E-004	-3.27687E+002	7	...........
	427	428	3.90629E+000	1.51516E-006	0.00000E+000	5.91865E-006	0.00000E+000	8.14224E-004	-3.27687E+002	7	...........
	428	429	3.90628E+000	1.51561E-006	0.00000E+000	5.92040E-006	0.00000E+000	8.15357E-004	-3.27687E+002	7	...........
	429	430	3.90627E+000	1.51575E-006	0.00000E+000	5.92094E-006	0.00000E+000	8.15490E-004	-3.27687E+002	7	...........
	430	431	3.90627E+000	1.51562E-006	0.00000E+000	5.92041E-006	0.00000E+000	8.11124E-004	-3.27687E+002	7	...........
	431	432	3.90627E+000	1.51653E-006	0.00000E+000	5.92397E-006	0.00000E+000	8.14290E-004	-3.27687E+002	7	...........
	432	433	3.90626E+000	1.51609E-006	0.00000E+000	5.92225E-006	0.00000E+000	8.10907E-004	-3.27687E+002	7	...........
	433	434	3.90626E+000	1.51556E-006	0.00000E+000	5.92016E-006	0.00000E+000	8.10374E-004	-3.27687E+002	7	...........
	434	435	3.90626E+000	1.51549E-006	0.00000E+000	5.91991E-006	0.00000E+000	8.14040E-004	-3.27687E+002	7	...........
	435	436	3.90625E+000	1.51567E-006	0.00000E+000	5.92058E-006	0.00000E+000	8.11574E-004	-3.27687E+002	7	...........
	436	437	3.90624E+000	1.51552E-006	0.00000E+000	5.92000E-006	0.00000E+000	8.11240E-004	-3.27687E+002	7	...........
	437	438	3.90624E+000	1.51597E-006	0.00000E+000	5.92175E-006	0.00000E+000	8.12340E-004	-3.27687E+002	7	...........
	438	439	3.90623E+000	1.51583E-006	0.00000E+000	5.92117E-006	0.00000E+000	8.10874E-004	-3.27687E+002	7	...........
	439	440	3.90623E+000	1.51634E-006	0.00000E+000	5.92316E-006	0.00000E+000	8.11990E-004	-3.27687E+002	7	...........
	440	441	3.90622E+000	1.51597E-006	0.00000E+000	5.92173E-006	0.00000E+000	8.10790E-004	-3.27687E+002	7	...........
	441	442	3.90621E+000	1.51521E-006	0.00000E+000	5.91874E-006	0.00000E+000	8.09174E-004	-3.27687E+002	7	...........
	442	443	3.90621E+000	1.51547E-006	0.00000E+000	5.91976E-006	0.00000E+000	8.08757E-004	-3.27687E+002	7	...........
	443	444	3.90621E+000	1.51592E-006	0.00000E+000	5.92149E-006	0.00000E+000	8.10124E-004	-3.27687E+002	7	...........
	444	445	3.90620E+000	1.51616E-006	0.00000E+000	5.92241E-006	0.00000E+000	8.10874E-004	-3.27687E+002	7	...........
	445	446	3.90619E+000	1.51573E-006	0.00000E+000	5.92074E-006	0.00000E+000	8.13524E-004	-3.27687E+002	7	...........
	446	447	3.90619E+000	1.51560E-006	0.00000E+000	5.92022E-006	0.00000E+000	8.14474E-004	-3.27687E+002	7	...........
	447	448	3.90619E+000	1.51560E-006	0.00000E+000	5.92020E-006	0.00000E+000	8.10257E-004	-3.27687E+002	7	...........
	448	449	3.90619E+000	1.51573E-006	0.00000E+000	5.92071E-006	0.00000E+000	8.13557E-004	-3.27687E+002	7	...........
	449	450	3.90619E+000	1.51527E-006	0.00000E+000	5.91894E-006	0.00000E+000	8.10357E-004	-3.27687E+002	7	...........
	450	451	3.90618E+000	1.51505E-006	0.00000E+000	5.91807E-006	0.00000E+000	8.12274E-004	-3.27687E+002	7	...........
	451	452	3.90618E+000	1.51557E-006	0.00000E+000	5.92008E-006	0.00000E+000	8.13490E-004	-3.27687E+002	7	...........
	452	453	3.90617E+000	1.51538E-006	0.00000E+000	5.91934E-006	0.00000E+000	8.11824E-004	-3.27687E+002	7	...........
	453	454	3.90617E+000	1.51498E-006	0.00000E+000	5.91776E-006	0.00000E+000	8.12440E-004	-3.27687E+002	7	...........
	454	455	3.90617E+000	1.51489E-006	0.00000E+000	5.91742E-006	0.00000E+000	8.10574E-004	-3.27687E+002	7	...........
	455	456	3.90616E+000	1.51546E-006	0.00000E+000	5.91962E-006	0.00000E+000	8.12507E-004	-3.27687E+002	7	...........
	456	457	3.90615E+000	1.51611E-006	0.00000E+000	5.92215E-006	0.00000E+000	8.11974E-004	-3.27687E+002	7	...........
	457	458	3.90614E+000	1.51594E-006	0.00000E+000	5.92148E-006	0.00000E+000	8.13857E-004	-3.27687E+002	7	...........
	458	459	3.90614E+000	1.51539E-006	0.00000E+000	5.91931E-006	0.00000E+000	8.10407E-004	-3.27687E+002	7	...........
	459	460	3.90613E+000	1.51562E-006	0.00000E+000	5.92022E-006	0.00000E+000	8.07874E-004	-3.27687E+002	7	...........
	460	461	3.90613E+000	1.51613E-006	0.00000E+000	5.92222E-006	0.00000E+000	8.10240E-004	-3.27687E+002	7	...........
	461	462	3.90613E+000	1.51605E-006	0.00000E+000	5.92189E-006	0.00000E+000	8.10374E-004	-3.27687E+002	7	...........
	462	463	3.90613E+000	1.51549E-006	0.00000E+000	5.91971E-006	0.00000E+000	8.10557E-004	-3.27687E+002	7	...........
	463	464	3.90611E+000	1.51534E-006	0.00000E+000	5.91911E-006	0.00000E+000	8.08507E-004	-3.27687E+002	7	...........
	464	465	3.90611E+000	1.51600E-006	0.00000E+000	5.92167E-006	0.00000E+000	8.11074E-004	-3.27687E+002	7	...........
	465	466	3.90611E+000	1.51576E-006	0.00000E+000	5.92073E-006	0.00000E+000	8.11390E-004	-3.27687E+002	7	...........
	466	467	3.90611E+000	1.51519E-006	0.00000E+000	5.91850E-006	0.00000E+000	8.07924E-004	-3.27687E+002	7	...........
	467	468	3.90609E+000	1.51569E-006	0.00000E+000	5.92042E-006	0.00000E+000	8.09740E-004	-3.27687E+002	7	...........
	468	469	3.90610E+000	1.51604E-006	0.00000E+000	5.92181E-006	0.00000E+000	8.11307E-004	-3.27687E+002	7	...........
	469	470	3.90609E+000	1.51651E-006	0.00000E+000	5.92362E-006	0.00000E+000	8.08174E-004	-3.27687E+002	7	...........
	470	471	3.90609E+000	1.51559E-006	0.00000E+000	5.92003E-006	0.00000E+000	8.08074E-004	-3.27687E+002	7	...........
	471	472	3.90609E+000	1.51566E-006	0.00000E+000	5.92030E-006	0.00000E+000	8.07490E-004	-3.27687E+002	7	...........
	472	473	3.90608E+000	1.51625E-006	0.00000E+000	5.92258E-006	0.00000E+000	8.06724E-004	-3.27687E+002	7	...........
	473	474	3.90607E+000	1.51609E-006	0.00000E+000	5.92196E-006	0.00000E+000	8.08707E-004	-3.27687E+002	7	...........
	474	475	3.90607E+000	1.51636E-006	0.00000E+000	5.92302E-006	0.00000E+000	8.06724E-004	-3.27687E+002	7	...........
	475	476	3.90606E+000	1.51617E-006	0.00000E+000	5.92227E-006	0.00000E+000	8.08424E-004	-3.27687E+002	7	...........
	476	477	3.90604E+000	1.51603E-006	0.00000E+000	5.92170E-006	0.00000E+000	8.05824E-004	-3.27687E+002	7	...........
	477	478	3.90605E+000	1.51594E-006	0.00000E+000	5.92135E-006	0.00000E+000	8.09507E-004	-3.27687E+002	7	...........
	478	479	3.90604E+000	1.51575E-006	0.00000E+000	5.92058E-006	0.00000E+000	8.08190E-004	-3.27687E+002	7	...........
	479	480	3.90603E+000	1.51599E-006	0.00000E+000	5.92149E-006	0.00000E+000	8.09874E-004	-3.27687E+002	7	...........
	480	481	3.90603E+000	1.51598E-006	0.00000E+000	5.92145E-006	0.00000E+000	8.07540E-004	-3.27687E+002	7	...........
	481	482	3.90604E+000	1.51658E-006	0.00000E+000	5.92380E-006	0.00000E+000	8.08407E-004	-3.27687E+002	7	...........
	482	483	3.90603E+000	1.51624E-006	0.00000E+000	5.92249E-006	0.00000E+000	8.10207E-004	-3.27687E+002	7	...........
	483	484	3.90601E+000	1.51591E-006	0.00000E+000	5.92115E-006	0.00000E+000	8.09207E-004	-3.27687E+002	7	...........
	484	485	3.90601E+000	1.51562E-006	0.00000E+000	5.92003E-006	0.00000E+000	8.06174E-004	-3.27687E+002	7	...........
	485	486	3.90602E+000	1.51601E-006	0.00000E+000	5.92157E-006	0.00000E+000	8.09324E-004	-3.27687E+002	7	...........
	486	487	3.90600E+000	1.51597E-006	0.00000E+000	5.92140E-006	0.00000E+000	8.05374E-004	-3.27687E+002	7	...........
	487	488	3.90601E+000	1.51613E-006	0.00000E+000	5.92203E-006	0.00000E+000	8.06624E-004	-3.27687E+002	7	...........
	488	489	3.90600E+000	1.51578E-006	0.00000E+000	5.92062E-006	0.00000E+000	8.06990E-004	-3.27687E+002	7	...........
	489	490	3.90599E+000	1.51599E-006	0.00000E+000	5.92145E-006	0.00000E+000	8.08757E-004	-3.27687E+002	7	...........
	490	491	3.90599E+000	1.51560E-006	0.00000E+000	5.91992E-006	0.00000E+000	8.05074E-004	-3.27687E+002	7	...........
	491	492	3.90598E+000	1.51517E-006	0.00000E+000	5.91823E-006	0.00000E+000	8.03407E-004	-3.27687E+002	7	...........
	492	493	3.90599E+000	1.51498E-006	0.00000E+000	5.91749E-006	0.00000E+000	8.04090E-004	-3.27687E+002	7	...........
	493	494	3.90598E+000	1.51546E-006	0.00000E+000	5.91937E-006	0.00000E+000	8.06174E-004	-3.27687E+002	7	...........
	494	495	3.90598E+000	1.51600E-006	0.00000E+000	5.92145E-006	0.00000E+000	8.02824E-004	-3.27687E+002	7	...........
	495	496	3.90597E+000	1.51555E-006	0.00000E+000	5.91969E-006	0.00000E+000	8.07474E-004	-3.27687E+002	7	...........
	496	497	3.90596E+000	1.51518E-006	0.00000E+000	5.91825E-006	0.00000E+000	8.04157E-004	-3.27687E+002	7	...........
	497	498	3.90596E+000	1.51522E-006	0.00000E+000	5.91837E-006	0.00000E+000	8.06874E-004	-3.27687E+002	7	...........
	498	499	3.90596E+000	1.51563E-006	0.00000E+000	5.92000E-006	0.00000E+000	8.06624E-004	-3.27687E+002	7	...........
	499	500	3.90596E+000	1.51527E-006	0.00000E+000	5.91859E-006	0.00000E+000	8.05790E-004	-3.27687E+002	7	...........
	500	501	3.90595E+000	1.51558E-006	0.00000E+000	5.91980E-006	0.00000E+000	8.07574E-004	-3.27687E+002	7	...........
	501	502	3.90595E+000	1.51519E-006	0.00000E+000	5.91827E-006	0.00000E+000	8.04757E-004	-3.27687E+002	7	...........
	502	503	3.90595E+000	1.51557E-006	0.00000E+000	5.91972E-006	0.00000E+000	8.08157E-004	-3.27687E+002	7	...........
	503	504	3.90594E+000	1.51514E-006	0.00000E+000	5.91806E-006	0.00000E+000	8.07874E-004	-3.27687E+002	7	...........
	504	505	3.90593E+000	1.51515E-006	0.00000E+000	5.91805E-006	0.00000E+000	8.09490E-004	-3.27687E+002	7	...........
	505	506	3.90593E+000	1.51548E-006	0.00000E+000	5.91934E-006	0.00000E+000	8.09640E-004	-3.27687E+002	7	...........
	506	507	3.90592E+000	1.51613E-006	0.00000E+000	5.92187E-006	0.00000E+000	8.06157E-004	-3.27687E+002	7	...........
	507	508	3.90591E+000	1.51560E-006	0.00000E+000	5.91980E-006	0.00000E+000	8.06390E-004	-3.27687E+002	7	...........
	508	509	3.90591E+000	1.51519E-006	0.00000E+000	5.91821E-006	0.00000E+000	8.07224E-004	-3.27687E+002	7	...........
	509	510	3.90591E+000	1.51558E-006	0.00000E+000	5.91970E-006	0.00000E+000	8.07707E-004	-3.27687E+002	7	...........
	510	511	3.90591E+000	1.51510E-006	0.00000E+000	5.91786E-006	0.00000E+000	8.07807E-004	-3.27687E+002	7	...........
	511	512	3.90590E+000	1.51585E-006	0.00000E+000	5.92075E-006	0.00000E+000	8.06124E-004	-3.27687E+002	7	...........
	512	513	3.90591E+000	1.51551E-006	0.00000E+000	5.91945E-006	0.00000E+000	8.05624E-004	-3.27687E+002	7	...........
	513	514	3.90590E+000	1.51556E-006	0.00000E+000	5.91962E-006	0.00000E+000	8.07390E-004	-3.27687E+002	7	...........
	514	515	3.90589E+000	1.51572E-006	0.00000E+000	5.92023E-006	0.00000E+000	8.05190E-004	-3.27687E+002	7	...........
	515	516	3.90588E+000	1.51521E-006	0.00000E+000	5.91824E-006	0.00000E+000	8.04990E-004	-3.27687E+002	7	...........
	516	517	3.90589E+000	1.51530E-006	0.00000E+000	5.91858E-006	0.00000E+000	8.05824E-004	-3.27687E+002	7	...........
	517	518	3.90587E+000	1.51521E-006	0.00000E+000	5.91822E-006	0.00000E+000	8.05307E-004	-3.27687E+002	7	...........
	518	519	3.90587E+000	1.51577E-006	0.00000E+000	5.92041E-006	0.00000E+000	8.02290E-004	-3.27687E+002	7	...........
	519	520	3.90586E+000	1.51533E-006	0.00000E+000	5.91865E-006	0.00000E+000	8.05607E-004	-3.27687E+002	7	...........
	520	521	3.90586E+000	1.51532E-006	0.00000E+000	5.91865E-006	0.00000E+000	8.09574E-004	-3.27687E+002	7	...........
	521	522	3.90585E+000	1.51497E-006	0.00000E+000	5.91725E-006	0.00000E+000	8.05507E-004	-3.27687E+002	7	...........
	522	523	3.90586E+000	1.51469E-006	0.00000E+000	5.91618E-006	0.00000E+000	8.05240E-004	-3.27687E+002	7	...........
	523	524	3.90584E+000	1.51538E-006	0.00000E+000	5.91882E-006	0.00000E+000	8.03074E-004	-3.27687E+002	7	...........
	524	525	3.90584E+000	1.51488E-006	0.00000E+000	5.91688E-006	0.00000E+000	8.08124E-004	-3.27687E+002	7	...........
	525	526	3.90583E+000	1.51527E-006	0.00000E+000	5.91841E-006	0.00000E+000	8.04524E-004	-3.27687E+002	7	...........
	526	527	3.90584E+000	1.51485E-006	0.00000E+000	5.91676E-006	0.00000E+000	8.06707E-004	-3.27687E+002	7	...........
	527	528	3.90583E+000	1.51461E-006	0.00000E+000	5.91580E-006	0.00000E+000	8.06307E-004	-3.27687E+002	7	...........
	528	529	3.90581E+000	1.51494E-006	0.00000E+000	5.91707E-006	0.00000E+000	8.04074E-004	-3.27687E+002	7	...........
	529	530	3.90581E+000	1.51542E-006	0.00000E+000	5.91895E-006	0.00000E+000	8.04790E-004	-3.27687E+002	7	...........
	530	531	3.90581E+000	1.51606E-006	0.00000E+000	5.92145E-006	0.00000E+000	8.03090E-004	-3.27687E+002	7	...........
	531	532	3.90581E+000	1.51591E-006	0.00000E+000	5.92085E-006	0.00000E+000	8.05707E-004	-3.27687E+002	7	...........
	532	533	3.90580E+000	1.51535E-006	0.00000E+000	5.91864E-006	0.00000E+000	8.06140E-004	-3.27687E+002	7	...........
	533	534	3.90579E+000	1.51518E-006	0.00000E+000	5.91797E-006	0.00000E+000	8.04957E-004	-3.27687E+002	7	...........
	534	535	3.90579E+000	1.51520E-006	0.00000E+000	5.91806E-006	0.00000E+000	8.02407E-004	-3.27687E+002	7	...........
	535	536	3.90578E+000	1.51578E-006	0.00000E+000	5.92029E-006	0.00000E+000	8.06657E-004	-3.27687E+002	7	...........
	536	537	3.90578E+000	1.51562E-006	0.00000E+000	5.91968E-006	0.00000E+000	8.04857E-004	-3.27687E+002	7	...........
	537	538	3.90577E+000	1.51563E-006	0.00000E+000	5.91971E-006	0.00000E+000	8.06824E-004	-3.27687E+002	7	...........
	538	539	3.90576E+000	1.51541E-006	0.00000E+000	5.91885E-006	0.00000E+000	8.07607E-004	-3.27687E+002	7	...........
	539	540	3.90576E+000	1.51483E-006	0.00000E+000	5.91657E-006	0.00000E+000	8.04307E-004	-3.27687E+002	7	...........
	540	541	3.90576E+000	1.51509E-006	0.00000E+000	5.91756E-006	0.00000E+000	8.06490E-004	-3.27687E+002	7	...........
	541	542	3.90576E+000	1.51552E-006	0.00000E+000	5.91926E-006	0.00000E+000	8.07174E-004	-3.27687E+002	7	...........
	542	543	3.90575E+000	1.51515E-006	0.00000E+000	5.91781E-006	0.00000E+000	8.06707E-004	-3.27687E+002	7	...........
	543	544	3.90576E+000	1.51639E-006	0.00000E+000	5.92264E-006	0.00000E+000	8.07857E-004	-3.27687E+002	7	...........
	544	545	3.90575E+000	1.51640E-006	0.00000E+000	5.92266E-006	0.00000E+000	8.04824E-004	-3.27687E+002	7	...........
	545	546	3.90574E+000	1.51556E-006	0.00000E+000	5.91940E-006	0.00000E+000	8.05924E-004	-3.27687E+002	7	...........
	546	547	3.90574E+000	1.51644E-006	0.00000E+000	5.92282E-006	0.00000E+000	8.03357E-004	-3.27687E+002	7	...........
	547	548	3.90573E+000	1.51576E-006	0.00000E+000	5.92016E-006	0.00000E+000	8.06290E-004	-3.27687E+002	7	...........
	548	549	3.90573E+000	1.51590E-006	0.00000E+000	5.92069E-006	0.00000E+000	8.06390E-004	-3.27687E+002	7	...........
	549	550	3.90572E+000	1.51592E-006	0.00000E+000	5.92078E-006	0.00000E+000	8.04340E-004	-3.27687E+002	7	...........
	550	551	3.90573E+000	1.51591E-006	0.00000E+000	5.92075E-006	0.00000E+000	8.05240E-004	-3.27687E+002	7	...........
	551	552	3.90573E+000	1.51611E-006	0.00000E+000	5.92150E-006	0.00000E+000	8.03274E-004	-3.27687E+002	7	...........
	552	553	3.90571E+000	1.51589E-006	0.00000E+000	5.92062E-006	0.00000E+000	8.02740E-004	-3.27687E+002	7	...........
	553	554	3.90571E+000	1.51602E-006	0.00000E+000	5.92114E-006	0.00000E+000	8.04940E-004	-3.27687E+002	7	...........
	554	555	3.90571E+000	1.51564E-006	0.00000E+000	5.91966E-006	0.00000E+000	8.06357E-004	-3.27687E+002	7	...........
	555	556	3.90570E+000	1.51595E-006	0.00000E+000	5.92084E-006	0.00000E+000	8.02940E-004	-3.27687E+002	7	...........
	556	557	3.90570E+000	1.51666E-006	0.00000E+000	5.92360E-006	0.00000E+000	8.05574E-004	-3.27687E+002	7	...........
	557	558	3.90570E+000	1.51636E-006	0.00000E+000	5.92244E-006	0.00000E+000	8.08424E-004	-3.27687E+002	7	...........
	558	559	3.90569E+000	1.51646E-006	0.00000E+000	5.92282E-006	0.00000E+000	8.05224E-004	-3.27687E+002	7	...........
	559	560	3.90568E+000	1.51620E-006	0.00000E+000	5.92180E-006	0.00000E+000	8.07357E-004	-3.27687E+002	7	...........
	560	561	3.90568E+000	1.51673E-006	0.00000E+000	5.92384E-006	0.00000E+000	8.08057E-004	-3.27687E+002	7	...........
	561	562	3.90568E+000	1.51682E-006	0.00000E+000	5.92422E-006	0.00000E+000	8.08074E-004	-3.27687E+002	7	...........
	562	563	3.90567E+000	1.51688E-006	0.00000E+000	5.92444E-006	0.00000E+000	8.04724E-004	-3.27687E+002	7	...........
	563	564	3.90566E+000	1.51646E-006	0.00000E+000	5.92277E-006	0.00000E+000	8.05990E-004	-3.27687E+002	7	...........
	564	565	3.90566E+000	1.51659E-006	0.00000E+000	5.92328E-006	0.00000E+000	8.04740E-004	-3.27687E+002	7	...........
	565	566	3.90565E+000	1.51619E-006	0.00000E+000	5.92171E-006	0.00000E+000	8.05657E-004	-3.27687E+002	7	...........
	566	567	3.90565E+000	1.51638E-006	0.00000E+000	5.92245E-006	0.00000E+000	8.05157E-004	-3.27687E+002	7	...........
	567	568	3.90564E+000	1.51649E-006	0.00000E+000	5.92287E-006	0.00000E+000	8.03540E-004	-3.27687E+002	7	...........
	568	569	3.90564E+000	1.51726E-006	0.00000E+000	5.92589E-006	0.00000E+000	8.04440E-004	-3.27687E+002	7	...........
	569	570	3.90565E+000	1.51648E-006	0.00000E+000	5.92283E-006	0.00000E+000	8.06107E-004	-3.27687E+002	7	...........
	570	571	3.90564E+000	1.51657E-006	0.00000E+000	5.92317E-006	0.00000E+000	8.02457E-004	-3.27687E+002	7	...........
	571	572	3.90563E+000	1.51653E-006	0.00000E+000	5.92301E-006	0.00000E+000	8.02157E-004	-3.27687E+002	7	...........
	572	573	3.90563E+000	1.51638E-006	0.00000E+000	5.92241E-006	0.00000E+000	8.06207E-004	-3.27687E+002	7	...........
	573	574	3.90562E+000	1.51674E-006	0.00000E+000	5.92383E-006	0.00000E+000	8.02507E-004	-3.27687E+002	7	...........
	574	575	3.90562E+000	1.51626E-006	0.00000E+000	5.92191E-006	0.00000E+000	8.03490E-004	-3.27687E+002	7	...........
	575	576	3.90561E+000	1.51623E-006	0.00000E+000	5.92179E-006	0.00000E+000	8.06207E-004	-3.27687E+002	7	...........
	576	577	3.90561E+000	1.51644E-006	0.00000E+000	5.92263E-006	0.00000E+000	8.04907E-004	-3.27687E+002	7	...........
	577	578	3.90561E+000	1.51651E-006	0.00000E+000	5.92289E-006	0.00000E+000	8.03957E-004	-3.27687E+002	7	...........
	578	579	3.90561E+000	1.51551E-006	0.00000E+000	5.91900E-006	0.00000E+000	8.02374E-004	-3.27687E+002	7	...........
	579	580	3.90560E+000	1.51659E-006	0.00000E+000	5.92318E-006	0.00000E+000	8.06140E-004	-3.27687E+002	7	...........
	580	581	3.90559E+000	1.51712E-006	0.00000E+000	5.92526E-006	0.00000E+000	8.04857E-004	-3.27687E+002	7	...........
	581	582	3.90559E+000	1.51688E-006	0.00000E+000	5.92432E-006	0.00000E+000	8.03040E-004	-3.27687E+002	7	...........
	582	583	3.90559E+000	1.51589E-006	0.00000E+000	5.92046E-006	0.00000E+000	8.04407E-004	-3.27687E+002	7	...........
	583	584	3.90559E+000	1.51625E-006	0.00000E+000	5.92184E-006	0.00000E+000	8.04440E-004	-3.27687E+002	7	...........
	584	585	3.90558E+000	1.51626E-006	0.00000E+000	5.92187E-006	0.00000E+000	8.05607E-004	-3.27687E+002	7	...........
	585	586	3.90557E+000	1.51646E-006	0.00000E+000	5.92266E-006	0.00000E+000	8.05874E-004	-3.27687E+002	7	...........
	586	587	3.90557E+000	1.51667E-006	0.00000E+000	5.92347E-006	0.00000E+000	8.04824E-004	-3.27687E+002	7	...........
	587	588	3.90557E+000	1.51642E-006	0.00000E+000	5.92250E-006	0.00000E+000	8.02390E-004	-3.27687E+002	7	...........
	588	589	3.90557E+000	1.51612E-006	0.00000E+000	5.92131E-006	0.00000E+000	8.05490E-004	-3.27687E+002	7	...........
	589	590	3.90556E+000	1.51647E-006	0.00000E+000	5.92268E-006	0.00000E+000	8.03790E-004	-3.27687E+002	7	...........
	590	591	3.90556E+000	1.51566E-006	0.00000E+000	5.91950E-006	0.00000E+000	8.00790E-004	-3.27687E+002	7	...........
	591	592	3.90555E+000	1.51575E-006	0.00000E+000	5.91984E-006	0.00000E+000	8.01690E-004	-3.27687E+002	7	...........
	592	593	3.90555E+000	1.51626E-006	0.00000E+000	5.92184E-006	0.00000E+000	8.04674E-004	-3.27687E+002	7	...........
	593	594	3.90555E+000	1.51674E-006	0.00000E+000	5.92369E-006	0.00000E+000	8.03074E-004	-3.27687E+002	7	...........
	594	595	3.90553E+000	1.51613E-006	0.00000E+000	5.92129E-006	0.00000E+000	8.02774E-004	-3.27687E+002	7	...........
	595	596	3.90553E+000	1.51609E-006	0.00000E+000	5.92111E-006	0.00000E+000	8.03790E-004	-3.27687E+002	7	...........
	596	597	3.90553E+000	1.51620E-006	0.00000E+000	5.92159E-006	0.00000E+000	8.05024E-004	-3.27687E+002	7	...........
	597	598	3.90553E+000	1.51630E-006	0.00000E+000	5.92195E-006	0.00000E+000	8.03957E-004	-3.27687E+002	7	...........
	598	599	3.90553E+000	1.51634E-006	0.00000E+000	5.92210E-006	0.00000E+000	8.03490E-004	-3.27687E+002	7	...........
	599	600	3.90552E+000	1.51662E-006	0.00000E+000	5.92319E-006	0.00000E+000	8.02290E-004	-3.27687E+002	7	...........
