EXPLAIN
TAG	PWR800_READVOLTAGE
TITLE	LABEL	PWR Read Voltage	Test Identifier
DATE	LABEL	21.6.2024	Date
TIME	LABEL	22:23:38	Time
NOTES	NOTES	1	Notes...
	
PSTAT	PSTAT	REF600-12055	Potentiostat
CAPACITY	QUANT	1.00000E+000	Capacity (A-hr)
CELLTYPE	SELECTOR	1	Cell Type
WORKINGCONNECTION	SELECTOR	0	Working Connection
MAXTIME	VARIABLEANDUNITS	6.00000E+002	s	6.00000E+002	second(s)	Max Time
SAMPLETIME	QUANT	1.00000E+000	Sample Period (s)
STOPAT1	MULTIPARAM	0	0.00000E+000	Stop At 1	None	N/A
STOPAT2	MULTIPARAM	0	0.00000E+000	Stop At 2	None	N/A
AESBHCSELECTOR	TOGGLE	F	Save Both Half Cells
EOC	QUANT	4.003024	Open Circuit (V)
SEQUENCER	TOGGLE	TRUE	Run as Sequence
PSTATMODEL	IQUANT	4	Pstat Model
PSTATSECTION	LABEL	REF600-12055	Pstat Section
PSTATSERIALNO	LABEL	12055	Pstat Serial Number
CTRLMODE	IQUANT	0	Control Mode
ELECTROMETER	IQUANT	0	RE=0 or CS=1
IESTAB	IQUANT	0	I/E Stability
CASPEED	IQUANT	4	Control Amp Speed
CONVENTION	IQUANT	1	Current Convention
ICHRANGE	IQUANT	2	Ich Range
ICHRANGEMODE	TOGGLE	T	Ich Auto Range
ICHOFFSETENABLE	TOGGLE	F	Ich Offset Enable
ICHOFFSET	QUANT	0	Ich Offset (V)
ICHFILTER	IQUANT	1	Ich Filter
VCHRANGE	IQUANT	3	Vch Range
VCHRANGEMODE	TOGGLE	T	Vch Auto Range
VCHOFFSETENABLE	TOGGLE	F	Vch Offset Enable
VCHOFFSET	QUANT	0	Vch Offset (V)
VCHFILTER	IQUANT	1	Vch Filter
ACHRANGE	IQUANT	2	Ach Range
ACHOFFSETENABLE	TOGGLE	F	Ach Offset Enable
ACHOFFSET	QUANT	0	Ach Offset (V)
ACHFILTER	IQUANT	1	Ach Filter
IERANGELOWERLIMIT	IQUANT	7	I/E Range Lower Limit
IERANGEMODE	TOGGLE	F	I/E AutoRange
IERANGE	IQUANT	11	I/E Range
POSFEEDENABLE	TOGGLE	F	Positive Feedback IR Comp
POSFEEDRESISTANCE	QUANT	0	Positive Feedback Resistance (ohm)
ACHSELECT	IQUANT	4	Ach Select
SENSECABLEID	IQUANT	14	Sense Cable ID
PWRCABLEID	IQUANT	14	Power Cable ID
DCCALDATE	LABEL	2/12/2024	DC Calibration Date
ACCALDATE	LABEL	2/12/2024	AC Calibration Date
THERMOSELECT	IQUANT	1	Thermo Select
FRAMEWORKVERSION	LABEL	7.10.3	Framework Version
INSTRUMENTVERSION	LABEL	4.91	Instrument Version
COMMVERSION	LABEL	2.24	Communications Version
CPUPLDVERSION	LABEL	0.00	CPU PLD Version
CTRLPLDVERSION	LABEL	0.00	CTRL PLD Version
PSTATPLDVERSION	LABEL	0.00	PSTAT PLD Version
CURVE	TABLE	600
	Pt	T	Vf	Im	Vu	Pwr	Sig	Ach	Temp	IERange	Over
	#	s	V	A	V	W	V	V	deg C	#	bits
	0	1	4.06964E+000	-1.77938E-006	0.00000E+000	-7.24143E-006	0.00000E+000	9.98674E-004	-3.27687E+002	7	...........
	1	2	4.06943E+000	-1.77914E-006	0.00000E+000	-7.24008E-006	0.00000E+000	9.91507E-004	-3.27687E+002	7	...........
	2	3	4.06928E+000	-1.77874E-006	0.00000E+000	-7.23820E-006	0.00000E+000	9.88274E-004	-3.27687E+002	7	...........
	3	4	4.06914E+000	-1.77853E-006	0.00000E+000	-7.23707E-006	0.00000E+000	9.91190E-004	-3.27687E+002	7	...........
	4	5	4.06900E+000	-1.77871E-006	0.00000E+000	-7.23757E-006	0.00000E+000	9.90540E-004	-3.27687E+002	7	...........
	5	6	4.06886E+000	-1.77781E-006	0.00000E+000	-7.23366E-006	0.00000E+000	9.90940E-004	-3.27687E+002	7	...........
	6	7	4.06873E+000	-1.77785E-006	0.00000E+000	-7.23358E-006	0.00000E+000	9.93674E-004	-3.27687E+002	7	...........
	7	8	4.06863E+000	-1.77865E-006	0.00000E+000	-7.23666E-006	0.00000E+000	9.95857E-004	-3.27687E+002	7	...........
	8	9	4.06852E+000	-1.77830E-006	0.00000E+000	-7.23504E-006	0.00000E+000	9.92740E-004	-3.27687E+002	7	...........
	9	10	4.06843E+000	-1.77830E-006	0.00000E+000	-7.23489E-006	0.00000E+000	9.89890E-004	-3.27687E+002	7	...........
	10	11	4.06834E+000	-1.77855E-006	0.00000E+000	-7.23575E-006	0.00000E+000	9.89240E-004	-3.27687E+002	7	...........
	11	12	4.06824E+000	-1.77788E-006	0.00000E+000	-7.23285E-006	0.00000E+000	9.85257E-004	-3.27687E+002	7	...........
	12	13	4.06814E+000	-1.77763E-006	0.00000E+000	-7.23165E-006	0.00000E+000	9.84424E-004	-3.27687E+002	7	...........
	13	14	4.06804E+000	-1.77810E-006	0.00000E+000	-7.23339E-006	0.00000E+000	9.80707E-004	-3.27687E+002	7	...........
	14	15	4.06793E+000	-1.77769E-006	0.00000E+000	-7.23151E-006	0.00000E+000	9.80557E-004	-3.27687E+002	7	...........
	15	16	4.06783E+000	-1.77830E-006	0.00000E+000	-7.23380E-006	0.00000E+000	9.84674E-004	-3.27687E+002	7	...........
	16	17	4.06773E+000	-1.77780E-006	0.00000E+000	-7.23161E-006	0.00000E+000	9.81924E-004	-3.27687E+002	7	...........
	17	18	4.06762E+000	-1.77893E-006	0.00000E+000	-7.23600E-006	0.00000E+000	9.83057E-004	-3.27687E+002	7	...........
	18	19	4.06754E+000	-1.77889E-006	0.00000E+000	-7.23569E-006	0.00000E+000	9.85740E-004	-3.27687E+002	7	...........
	19	20	4.06745E+000	-1.77837E-006	0.00000E+000	-7.23345E-006	0.00000E+000	9.87574E-004	-3.27687E+002	7	...........
	20	21	4.06735E+000	-1.77951E-006	0.00000E+000	-7.23788E-006	0.00000E+000	8.09607E-004	-3.27687E+002	7	...........
	21	22	4.06726E+000	-1.77859E-006	0.00000E+000	-7.23401E-006	0.00000E+000	7.30257E-004	-3.27687E+002	7	...........
	22	23	4.06718E+000	-1.77822E-006	0.00000E+000	-7.23236E-006	0.00000E+000	7.31207E-004	-3.27687E+002	7	...........
	23	24	4.06710E+000	-1.77846E-006	0.00000E+000	-7.23315E-006	0.00000E+000	7.32174E-004	-3.27687E+002	7	...........
	24	25	4.06702E+000	-1.77689E-006	0.00000E+000	-7.22663E-006	0.00000E+000	7.36707E-004	-3.27687E+002	7	...........
	25	26	4.06695E+000	-1.77763E-006	0.00000E+000	-7.22951E-006	0.00000E+000	7.36190E-004	-3.27687E+002	7	...........
	26	27	4.06689E+000	-1.77773E-006	0.00000E+000	-7.22984E-006	0.00000E+000	7.36307E-004	-3.27687E+002	7	...........
	27	28	4.06682E+000	-1.77793E-006	0.00000E+000	-7.23054E-006	0.00000E+000	7.37190E-004	-3.27687E+002	7	...........
	28	29	4.06676E+000	-1.77755E-006	0.00000E+000	-7.22889E-006	0.00000E+000	7.37357E-004	-3.27687E+002	7	...........
	29	30	4.06670E+000	-1.77722E-006	0.00000E+000	-7.22743E-006	0.00000E+000	7.37157E-004	-3.27687E+002	7	...........
	30	31	4.06665E+000	-1.77711E-006	0.00000E+000	-7.22687E-006	0.00000E+000	7.35557E-004	-3.27687E+002	7	...........
	31	32	4.06658E+000	-1.77736E-006	0.00000E+000	-7.22778E-006	0.00000E+000	7.34124E-004	-3.27687E+002	7	...........
	32	33	4.06652E+000	-1.77697E-006	0.00000E+000	-7.22611E-006	0.00000E+000	7.35157E-004	-3.27687E+002	7	...........
	33	34	4.06645E+000	-1.77748E-006	0.00000E+000	-7.22804E-006	0.00000E+000	7.32790E-004	-3.27687E+002	7	...........
	34	35	4.06639E+000	-1.77743E-006	0.00000E+000	-7.22773E-006	0.00000E+000	7.32907E-004	-3.27687E+002	7	...........
	35	36	4.06633E+000	-1.77769E-006	0.00000E+000	-7.22866E-006	0.00000E+000	7.33257E-004	-3.27687E+002	7	...........
	36	37	4.06626E+000	-1.77705E-006	0.00000E+000	-7.22596E-006	0.00000E+000	7.31040E-004	-3.27687E+002	7	...........
	37	38	4.06621E+000	-1.77635E-006	0.00000E+000	-7.22300E-006	0.00000E+000	7.30724E-004	-3.27687E+002	7	...........
	38	39	4.06615E+000	-1.77719E-006	0.00000E+000	-7.22629E-006	0.00000E+000	7.32440E-004	-3.27687E+002	7	...........
	39	40	4.06608E+000	-1.77766E-006	0.00000E+000	-7.22809E-006	0.00000E+000	7.29724E-004	-3.27687E+002	7	...........
	40	41	4.06601E+000	-1.77671E-006	0.00000E+000	-7.22412E-006	0.00000E+000	7.32890E-004	-3.27687E+002	7	...........
	41	42	4.06597E+000	-1.77688E-006	0.00000E+000	-7.22472E-006	0.00000E+000	7.29574E-004	-3.27687E+002	7	...........
	42	43	4.06590E+000	-1.77684E-006	0.00000E+000	-7.22444E-006	0.00000E+000	7.31907E-004	-3.27687E+002	7	...........
	43	44	4.06586E+000	-1.77667E-006	0.00000E+000	-7.22368E-006	0.00000E+000	7.32607E-004	-3.27687E+002	7	...........
	44	45	4.06579E+000	-1.77613E-006	0.00000E+000	-7.22136E-006	0.00000E+000	7.33540E-004	-3.27687E+002	7	...........
	45	46	4.06573E+000	-1.77576E-006	0.00000E+000	-7.21975E-006	0.00000E+000	7.32674E-004	-3.27687E+002	7	...........
	46	47	4.06567E+000	-1.77646E-006	0.00000E+000	-7.22249E-006	0.00000E+000	7.34107E-004	-3.27687E+002	7	...........
	47	48	4.06563E+000	-1.77654E-006	0.00000E+000	-7.22274E-006	0.00000E+000	7.37207E-004	-3.27687E+002	7	...........
	48	49	4.06558E+000	-1.77630E-006	0.00000E+000	-7.22170E-006	0.00000E+000	7.34957E-004	-3.27687E+002	7	...........
	49	50	4.06553E+000	-1.77561E-006	0.00000E+000	-7.21879E-006	0.00000E+000	7.34407E-004	-3.27687E+002	7	...........
	50	51	4.06549E+000	-1.77549E-006	0.00000E+000	-7.21826E-006	0.00000E+000	7.34224E-004	-3.27687E+002	7	...........
	51	52	4.06545E+000	-1.77525E-006	0.00000E+000	-7.21718E-006	0.00000E+000	7.36457E-004	-3.27687E+002	7	...........
	52	53	4.06541E+000	-1.77513E-006	0.00000E+000	-7.21661E-006	0.00000E+000	7.37174E-004	-3.27687E+002	7	...........
	53	54	4.06537E+000	-1.77481E-006	0.00000E+000	-7.21524E-006	0.00000E+000	7.36440E-004	-3.27687E+002	7	...........
	54	55	4.06533E+000	-1.77496E-006	0.00000E+000	-7.21579E-006	0.00000E+000	7.40174E-004	-3.27687E+002	7	...........
	55	56	4.06529E+000	-1.77501E-006	0.00000E+000	-7.21594E-006	0.00000E+000	7.33990E-004	-3.27687E+002	7	...........
	56	57	4.06526E+000	-1.77426E-006	0.00000E+000	-7.21282E-006	0.00000E+000	7.35690E-004	-3.27687E+002	7	...........
	57	58	4.06523E+000	-1.77529E-006	0.00000E+000	-7.21694E-006	0.00000E+000	7.38307E-004	-3.27687E+002	7	...........
	58	59	4.06519E+000	-1.77533E-006	0.00000E+000	-7.21704E-006	0.00000E+000	7.34990E-004	-3.27687E+002	7	...........
	59	60	4.06515E+000	-1.77553E-006	0.00000E+000	-7.21781E-006	0.00000E+000	7.36474E-004	-3.27687E+002	7	...........
	60	61	4.06511E+000	-1.77539E-006	0.00000E+000	-7.21714E-006	0.00000E+000	7.33574E-004	-3.27687E+002	7	...........
	61	62	4.06507E+000	-1.77465E-006	0.00000E+000	-7.21408E-006	0.00000E+000	7.34007E-004	-3.27687E+002	7	...........
	62	63	4.06503E+000	-1.77411E-006	0.00000E+000	-7.21182E-006	0.00000E+000	7.32424E-004	-3.27687E+002	7	...........
	63	64	4.06499E+000	-1.77471E-006	0.00000E+000	-7.21417E-006	0.00000E+000	7.31040E-004	-3.27687E+002	7	...........
	64	65	4.06495E+000	-1.77464E-006	0.00000E+000	-7.21382E-006	0.00000E+000	7.31307E-004	-3.27687E+002	7	...........
	65	66	4.06489E+000	-1.77406E-006	0.00000E+000	-7.21137E-006	0.00000E+000	7.31407E-004	-3.27687E+002	7	...........
	66	67	4.06485E+000	-1.77413E-006	0.00000E+000	-7.21156E-006	0.00000E+000	7.30557E-004	-3.27687E+002	7	...........
	67	68	4.06481E+000	-1.77436E-006	0.00000E+000	-7.21245E-006	0.00000E+000	7.31307E-004	-3.27687E+002	7	...........
	68	69	4.06477E+000	-1.77430E-006	0.00000E+000	-7.21210E-006	0.00000E+000	7.31557E-004	-3.27687E+002	7	...........
	69	70	4.06471E+000	-1.77479E-006	0.00000E+000	-7.21401E-006	0.00000E+000	7.27190E-004	-3.27687E+002	7	...........
	70	71	4.06467E+000	-1.77425E-006	0.00000E+000	-7.21172E-006	0.00000E+000	7.27457E-004	-3.27687E+002	7	...........
	71	72	4.06461E+000	-1.77414E-006	0.00000E+000	-7.21117E-006	0.00000E+000	7.26457E-004	-3.27687E+002	7	...........
	72	73	4.06457E+000	-1.77439E-006	0.00000E+000	-7.21211E-006	0.00000E+000	7.27857E-004	-3.27687E+002	7	...........
	73	74	4.06451E+000	-1.77455E-006	0.00000E+000	-7.21267E-006	0.00000E+000	7.27524E-004	-3.27687E+002	7	...........
	74	75	4.06446E+000	-1.77400E-006	0.00000E+000	-7.21036E-006	0.00000E+000	7.28874E-004	-3.27687E+002	7	...........
	75	76	4.06441E+000	-1.77376E-006	0.00000E+000	-7.20929E-006	0.00000E+000	7.26757E-004	-3.27687E+002	7	...........
	76	77	4.06436E+000	-1.77490E-006	0.00000E+000	-7.21382E-006	0.00000E+000	7.28974E-004	-3.27687E+002	7	...........
	77	78	4.06431E+000	-1.77499E-006	0.00000E+000	-7.21408E-006	0.00000E+000	7.28574E-004	-3.27687E+002	7	...........
	78	79	4.06426E+000	-1.77456E-006	0.00000E+000	-7.21227E-006	0.00000E+000	7.29974E-004	-3.27687E+002	7	...........
	79	80	4.06420E+000	-1.77395E-006	0.00000E+000	-7.20970E-006	0.00000E+000	7.29107E-004	-3.27687E+002	7	...........
	80	81	4.06414E+000	-1.77433E-006	0.00000E+000	-7.21113E-006	0.00000E+000	7.32857E-004	-3.27687E+002	7	...........
	81	82	4.06408E+000	-1.77409E-006	0.00000E+000	-7.21007E-006	0.00000E+000	7.30957E-004	-3.27687E+002	7	...........
	82	83	4.06405E+000	-1.77557E-006	0.00000E+000	-7.21599E-006	0.00000E+000	7.33507E-004	-3.27687E+002	7	...........
	83	84	4.06398E+000	-1.77495E-006	0.00000E+000	-7.21338E-006	0.00000E+000	7.32374E-004	-3.27687E+002	7	...........
	84	85	4.06393E+000	-1.77479E-006	0.00000E+000	-7.21262E-006	0.00000E+000	7.35557E-004	-3.27687E+002	7	...........
	85	86	4.06387E+000	-1.77449E-006	0.00000E+000	-7.21128E-006	0.00000E+000	7.37574E-004	-3.27687E+002	7	...........
	86	87	4.06382E+000	-1.77414E-006	0.00000E+000	-7.20978E-006	0.00000E+000	7.33640E-004	-3.27687E+002	7	...........
	87	88	4.06378E+000	-1.77246E-006	0.00000E+000	-7.20289E-006	0.00000E+000	7.32207E-004	-3.27687E+002	7	...........
	88	89	4.06373E+000	-1.77269E-006	0.00000E+000	-7.20375E-006	0.00000E+000	7.36690E-004	-3.27687E+002	7	...........
	89	90	4.06367E+000	-1.77329E-006	0.00000E+000	-7.20606E-006	0.00000E+000	7.35557E-004	-3.27687E+002	7	...........
	90	91	4.06363E+000	-1.77274E-006	0.00000E+000	-7.20376E-006	0.00000E+000	7.37424E-004	-3.27687E+002	7	...........
	91	92	4.06360E+000	-1.77281E-006	0.00000E+000	-7.20399E-006	0.00000E+000	7.36557E-004	-3.27687E+002	7	...........
	92	93	4.06355E+000	-1.77276E-006	0.00000E+000	-7.20370E-006	0.00000E+000	7.35707E-004	-3.27687E+002	7	...........
	93	94	4.06352E+000	-1.77175E-006	0.00000E+000	-7.19953E-006	0.00000E+000	7.37307E-004	-3.27687E+002	7	...........
	94	95	4.06349E+000	-1.77180E-006	0.00000E+000	-7.19967E-006	0.00000E+000	7.37824E-004	-3.27687E+002	7	...........
	95	96	4.06345E+000	-1.77156E-006	0.00000E+000	-7.19866E-006	0.00000E+000	7.37657E-004	-3.27687E+002	7	...........
	96	97	4.06342E+000	-1.77175E-006	0.00000E+000	-7.19935E-006	0.00000E+000	7.37540E-004	-3.27687E+002	7	...........
	97	98	4.06340E+000	-1.77216E-006	0.00000E+000	-7.20099E-006	0.00000E+000	7.37757E-004	-3.27687E+002	7	...........
	98	99	4.06337E+000	-1.77100E-006	0.00000E+000	-7.19623E-006	0.00000E+000	7.35657E-004	-3.27687E+002	7	...........
	99	100	4.06334E+000	-1.77109E-006	0.00000E+000	-7.19656E-006	0.00000E+000	7.35457E-004	-3.27687E+002	7	...........
	100	101	4.06331E+000	-1.77014E-006	0.00000E+000	-7.19261E-006	0.00000E+000	7.36440E-004	-3.27687E+002	7	...........
	101	102	4.06328E+000	-1.77134E-006	0.00000E+000	-7.19746E-006	0.00000E+000	7.34990E-004	-3.27687E+002	7	...........
	102	103	4.06326E+000	-1.77099E-006	0.00000E+000	-7.19601E-006	0.00000E+000	7.33724E-004	-3.27687E+002	7	...........
	103	104	4.06325E+000	-1.77125E-006	0.00000E+000	-7.19702E-006	0.00000E+000	7.34974E-004	-3.27687E+002	7	...........
	104	105	4.06322E+000	-1.77062E-006	0.00000E+000	-7.19442E-006	0.00000E+000	7.34874E-004	-3.27687E+002	7	...........
	105	106	4.06320E+000	-1.77107E-006	0.00000E+000	-7.19619E-006	0.00000E+000	7.34674E-004	-3.27687E+002	7	...........
	106	107	4.06319E+000	-1.77092E-006	0.00000E+000	-7.19560E-006	0.00000E+000	7.32374E-004	-3.27687E+002	7	...........
	107	108	4.06316E+000	-1.77077E-006	0.00000E+000	-7.19494E-006	0.00000E+000	7.31240E-004	-3.27687E+002	7	...........
	108	109	4.06315E+000	-1.77119E-006	0.00000E+000	-7.19663E-006	0.00000E+000	7.31357E-004	-3.27687E+002	7	...........
	109	110	4.06312E+000	-1.77064E-006	0.00000E+000	-7.19434E-006	0.00000E+000	7.33290E-004	-3.27687E+002	7	...........
	110	111	4.06311E+000	-1.77054E-006	0.00000E+000	-7.19392E-006	0.00000E+000	7.30290E-004	-3.27687E+002	7	...........
	111	112	4.06310E+000	-1.77120E-006	0.00000E+000	-7.19657E-006	0.00000E+000	7.32424E-004	-3.27687E+002	7	...........
	112	113	4.06307E+000	-1.77010E-006	0.00000E+000	-7.19205E-006	0.00000E+000	7.29857E-004	-3.27687E+002	7	...........
	113	114	4.06306E+000	-1.77110E-006	0.00000E+000	-7.19608E-006	0.00000E+000	7.31190E-004	-3.27687E+002	7	...........
	114	115	4.06304E+000	-1.77124E-006	0.00000E+000	-7.19664E-006	0.00000E+000	7.28907E-004	-3.27687E+002	7	...........
	115	116	4.06303E+000	-1.77090E-006	0.00000E+000	-7.19523E-006	0.00000E+000	7.28824E-004	-3.27687E+002	7	...........
	116	117	4.06302E+000	-1.77075E-006	0.00000E+000	-7.19460E-006	0.00000E+000	7.29907E-004	-3.27687E+002	7	...........
	117	118	4.06300E+000	-1.77059E-006	0.00000E+000	-7.19392E-006	0.00000E+000	7.30724E-004	-3.27687E+002	7	...........
	118	119	4.06299E+000	-1.77019E-006	0.00000E+000	-7.19227E-006	0.00000E+000	7.26974E-004	-3.27687E+002	7	...........
	119	120	4.06298E+000	-1.77027E-006	0.00000E+000	-7.19255E-006	0.00000E+000	7.28374E-004	-3.27687E+002	7	...........
	120	121	4.06296E+000	-1.77140E-006	0.00000E+000	-7.19712E-006	0.00000E+000	7.29474E-004	-3.27687E+002	7	...........
	121	122	4.06294E+000	-1.77145E-006	0.00000E+000	-7.19728E-006	0.00000E+000	7.25374E-004	-3.27687E+002	7	...........
	122	123	4.06293E+000	-1.77075E-006	0.00000E+000	-7.19445E-006	0.00000E+000	7.27624E-004	-3.27687E+002	7	...........
	123	124	4.06291E+000	-1.77109E-006	0.00000E+000	-7.19579E-006	0.00000E+000	7.25974E-004	-3.27687E+002	7	...........
	124	125	4.06290E+000	-1.77100E-006	0.00000E+000	-7.19541E-006	0.00000E+000	7.27857E-004	-3.27687E+002	7	...........
	125	126	4.06288E+000	-1.76994E-006	0.00000E+000	-7.19107E-006	0.00000E+000	7.28274E-004	-3.27687E+002	7	...........
	126	127	4.06287E+000	-1.77044E-006	0.00000E+000	-7.19305E-006	0.00000E+000	7.27457E-004	-3.27687E+002	7	...........
	127	128	4.06285E+000	-1.76970E-006	0.00000E+000	-7.19002E-006	0.00000E+000	7.25840E-004	-3.27687E+002	7	...........
	128	129	4.06284E+000	-1.76912E-006	0.00000E+000	-7.18764E-006	0.00000E+000	7.25124E-004	-3.27687E+002	7	...........
	129	130	4.06281E+000	-1.76960E-006	0.00000E+000	-7.18957E-006	0.00000E+000	7.23774E-004	-3.27687E+002	7	...........
	130	131	4.06280E+000	-1.77000E-006	0.00000E+000	-7.19115E-006	0.00000E+000	7.26624E-004	-3.27687E+002	7	...........
	131	132	4.06278E+000	-1.76918E-006	0.00000E+000	-7.18780E-006	0.00000E+000	7.27040E-004	-3.27687E+002	7	...........
	132	133	4.06277E+000	-1.76989E-006	0.00000E+000	-7.19066E-006	0.00000E+000	7.26574E-004	-3.27687E+002	7	...........
	133	134	4.06274E+000	-1.76998E-006	0.00000E+000	-7.19096E-006	0.00000E+000	7.26424E-004	-3.27687E+002	7	...........
	134	135	4.06272E+000	-1.76956E-006	0.00000E+000	-7.18924E-006	0.00000E+000	7.24624E-004	-3.27687E+002	7	...........
	135	136	4.06270E+000	-1.76972E-006	0.00000E+000	-7.18983E-006	0.00000E+000	7.26224E-004	-3.27687E+002	7	...........
	136	137	4.06269E+000	-1.76910E-006	0.00000E+000	-7.18730E-006	0.00000E+000	7.24124E-004	-3.27687E+002	7	...........
	137	138	4.06267E+000	-1.76853E-006	0.00000E+000	-7.18495E-006	0.00000E+000	7.28290E-004	-3.27687E+002	7	...........
	138	139	4.06265E+000	-1.76938E-006	0.00000E+000	-7.18836E-006	0.00000E+000	7.28374E-004	-3.27687E+002	7	...........
	139	140	4.06263E+000	-1.76870E-006	0.00000E+000	-7.18557E-006	0.00000E+000	7.29724E-004	-3.27687E+002	7	...........
	140	141	4.06260E+000	-1.76905E-006	0.00000E+000	-7.18696E-006	0.00000E+000	7.29707E-004	-3.27687E+002	7	...........
	141	142	4.06259E+000	-1.76871E-006	0.00000E+000	-7.18552E-006	0.00000E+000	7.28574E-004	-3.27687E+002	7	...........
	142	143	4.06256E+000	-1.76878E-006	0.00000E+000	-7.18576E-006	0.00000E+000	7.27474E-004	-3.27687E+002	7	...........
	143	144	4.06255E+000	-1.76943E-006	0.00000E+000	-7.18838E-006	0.00000E+000	7.25607E-004	-3.27687E+002	7	...........
	144	145	4.06252E+000	-1.76974E-006	0.00000E+000	-7.18959E-006	0.00000E+000	7.30124E-004	-3.27687E+002	7	...........
	145	146	4.06250E+000	-1.76929E-006	0.00000E+000	-7.18774E-006	0.00000E+000	7.28874E-004	-3.27687E+002	7	...........
	146	147	4.06248E+000	-1.76919E-006	0.00000E+000	-7.18731E-006	0.00000E+000	7.27974E-004	-3.27687E+002	7	...........
	147	148	4.06246E+000	-1.76898E-006	0.00000E+000	-7.18639E-006	0.00000E+000	7.28874E-004	-3.27687E+002	7	...........
	148	149	4.06244E+000	-1.76856E-006	0.00000E+000	-7.18467E-006	0.00000E+000	7.30940E-004	-3.27687E+002	7	...........
	149	150	4.06242E+000	-1.76878E-006	0.00000E+000	-7.18554E-006	0.00000E+000	7.29840E-004	-3.27687E+002	7	...........
	150	151	4.06240E+000	-1.76772E-006	0.00000E+000	-7.18119E-006	0.00000E+000	7.29940E-004	-3.27687E+002	7	...........
	151	152	4.06238E+000	-1.76875E-006	0.00000E+000	-7.18531E-006	0.00000E+000	7.32724E-004	-3.27687E+002	7	...........
	152	153	4.06237E+000	-1.76950E-006	0.00000E+000	-7.18836E-006	0.00000E+000	7.30107E-004	-3.27687E+002	7	...........
	153	154	4.06235E+000	-1.76912E-006	0.00000E+000	-7.18680E-006	0.00000E+000	7.30407E-004	-3.27687E+002	7	...........
	154	155	4.06234E+000	-1.76891E-006	0.00000E+000	-7.18589E-006	0.00000E+000	7.29574E-004	-3.27687E+002	7	...........
	155	156	4.06231E+000	-1.76913E-006	0.00000E+000	-7.18676E-006	0.00000E+000	7.28174E-004	-3.27687E+002	7	...........
	156	157	4.06229E+000	-1.76930E-006	0.00000E+000	-7.18742E-006	0.00000E+000	7.31974E-004	-3.27687E+002	7	...........
	157	158	4.06228E+000	-1.76933E-006	0.00000E+000	-7.18749E-006	0.00000E+000	7.31340E-004	-3.27687E+002	7	...........
	158	159	4.06226E+000	-1.76955E-006	0.00000E+000	-7.18838E-006	0.00000E+000	7.29857E-004	-3.27687E+002	7	...........
	159	160	4.06223E+000	-1.76888E-006	0.00000E+000	-7.18561E-006	0.00000E+000	7.29074E-004	-3.27687E+002	7	...........
	160	161	4.06222E+000	-1.76900E-006	0.00000E+000	-7.18605E-006	0.00000E+000	7.29557E-004	-3.27687E+002	7	...........
	161	162	4.06221E+000	-1.76879E-006	0.00000E+000	-7.18520E-006	0.00000E+000	7.28540E-004	-3.27687E+002	7	...........
	162	163	4.06219E+000	-1.76793E-006	0.00000E+000	-7.18169E-006	0.00000E+000	7.28240E-004	-3.27687E+002	7	...........
	163	164	4.06217E+000	-1.76848E-006	0.00000E+000	-7.18386E-006	0.00000E+000	7.29340E-004	-3.27687E+002	7	...........
	164	165	4.06216E+000	-1.76828E-006	0.00000E+000	-7.18304E-006	0.00000E+000	7.27257E-004	-3.27687E+002	7	...........
	165	166	4.06214E+000	-1.76873E-006	0.00000E+000	-7.18483E-006	0.00000E+000	7.29090E-004	-3.27687E+002	7	...........
	166	167	4.06212E+000	-1.76838E-006	0.00000E+000	-7.18338E-006	0.00000E+000	7.29257E-004	-3.27687E+002	7	...........
	167	168	4.06211E+000	-1.76802E-006	0.00000E+000	-7.18190E-006	0.00000E+000	7.26640E-004	-3.27687E+002	7	...........
	168	169	4.06209E+000	-1.76783E-006	0.00000E+000	-7.18107E-006	0.00000E+000	7.27790E-004	-3.27687E+002	7	...........
	169	170	4.06208E+000	-1.76711E-006	0.00000E+000	-7.17815E-006	0.00000E+000	7.25657E-004	-3.27687E+002	7	...........
	170	171	4.06206E+000	-1.76837E-006	0.00000E+000	-7.18321E-006	0.00000E+000	7.27740E-004	-3.27687E+002	7	...........
	171	172	4.06204E+000	-1.76793E-006	0.00000E+000	-7.18141E-006	0.00000E+000	7.25957E-004	-3.27687E+002	7	...........
	172	173	4.06202E+000	-1.76846E-006	0.00000E+000	-7.18352E-006	0.00000E+000	7.25057E-004	-3.27687E+002	7	...........
	173	174	4.06201E+000	-1.76780E-006	0.00000E+000	-7.18082E-006	0.00000E+000	7.26257E-004	-3.27687E+002	7	...........
	174	175	4.06200E+000	-1.76771E-006	0.00000E+000	-7.18044E-006	0.00000E+000	7.23624E-004	-3.27687E+002	7	...........
	175	176	4.06199E+000	-1.76772E-006	0.00000E+000	-7.18045E-006	0.00000E+000	7.24590E-004	-3.27687E+002	7	...........
	176	177	4.06196E+000	-1.76787E-006	0.00000E+000	-7.18102E-006	0.00000E+000	7.25124E-004	-3.27687E+002	7	...........
	177	178	4.06196E+000	-1.76744E-006	0.00000E+000	-7.17926E-006	0.00000E+000	7.24024E-004	-3.27687E+002	7	...........
	178	179	4.06195E+000	-1.76746E-006	0.00000E+000	-7.17934E-006	0.00000E+000	7.25124E-004	-3.27687E+002	7	...........
	179	180	4.06193E+000	-1.76638E-006	0.00000E+000	-7.17492E-006	0.00000E+000	7.24840E-004	-3.27687E+002	7	...........
	180	181	4.06192E+000	-1.76740E-006	0.00000E+000	-7.17903E-006	0.00000E+000	7.23824E-004	-3.27687E+002	7	...........
	181	182	4.06190E+000	-1.76713E-006	0.00000E+000	-7.17792E-006	0.00000E+000	7.22124E-004	-3.27687E+002	7	...........
	182	183	4.06189E+000	-1.76746E-006	0.00000E+000	-7.17924E-006	0.00000E+000	7.23607E-004	-3.27687E+002	7	...........
	183	184	4.06187E+000	-1.76773E-006	0.00000E+000	-7.18029E-006	0.00000E+000	7.22357E-004	-3.27687E+002	7	...........
	184	185	4.06185E+000	-1.76853E-006	0.00000E+000	-7.18349E-006	0.00000E+000	7.23290E-004	-3.27687E+002	7	...........
	185	186	4.06184E+000	-1.76838E-006	0.00000E+000	-7.18290E-006	0.00000E+000	7.24207E-004	-3.27687E+002	7	...........
	186	187	4.06183E+000	-1.76840E-006	0.00000E+000	-7.18294E-006	0.00000E+000	7.23657E-004	-3.27687E+002	7	...........
	187	188	4.06181E+000	-1.76676E-006	0.00000E+000	-7.17624E-006	0.00000E+000	7.21457E-004	-3.27687E+002	7	...........
	188	189	4.06179E+000	-1.76732E-006	0.00000E+000	-7.17847E-006	0.00000E+000	7.19974E-004	-3.27687E+002	7	...........
	189	190	4.06177E+000	-1.76808E-006	0.00000E+000	-7.18154E-006	0.00000E+000	7.20974E-004	-3.27687E+002	7	...........
	190	191	4.06176E+000	-1.76772E-006	0.00000E+000	-7.18003E-006	0.00000E+000	7.20557E-004	-3.27687E+002	7	...........
	191	192	4.06173E+000	-1.76755E-006	0.00000E+000	-7.17932E-006	0.00000E+000	7.19340E-004	-3.27687E+002	7	...........
	192	193	4.06173E+000	-1.76722E-006	0.00000E+000	-7.17796E-006	0.00000E+000	7.16524E-004	-3.27687E+002	7	...........
	193	194	4.06170E+000	-1.76740E-006	0.00000E+000	-7.17865E-006	0.00000E+000	7.17757E-004	-3.27687E+002	7	...........
	194	195	4.06169E+000	-1.76703E-006	0.00000E+000	-7.17714E-006	0.00000E+000	7.16690E-004	-3.27687E+002	7	...........
	195	196	4.06167E+000	-1.76707E-006	0.00000E+000	-7.17724E-006	0.00000E+000	7.19324E-004	-3.27687E+002	7	...........
	196	197	4.06165E+000	-1.76757E-006	0.00000E+000	-7.17925E-006	0.00000E+000	7.15907E-004	-3.27687E+002	7	...........
	197	198	4.06163E+000	-1.76713E-006	0.00000E+000	-7.17743E-006	0.00000E+000	7.15540E-004	-3.27687E+002	7	...........
	198	199	4.06162E+000	-1.76741E-006	0.00000E+000	-7.17854E-006	0.00000E+000	7.17257E-004	-3.27687E+002	7	...........
	199	200	4.06160E+000	-1.76755E-006	0.00000E+000	-7.17908E-006	0.00000E+000	7.14440E-004	-3.27687E+002	7	...........
	200	201	4.06158E+000	-1.76722E-006	0.00000E+000	-7.17773E-006	0.00000E+000	7.14440E-004	-3.27687E+002	7	...........
	201	202	4.06156E+000	-1.76702E-006	0.00000E+000	-7.17686E-006	0.00000E+000	7.15057E-004	-3.27687E+002	7	...........
	202	203	4.06154E+000	-1.76735E-006	0.00000E+000	-7.17818E-006	0.00000E+000	7.15707E-004	-3.27687E+002	7	...........
	203	204	4.06152E+000	-1.76650E-006	0.00000E+000	-7.17470E-006	0.00000E+000	7.17857E-004	-3.27687E+002	7	...........
	204	205	4.06150E+000	-1.76654E-006	0.00000E+000	-7.17479E-006	0.00000E+000	7.14507E-004	-3.27687E+002	7	...........
	205	206	4.06150E+000	-1.76698E-006	0.00000E+000	-7.17658E-006	0.00000E+000	7.15440E-004	-3.27687E+002	7	...........
	206	207	4.06148E+000	-1.76691E-006	0.00000E+000	-7.17627E-006	0.00000E+000	7.18124E-004	-3.27687E+002	7	...........
	207	208	4.06146E+000	-1.76749E-006	0.00000E+000	-7.17861E-006	0.00000E+000	7.16024E-004	-3.27687E+002	7	...........
	208	209	4.06144E+000	-1.76751E-006	0.00000E+000	-7.17862E-006	0.00000E+000	7.15857E-004	-3.27687E+002	7	...........
	209	210	4.06143E+000	-1.76713E-006	0.00000E+000	-7.17706E-006	0.00000E+000	7.14407E-004	-3.27687E+002	7	...........
	210	211	4.06140E+000	-1.76753E-006	0.00000E+000	-7.17866E-006	0.00000E+000	7.14674E-004	-3.27687E+002	7	...........
	211	212	4.06139E+000	-1.76699E-006	0.00000E+000	-7.17644E-006	0.00000E+000	7.15290E-004	-3.27687E+002	7	...........
	212	213	4.06136E+000	-1.76631E-006	0.00000E+000	-7.17364E-006	0.00000E+000	7.13790E-004	-3.27687E+002	7	...........
	213	214	4.06136E+000	-1.76696E-006	0.00000E+000	-7.17627E-006	0.00000E+000	7.15490E-004	-3.27687E+002	7	...........
	214	215	4.06133E+000	-1.76750E-006	0.00000E+000	-7.17841E-006	0.00000E+000	7.13240E-004	-3.27687E+002	7	...........
	215	216	4.06132E+000	-1.76711E-006	0.00000E+000	-7.17679E-006	0.00000E+000	7.14574E-004	-3.27687E+002	7	...........
	216	217	4.06131E+000	-1.76718E-006	0.00000E+000	-7.17705E-006	0.00000E+000	7.17540E-004	-3.27687E+002	7	...........
	217	218	4.06129E+000	-1.76717E-006	0.00000E+000	-7.17699E-006	0.00000E+000	7.15090E-004	-3.27687E+002	7	...........
	218	219	4.06127E+000	-1.76722E-006	0.00000E+000	-7.17717E-006	0.00000E+000	7.16190E-004	-3.27687E+002	7	...........
	219	220	4.06125E+000	-1.76708E-006	0.00000E+000	-7.17654E-006	0.00000E+000	7.14407E-004	-3.27687E+002	7	...........
	220	221	4.06122E+000	-1.76707E-006	0.00000E+000	-7.17646E-006	0.00000E+000	7.14957E-004	-3.27687E+002	7	...........
	221	222	4.06120E+000	-1.76678E-006	0.00000E+000	-7.17527E-006	0.00000E+000	7.14774E-004	-3.27687E+002	7	...........
	222	223	4.06121E+000	-1.76703E-006	0.00000E+000	-7.17629E-006	0.00000E+000	7.15840E-004	-3.27687E+002	7	...........
	223	224	4.06118E+000	-1.76713E-006	0.00000E+000	-7.17664E-006	0.00000E+000	7.16740E-004	-3.27687E+002	7	...........
	224	225	4.06116E+000	-1.76715E-006	0.00000E+000	-7.17667E-006	0.00000E+000	7.16840E-004	-3.27687E+002	7	...........
	225	226	4.06116E+000	-1.76639E-006	0.00000E+000	-7.17358E-006	0.00000E+000	7.19240E-004	-3.27687E+002	7	...........
	226	227	4.06114E+000	-1.76621E-006	0.00000E+000	-7.17282E-006	0.00000E+000	7.17940E-004	-3.27687E+002	7	...........
	227	228	4.06112E+000	-1.76703E-006	0.00000E+000	-7.17614E-006	0.00000E+000	7.18124E-004	-3.27687E+002	7	...........
	228	229	4.06110E+000	-1.76597E-006	0.00000E+000	-7.17180E-006	0.00000E+000	7.17557E-004	-3.27687E+002	7	...........
	229	230	4.06110E+000	-1.76617E-006	0.00000E+000	-7.17259E-006	0.00000E+000	7.16574E-004	-3.27687E+002	7	...........
	230	231	4.06108E+000	-1.76606E-006	0.00000E+000	-7.17210E-006	0.00000E+000	7.16707E-004	-3.27687E+002	7	...........
	231	232	4.06106E+000	-1.76680E-006	0.00000E+000	-7.17507E-006	0.00000E+000	7.19757E-004	-3.27687E+002	7	...........
	232	233	4.06104E+000	-1.76693E-006	0.00000E+000	-7.17560E-006	0.00000E+000	7.20807E-004	-3.27687E+002	7	...........
	233	234	4.06103E+000	-1.76615E-006	0.00000E+000	-7.17236E-006	0.00000E+000	7.18674E-004	-3.27687E+002	7	...........
	234	235	4.06101E+000	-1.76657E-006	0.00000E+000	-7.17407E-006	0.00000E+000	7.19640E-004	-3.27687E+002	7	...........
	235	236	4.06099E+000	-1.76697E-006	0.00000E+000	-7.17566E-006	0.00000E+000	7.20140E-004	-3.27687E+002	7	...........
	236	237	4.06097E+000	-1.76723E-006	0.00000E+000	-7.17667E-006	0.00000E+000	7.20240E-004	-3.27687E+002	7	...........
	237	238	4.06097E+000	-1.76690E-006	0.00000E+000	-7.17533E-006	0.00000E+000	7.20007E-004	-3.27687E+002	7	...........
	238	239	4.06096E+000	-1.76619E-006	0.00000E+000	-7.17243E-006	0.00000E+000	7.19707E-004	-3.27687E+002	7	...........
	239	240	4.06093E+000	-1.76705E-006	0.00000E+000	-7.17589E-006	0.00000E+000	7.23557E-004	-3.27687E+002	7	...........
	240	241	4.06091E+000	-1.76730E-006	0.00000E+000	-7.17683E-006	0.00000E+000	7.24924E-004	-3.27687E+002	7	...........
	241	242	4.06090E+000	-1.76630E-006	0.00000E+000	-7.17277E-006	0.00000E+000	7.24107E-004	-3.27687E+002	7	...........
	242	243	4.06088E+000	-1.76679E-006	0.00000E+000	-7.17471E-006	0.00000E+000	7.22357E-004	-3.27687E+002	7	...........
	243	244	4.06087E+000	-1.76666E-006	0.00000E+000	-7.17418E-006	0.00000E+000	7.25424E-004	-3.27687E+002	7	...........
	244	245	4.06085E+000	-1.76675E-006	0.00000E+000	-7.17453E-006	0.00000E+000	7.24024E-004	-3.27687E+002	7	...........
	245	246	4.06083E+000	-1.76735E-006	0.00000E+000	-7.17693E-006	0.00000E+000	7.29107E-004	-3.27687E+002	7	...........
	246	247	4.06082E+000	-1.76708E-006	0.00000E+000	-7.17579E-006	0.00000E+000	7.23040E-004	-3.27687E+002	7	...........
	247	248	4.06080E+000	-1.76734E-006	0.00000E+000	-7.17682E-006	0.00000E+000	7.27390E-004	-3.27687E+002	7	...........
	248	249	4.06079E+000	-1.76761E-006	0.00000E+000	-7.17790E-006	0.00000E+000	7.26224E-004	-3.27687E+002	7	...........
	249	250	4.06077E+000	-1.76696E-006	0.00000E+000	-7.17523E-006	0.00000E+000	7.27157E-004	-3.27687E+002	7	...........
	250	251	4.06075E+000	-1.76573E-006	0.00000E+000	-7.17021E-006	0.00000E+000	7.30507E-004	-3.27687E+002	7	...........
	251	252	4.06074E+000	-1.76603E-006	0.00000E+000	-7.17141E-006	0.00000E+000	7.27674E-004	-3.27687E+002	7	...........
	252	253	4.06074E+000	-1.76675E-006	0.00000E+000	-7.17431E-006	0.00000E+000	7.28374E-004	-3.27687E+002	7	...........
	253	254	4.06072E+000	-1.76698E-006	0.00000E+000	-7.17523E-006	0.00000E+000	7.28574E-004	-3.27687E+002	7	...........
	254	255	4.06071E+000	-1.76622E-006	0.00000E+000	-7.17209E-006	0.00000E+000	7.29740E-004	-3.27687E+002	7	...........
	255	256	4.06069E+000	-1.76577E-006	0.00000E+000	-7.17025E-006	0.00000E+000	7.29357E-004	-3.27687E+002	7	...........
	256	257	4.06067E+000	-1.76601E-006	0.00000E+000	-7.17118E-006	0.00000E+000	7.28490E-004	-3.27687E+002	7	...........
	257	258	4.06067E+000	-1.76598E-006	0.00000E+000	-7.17107E-006	0.00000E+000	7.29074E-004	-3.27687E+002	7	...........
	258	259	4.06066E+000	-1.76604E-006	0.00000E+000	-7.17129E-006	0.00000E+000	7.30740E-004	-3.27687E+002	7	...........
	259	260	4.06064E+000	-1.76578E-006	0.00000E+000	-7.17022E-006	0.00000E+000	7.32007E-004	-3.27687E+002	7	...........
	260	261	4.06063E+000	-1.76590E-006	0.00000E+000	-7.17067E-006	0.00000E+000	7.30274E-004	-3.27687E+002	7	...........
	261	262	4.06062E+000	-1.76557E-006	0.00000E+000	-7.16933E-006	0.00000E+000	7.29007E-004	-3.27687E+002	7	...........
	262	263	4.06061E+000	-1.76505E-006	0.00000E+000	-7.16719E-006	0.00000E+000	7.28674E-004	-3.27687E+002	7	...........
	263	264	4.06060E+000	-1.76446E-006	0.00000E+000	-7.16476E-006	0.00000E+000	7.29924E-004	-3.27687E+002	7	...........
	264	265	4.06059E+000	-1.76560E-006	0.00000E+000	-7.16935E-006	0.00000E+000	7.29274E-004	-3.27687E+002	7	...........
	265	266	4.06056E+000	-1.76519E-006	0.00000E+000	-7.16765E-006	0.00000E+000	7.29940E-004	-3.27687E+002	7	...........
	266	267	4.06055E+000	-1.76510E-006	0.00000E+000	-7.16727E-006	0.00000E+000	7.30440E-004	-3.27687E+002	7	...........
	267	268	4.06054E+000	-1.76513E-006	0.00000E+000	-7.16739E-006	0.00000E+000	7.31940E-004	-3.27687E+002	7	...........
	268	269	4.06053E+000	-1.76538E-006	0.00000E+000	-7.16836E-006	0.00000E+000	7.33224E-004	-3.27687E+002	7	...........
	269	270	4.06052E+000	-1.76466E-006	0.00000E+000	-7.16545E-006	0.00000E+000	7.31007E-004	-3.27687E+002	7	...........
	270	271	4.06050E+000	-1.76531E-006	0.00000E+000	-7.16804E-006	0.00000E+000	7.33924E-004	-3.27687E+002	7	...........
	271	272	4.06050E+000	-1.76589E-006	0.00000E+000	-7.17039E-006	0.00000E+000	7.32974E-004	-3.27687E+002	7	...........
	272	273	4.06049E+000	-1.76541E-006	0.00000E+000	-7.16843E-006	0.00000E+000	7.30707E-004	-3.27687E+002	7	...........
	273	274	4.06048E+000	-1.76589E-006	0.00000E+000	-7.17036E-006	0.00000E+000	7.30307E-004	-3.27687E+002	7	...........
	274	275	4.06047E+000	-1.76520E-006	0.00000E+000	-7.16754E-006	0.00000E+000	7.31274E-004	-3.27687E+002	7	...........
	275	276	4.06046E+000	-1.76479E-006	0.00000E+000	-7.16586E-006	0.00000E+000	7.30074E-004	-3.27687E+002	7	...........
	276	277	4.06044E+000	-1.76490E-006	0.00000E+000	-7.16626E-006	0.00000E+000	7.30790E-004	-3.27687E+002	7	...........
	277	278	4.06044E+000	-1.76502E-006	0.00000E+000	-7.16677E-006	0.00000E+000	7.32907E-004	-3.27687E+002	7	...........
	278	279	4.06042E+000	-1.76474E-006	0.00000E+000	-7.16561E-006	0.00000E+000	7.30174E-004	-3.27687E+002	7	...........
	279	280	4.06042E+000	-1.76527E-006	0.00000E+000	-7.16773E-006	0.00000E+000	7.31490E-004	-3.27687E+002	7	...........
	280	281	4.06041E+000	-1.76554E-006	0.00000E+000	-7.16882E-006	0.00000E+000	7.33457E-004	-3.27687E+002	7	...........
	281	282	4.06040E+000	-1.76558E-006	0.00000E+000	-7.16897E-006	0.00000E+000	7.31990E-004	-3.27687E+002	7	...........
	282	283	4.06038E+000	-1.76570E-006	0.00000E+000	-7.16941E-006	0.00000E+000	7.32540E-004	-3.27687E+002	7	...........
	283	284	4.06038E+000	-1.76548E-006	0.00000E+000	-7.16850E-006	0.00000E+000	7.34657E-004	-3.27687E+002	7	...........
	284	285	4.06036E+000	-1.76587E-006	0.00000E+000	-7.17008E-006	0.00000E+000	7.34657E-004	-3.27687E+002	7	...........
	285	286	4.06036E+000	-1.76663E-006	0.00000E+000	-7.17317E-006	0.00000E+000	7.34157E-004	-3.27687E+002	7	...........
	286	287	4.06035E+000	-1.76537E-006	0.00000E+000	-7.16803E-006	0.00000E+000	7.34924E-004	-3.27687E+002	7	...........
	287	288	4.06034E+000	-1.76538E-006	0.00000E+000	-7.16805E-006	0.00000E+000	7.33990E-004	-3.27687E+002	7	...........
	288	289	4.06033E+000	-1.76371E-006	0.00000E+000	-7.16126E-006	0.00000E+000	7.29374E-004	-3.27687E+002	7	...........
	289	290	4.06033E+000	-1.76496E-006	0.00000E+000	-7.16631E-006	0.00000E+000	7.29657E-004	-3.27687E+002	7	...........
	290	291	4.06032E+000	-1.76490E-006	0.00000E+000	-7.16605E-006	0.00000E+000	7.32174E-004	-3.27687E+002	7	...........
	291	292	4.06031E+000	-1.76498E-006	0.00000E+000	-7.16636E-006	0.00000E+000	7.30440E-004	-3.27687E+002	7	...........
	292	293	4.06030E+000	-1.76476E-006	0.00000E+000	-7.16543E-006	0.00000E+000	7.32190E-004	-3.27687E+002	7	...........
	293	294	4.06028E+000	-1.76416E-006	0.00000E+000	-7.16296E-006	0.00000E+000	7.30624E-004	-3.27687E+002	7	...........
	294	295	4.06028E+000	-1.76473E-006	0.00000E+000	-7.16528E-006	0.00000E+000	7.30957E-004	-3.27687E+002	7	...........
	295	296	4.06027E+000	-1.76520E-006	0.00000E+000	-7.16720E-006	0.00000E+000	7.34890E-004	-3.27687E+002	7	...........
	296	297	4.06026E+000	-1.76443E-006	0.00000E+000	-7.16406E-006	0.00000E+000	7.32074E-004	-3.27687E+002	7	...........
	297	298	4.06025E+000	-1.76485E-006	0.00000E+000	-7.16574E-006	0.00000E+000	7.28340E-004	-3.27687E+002	7	...........
	298	299	4.06024E+000	-1.76488E-006	0.00000E+000	-7.16582E-006	0.00000E+000	7.31040E-004	-3.27687E+002	7	...........
	299	300	4.06023E+000	-1.76477E-006	0.00000E+000	-7.16537E-006	0.00000E+000	7.31390E-004	-3.27687E+002	7	...........
	300	301	4.06022E+000	-1.76383E-006	0.00000E+000	-7.16151E-006	0.00000E+000	7.30274E-004	-3.27687E+002	7	...........
	301	302	4.06021E+000	-1.76372E-006	0.00000E+000	-7.16106E-006	0.00000E+000	7.27724E-004	-3.27687E+002	7	...........
	302	303	4.06021E+000	-1.76399E-006	0.00000E+000	-7.16218E-006	0.00000E+000	7.31724E-004	-3.27687E+002	7	...........
	303	304	4.06019E+000	-1.76439E-006	0.00000E+000	-7.16377E-006	0.00000E+000	7.29774E-004	-3.27687E+002	7	...........
	304	305	4.06018E+000	-1.76370E-006	0.00000E+000	-7.16094E-006	0.00000E+000	7.31257E-004	-3.27687E+002	7	...........
	305	306	4.06017E+000	-1.76374E-006	0.00000E+000	-7.16107E-006	0.00000E+000	7.31290E-004	-3.27687E+002	7	...........
	306	307	4.06016E+000	-1.76383E-006	0.00000E+000	-7.16145E-006	0.00000E+000	7.29757E-004	-3.27687E+002	7	...........
	307	308	4.06015E+000	-1.76485E-006	0.00000E+000	-7.16555E-006	0.00000E+000	7.28074E-004	-3.27687E+002	7	...........
	308	309	4.06015E+000	-1.76470E-006	0.00000E+000	-7.16492E-006	0.00000E+000	7.26824E-004	-3.27687E+002	7	...........
	309	310	4.06014E+000	-1.76383E-006	0.00000E+000	-7.16137E-006	0.00000E+000	7.27690E-004	-3.27687E+002	7	...........
	310	311	4.06013E+000	-1.76405E-006	0.00000E+000	-7.16227E-006	0.00000E+000	7.30407E-004	-3.27687E+002	7	...........
	311	312	4.06013E+000	-1.76374E-006	0.00000E+000	-7.16099E-006	0.00000E+000	7.30124E-004	-3.27687E+002	7	...........
	312	313	4.06010E+000	-1.76405E-006	0.00000E+000	-7.16223E-006	0.00000E+000	7.29974E-004	-3.27687E+002	7	...........
	313	314	4.06010E+000	-1.76325E-006	0.00000E+000	-7.15895E-006	0.00000E+000	7.31007E-004	-3.27687E+002	7	...........
	314	315	4.06008E+000	-1.76408E-006	0.00000E+000	-7.16232E-006	0.00000E+000	7.31124E-004	-3.27687E+002	7	...........
	315	316	4.06007E+000	-1.76487E-006	0.00000E+000	-7.16550E-006	0.00000E+000	7.26740E-004	-3.27687E+002	7	...........
	316	317	4.06007E+000	-1.76509E-006	0.00000E+000	-7.16636E-006	0.00000E+000	7.30074E-004	-3.27687E+002	7	...........
	317	318	4.06006E+000	-1.76507E-006	0.00000E+000	-7.16627E-006	0.00000E+000	7.28407E-004	-3.27687E+002	7	...........
	318	319	4.06004E+000	-1.76554E-006	0.00000E+000	-7.16816E-006	0.00000E+000	7.30190E-004	-3.27687E+002	7	...........
	319	320	4.06004E+000	-1.76453E-006	0.00000E+000	-7.16407E-006	0.00000E+000	7.28257E-004	-3.27687E+002	7	...........
	320	321	4.06003E+000	-1.76547E-006	0.00000E+000	-7.16786E-006	0.00000E+000	7.28007E-004	-3.27687E+002	7	...........
	321	322	4.06002E+000	-1.76570E-006	0.00000E+000	-7.16877E-006	0.00000E+000	7.27324E-004	-3.27687E+002	7	...........
	322	323	4.06001E+000	-1.76512E-006	0.00000E+000	-7.16639E-006	0.00000E+000	7.26390E-004	-3.27687E+002	7	...........
	323	324	4.05999E+000	-1.76541E-006	0.00000E+000	-7.16755E-006	0.00000E+000	7.26740E-004	-3.27687E+002	7	...........
	324	325	4.05999E+000	-1.76484E-006	0.00000E+000	-7.16523E-006	0.00000E+000	7.27974E-004	-3.27687E+002	7	...........
	325	326	4.05997E+000	-1.76491E-006	0.00000E+000	-7.16547E-006	0.00000E+000	7.26857E-004	-3.27687E+002	7	...........
	326	327	4.05997E+000	-1.76388E-006	0.00000E+000	-7.16132E-006	0.00000E+000	7.25624E-004	-3.27687E+002	7	...........
	327	328	4.05996E+000	-1.76561E-006	0.00000E+000	-7.16832E-006	0.00000E+000	7.25807E-004	-3.27687E+002	7	...........
	328	329	4.05995E+000	-1.76515E-006	0.00000E+000	-7.16643E-006	0.00000E+000	7.27840E-004	-3.27687E+002	7	...........
	329	330	4.05994E+000	-1.76454E-006	0.00000E+000	-7.16394E-006	0.00000E+000	7.27240E-004	-3.27687E+002	7	...........
	330	331	4.05994E+000	-1.76436E-006	0.00000E+000	-7.16317E-006	0.00000E+000	7.27840E-004	-3.27687E+002	7	...........
	331	332	4.05993E+000	-1.76517E-006	0.00000E+000	-7.16646E-006	0.00000E+000	7.25540E-004	-3.27687E+002	7	...........
	332	333	4.05990E+000	-1.76450E-006	0.00000E+000	-7.16371E-006	0.00000E+000	7.25124E-004	-3.27687E+002	7	...........
	333	334	4.05990E+000	-1.76396E-006	0.00000E+000	-7.16150E-006	0.00000E+000	7.26207E-004	-3.27687E+002	7	...........
	334	335	4.05989E+000	-1.76400E-006	0.00000E+000	-7.16165E-006	0.00000E+000	7.26957E-004	-3.27687E+002	7	...........
	335	336	4.05988E+000	-1.76493E-006	0.00000E+000	-7.16541E-006	0.00000E+000	7.26374E-004	-3.27687E+002	7	...........
	336	337	4.05988E+000	-1.76494E-006	0.00000E+000	-7.16546E-006	0.00000E+000	7.25774E-004	-3.27687E+002	7	...........
	337	338	4.05986E+000	-1.76425E-006	0.00000E+000	-7.16261E-006	0.00000E+000	7.27624E-004	-3.27687E+002	7	...........
	338	339	4.05984E+000	-1.76360E-006	0.00000E+000	-7.15993E-006	0.00000E+000	7.25774E-004	-3.27687E+002	7	...........
	339	340	4.05984E+000	-1.76386E-006	0.00000E+000	-7.16100E-006	0.00000E+000	7.27007E-004	-3.27687E+002	7	...........
	340	341	4.05983E+000	-1.76418E-006	0.00000E+000	-7.16228E-006	0.00000E+000	7.26190E-004	-3.27687E+002	7	...........
	341	342	4.05981E+000	-1.76406E-006	0.00000E+000	-7.16177E-006	0.00000E+000	7.27640E-004	-3.27687E+002	7	...........
	342	343	4.05981E+000	-1.76346E-006	0.00000E+000	-7.15931E-006	0.00000E+000	7.27040E-004	-3.27687E+002	7	...........
	343	344	4.05980E+000	-1.76403E-006	0.00000E+000	-7.16160E-006	0.00000E+000	7.29424E-004	-3.27687E+002	7	...........
	344	345	4.05979E+000	-1.76426E-006	0.00000E+000	-7.16251E-006	0.00000E+000	7.27207E-004	-3.27687E+002	7	...........
	345	346	4.05978E+000	-1.76482E-006	0.00000E+000	-7.16479E-006	0.00000E+000	7.27140E-004	-3.27687E+002	7	...........
	346	347	4.05977E+000	-1.76473E-006	0.00000E+000	-7.16438E-006	0.00000E+000	7.26007E-004	-3.27687E+002	7	...........
	347	348	4.05975E+000	-1.76484E-006	0.00000E+000	-7.16483E-006	0.00000E+000	7.25557E-004	-3.27687E+002	7	...........
	348	349	4.05974E+000	-1.76527E-006	0.00000E+000	-7.16653E-006	0.00000E+000	7.26057E-004	-3.27687E+002	7	...........
	349	350	4.05975E+000	-1.76531E-006	0.00000E+000	-7.16670E-006	0.00000E+000	7.25624E-004	-3.27687E+002	7	...........
	350	351	4.05973E+000	-1.76519E-006	0.00000E+000	-7.16619E-006	0.00000E+000	7.26707E-004	-3.27687E+002	7	...........
	351	352	4.05972E+000	-1.76402E-006	0.00000E+000	-7.16144E-006	0.00000E+000	7.25257E-004	-3.27687E+002	7	...........
	352	353	4.05970E+000	-1.76459E-006	0.00000E+000	-7.16371E-006	0.00000E+000	7.25674E-004	-3.27687E+002	7	...........
	353	354	4.05970E+000	-1.76452E-006	0.00000E+000	-7.16345E-006	0.00000E+000	7.27740E-004	-3.27687E+002	7	...........
	354	355	4.05969E+000	-1.76391E-006	0.00000E+000	-7.16094E-006	0.00000E+000	7.26357E-004	-3.27687E+002	7	...........
	355	356	4.05968E+000	-1.76442E-006	0.00000E+000	-7.16298E-006	0.00000E+000	7.25640E-004	-3.27687E+002	7	...........
	356	357	4.05968E+000	-1.76397E-006	0.00000E+000	-7.16115E-006	0.00000E+000	7.26974E-004	-3.27687E+002	7	...........
	357	358	4.05966E+000	-1.76509E-006	0.00000E+000	-7.16565E-006	0.00000E+000	7.28874E-004	-3.27687E+002	7	...........
	358	359	4.05965E+000	-1.76478E-006	0.00000E+000	-7.16438E-006	0.00000E+000	7.25124E-004	-3.27687E+002	7	...........
	359	360	4.05965E+000	-1.76426E-006	0.00000E+000	-7.16226E-006	0.00000E+000	7.27807E-004	-3.27687E+002	7	...........
	360	361	4.05962E+000	-1.76466E-006	0.00000E+000	-7.16386E-006	0.00000E+000	7.28540E-004	-3.27687E+002	7	...........
	361	362	4.05962E+000	-1.76439E-006	0.00000E+000	-7.16277E-006	0.00000E+000	7.28740E-004	-3.27687E+002	7	...........
	362	363	4.05961E+000	-1.76348E-006	0.00000E+000	-7.15903E-006	0.00000E+000	7.26857E-004	-3.27687E+002	7	...........
	363	364	4.05960E+000	-1.76302E-006	0.00000E+000	-7.15714E-006	0.00000E+000	7.27374E-004	-3.27687E+002	7	...........
	364	365	4.05958E+000	-1.76253E-006	0.00000E+000	-7.15515E-006	0.00000E+000	7.29190E-004	-3.27687E+002	7	...........
	365	366	4.05958E+000	-1.76434E-006	0.00000E+000	-7.16247E-006	0.00000E+000	7.29590E-004	-3.27687E+002	7	...........
	366	367	4.05958E+000	-1.76391E-006	0.00000E+000	-7.16073E-006	0.00000E+000	7.28307E-004	-3.27687E+002	7	...........
	367	368	4.05955E+000	-1.76454E-006	0.00000E+000	-7.16326E-006	0.00000E+000	7.28224E-004	-3.27687E+002	7	...........
	368	369	4.05956E+000	-1.76356E-006	0.00000E+000	-7.15927E-006	0.00000E+000	7.29274E-004	-3.27687E+002	7	...........
	369	370	4.05954E+000	-1.76351E-006	0.00000E+000	-7.15905E-006	0.00000E+000	7.24557E-004	-3.27687E+002	7	...........
	370	371	4.05954E+000	-1.76408E-006	0.00000E+000	-7.16134E-006	0.00000E+000	7.27557E-004	-3.27687E+002	7	...........
	371	372	4.05953E+000	-1.76423E-006	0.00000E+000	-7.16193E-006	0.00000E+000	7.26507E-004	-3.27687E+002	7	...........
	372	373	4.05951E+000	-1.76376E-006	0.00000E+000	-7.16000E-006	0.00000E+000	7.28324E-004	-3.27687E+002	7	...........
	373	374	4.05951E+000	-1.76403E-006	0.00000E+000	-7.16109E-006	0.00000E+000	7.29840E-004	-3.27687E+002	7	...........
	374	375	4.05951E+000	-1.76432E-006	0.00000E+000	-7.16227E-006	0.00000E+000	7.27974E-004	-3.27687E+002	7	...........
	375	376	4.05949E+000	-1.76349E-006	0.00000E+000	-7.15885E-006	0.00000E+000	7.29057E-004	-3.27687E+002	7	...........
	376	377	4.05948E+000	-1.76334E-006	0.00000E+000	-7.15823E-006	0.00000E+000	7.29740E-004	-3.27687E+002	7	...........
	377	378	4.05947E+000	-1.76315E-006	0.00000E+000	-7.15746E-006	0.00000E+000	7.30357E-004	-3.27687E+002	7	...........
	378	379	4.05946E+000	-1.76384E-006	0.00000E+000	-7.16022E-006	0.00000E+000	7.30240E-004	-3.27687E+002	7	...........
	379	380	4.05945E+000	-1.76352E-006	0.00000E+000	-7.15894E-006	0.00000E+000	7.29440E-004	-3.27687E+002	7	...........
	380	381	4.05944E+000	-1.76329E-006	0.00000E+000	-7.15797E-006	0.00000E+000	7.30240E-004	-3.27687E+002	7	...........
	381	382	4.05943E+000	-1.76401E-006	0.00000E+000	-7.16086E-006	0.00000E+000	7.29524E-004	-3.27687E+002	7	...........
	382	383	4.05942E+000	-1.76413E-006	0.00000E+000	-7.16135E-006	0.00000E+000	7.27857E-004	-3.27687E+002	7	...........
	383	384	4.05941E+000	-1.76479E-006	0.00000E+000	-7.16400E-006	0.00000E+000	7.31024E-004	-3.27687E+002	7	...........
	384	385	4.05941E+000	-1.76326E-006	0.00000E+000	-7.15781E-006	0.00000E+000	7.31324E-004	-3.27687E+002	7	...........
	385	386	4.05940E+000	-1.76380E-006	0.00000E+000	-7.15996E-006	0.00000E+000	7.27990E-004	-3.27687E+002	7	...........
	386	387	4.05939E+000	-1.76371E-006	0.00000E+000	-7.15959E-006	0.00000E+000	7.25207E-004	-3.27687E+002	7	...........
	387	388	4.05938E+000	-1.76282E-006	0.00000E+000	-7.15595E-006	0.00000E+000	7.29224E-004	-3.27687E+002	7	...........
	388	389	4.05938E+000	-1.76338E-006	0.00000E+000	-7.15822E-006	0.00000E+000	7.34057E-004	-3.27687E+002	7	...........
	389	390	4.05936E+000	-1.76225E-006	0.00000E+000	-7.15360E-006	0.00000E+000	7.30624E-004	-3.27687E+002	7	...........
	390	391	4.05935E+000	-1.76348E-006	0.00000E+000	-7.15859E-006	0.00000E+000	7.29207E-004	-3.27687E+002	7	...........
	391	392	4.05933E+000	-1.76340E-006	0.00000E+000	-7.15822E-006	0.00000E+000	7.30757E-004	-3.27687E+002	7	...........
	392	393	4.05933E+000	-1.76350E-006	0.00000E+000	-7.15863E-006	0.00000E+000	7.31390E-004	-3.27687E+002	7	...........
	393	394	4.05932E+000	-1.76336E-006	0.00000E+000	-7.15804E-006	0.00000E+000	7.29274E-004	-3.27687E+002	7	...........
	394	395	4.05932E+000	-1.76303E-006	0.00000E+000	-7.15670E-006	0.00000E+000	7.28424E-004	-3.27687E+002	7	...........
	395	396	4.05930E+000	-1.76329E-006	0.00000E+000	-7.15771E-006	0.00000E+000	7.28557E-004	-3.27687E+002	7	...........
	396	397	4.05930E+000	-1.76343E-006	0.00000E+000	-7.15827E-006	0.00000E+000	7.32740E-004	-3.27687E+002	7	...........
	397	398	4.05930E+000	-1.76277E-006	0.00000E+000	-7.15560E-006	0.00000E+000	7.29940E-004	-3.27687E+002	7	...........
	398	399	4.05929E+000	-1.76323E-006	0.00000E+000	-7.15745E-006	0.00000E+000	7.29624E-004	-3.27687E+002	7	...........
	399	400	4.05927E+000	-1.76282E-006	0.00000E+000	-7.15576E-006	0.00000E+000	7.30874E-004	-3.27687E+002	7	...........
	400	401	4.05926E+000	-1.76308E-006	0.00000E+000	-7.15681E-006	0.00000E+000	7.29890E-004	-3.27687E+002	7	...........
	401	402	4.05926E+000	-1.76232E-006	0.00000E+000	-7.15372E-006	0.00000E+000	7.30374E-004	-3.27687E+002	7	...........
	402	403	4.05925E+000	-1.76165E-006	0.00000E+000	-7.15098E-006	0.00000E+000	7.30890E-004	-3.27687E+002	7	...........
	403	404	4.05924E+000	-1.76341E-006	0.00000E+000	-7.15811E-006	0.00000E+000	7.31474E-004	-3.27687E+002	7	...........
	404	405	4.05923E+000	-1.76299E-006	0.00000E+000	-7.15639E-006	0.00000E+000	7.31624E-004	-3.27687E+002	7	...........
	405	406	4.05922E+000	-1.76328E-006	0.00000E+000	-7.15754E-006	0.00000E+000	7.32390E-004	-3.27687E+002	7	...........
	406	407	4.05922E+000	-1.76333E-006	0.00000E+000	-7.15775E-006	0.00000E+000	7.31024E-004	-3.27687E+002	7	...........
	407	408	4.05921E+000	-1.76326E-006	0.00000E+000	-7.15746E-006	0.00000E+000	7.28724E-004	-3.27687E+002	7	...........
	408	409	4.05920E+000	-1.76365E-006	0.00000E+000	-7.15902E-006	0.00000E+000	7.31357E-004	-3.27687E+002	7	...........
	409	410	4.05920E+000	-1.76339E-006	0.00000E+000	-7.15795E-006	0.00000E+000	7.30174E-004	-3.27687E+002	7	...........
	410	411	4.05919E+000	-1.76376E-006	0.00000E+000	-7.15943E-006	0.00000E+000	7.31840E-004	-3.27687E+002	7	...........
	411	412	4.05917E+000	-1.76385E-006	0.00000E+000	-7.15978E-006	0.00000E+000	7.31457E-004	-3.27687E+002	7	...........
	412	413	4.05916E+000	-1.76291E-006	0.00000E+000	-7.15594E-006	0.00000E+000	7.30857E-004	-3.27687E+002	7	...........
	413	414	4.05915E+000	-1.76293E-006	0.00000E+000	-7.15599E-006	0.00000E+000	7.31390E-004	-3.27687E+002	7	...........
	414	415	4.05915E+000	-1.76231E-006	0.00000E+000	-7.15347E-006	0.00000E+000	7.32374E-004	-3.27687E+002	7	...........
	415	416	4.05914E+000	-1.76243E-006	0.00000E+000	-7.15396E-006	0.00000E+000	7.28707E-004	-3.27687E+002	7	...........
	416	417	4.05913E+000	-1.76330E-006	0.00000E+000	-7.15746E-006	0.00000E+000	7.33040E-004	-3.27687E+002	7	...........
	417	418	4.05913E+000	-1.76264E-006	0.00000E+000	-7.15477E-006	0.00000E+000	7.30790E-004	-3.27687E+002	7	...........
	418	419	4.05912E+000	-1.76225E-006	0.00000E+000	-7.15319E-006	0.00000E+000	7.30557E-004	-3.27687E+002	7	...........
	419	420	4.05912E+000	-1.76287E-006	0.00000E+000	-7.15570E-006	0.00000E+000	7.31774E-004	-3.27687E+002	7	...........
	420	421	4.05910E+000	-1.76335E-006	0.00000E+000	-7.15762E-006	0.00000E+000	7.34607E-004	-3.27687E+002	7	...........
	421	422	4.05910E+000	-1.76286E-006	0.00000E+000	-7.15564E-006	0.00000E+000	7.31590E-004	-3.27687E+002	7	...........
	422	423	4.05909E+000	-1.76293E-006	0.00000E+000	-7.15592E-006	0.00000E+000	7.32474E-004	-3.27687E+002	7	...........
	423	424	4.05909E+000	-1.76295E-006	0.00000E+000	-7.15595E-006	0.00000E+000	7.32907E-004	-3.27687E+002	7	...........
	424	425	4.05909E+000	-1.76316E-006	0.00000E+000	-7.15683E-006	0.00000E+000	7.32557E-004	-3.27687E+002	7	...........
	425	426	4.05908E+000	-1.76325E-006	0.00000E+000	-7.15717E-006	0.00000E+000	7.31924E-004	-3.27687E+002	7	...........
	426	427	4.05908E+000	-1.76319E-006	0.00000E+000	-7.15694E-006	0.00000E+000	7.33674E-004	-3.27687E+002	7	...........
	427	428	4.05907E+000	-1.76294E-006	0.00000E+000	-7.15588E-006	0.00000E+000	7.33124E-004	-3.27687E+002	7	...........
	428	429	4.05906E+000	-1.76283E-006	0.00000E+000	-7.15541E-006	0.00000E+000	7.31890E-004	-3.27687E+002	7	...........
	429	430	4.05905E+000	-1.76161E-006	0.00000E+000	-7.15047E-006	0.00000E+000	7.32424E-004	-3.27687E+002	7	...........
	430	431	4.05903E+000	-1.76267E-006	0.00000E+000	-7.15476E-006	0.00000E+000	7.30990E-004	-3.27687E+002	7	...........
	431	432	4.05904E+000	-1.76305E-006	0.00000E+000	-7.15627E-006	0.00000E+000	7.31174E-004	-3.27687E+002	7	...........
	432	433	4.05904E+000	-1.76335E-006	0.00000E+000	-7.15750E-006	0.00000E+000	7.32807E-004	-3.27687E+002	7	...........
	433	434	4.05903E+000	-1.76325E-006	0.00000E+000	-7.15706E-006	0.00000E+000	7.32240E-004	-3.27687E+002	7	...........
	434	435	4.05902E+000	-1.76392E-006	0.00000E+000	-7.15978E-006	0.00000E+000	7.32590E-004	-3.27687E+002	7	...........
	435	436	4.05901E+000	-1.76331E-006	0.00000E+000	-7.15730E-006	0.00000E+000	7.32774E-004	-3.27687E+002	7	...........
	436	437	4.05901E+000	-1.76312E-006	0.00000E+000	-7.15651E-006	0.00000E+000	7.34290E-004	-3.27687E+002	7	...........
	437	438	4.05900E+000	-1.76369E-006	0.00000E+000	-7.15880E-006	0.00000E+000	7.32890E-004	-3.27687E+002	7	...........
	438	439	4.05899E+000	-1.76337E-006	0.00000E+000	-7.15752E-006	0.00000E+000	7.32440E-004	-3.27687E+002	7	...........
	439	440	4.05899E+000	-1.76285E-006	0.00000E+000	-7.15537E-006	0.00000E+000	7.33924E-004	-3.27687E+002	7	...........
	440	441	4.05898E+000	-1.76341E-006	0.00000E+000	-7.15763E-006	0.00000E+000	7.33457E-004	-3.27687E+002	7	...........
	441	442	4.05897E+000	-1.76322E-006	0.00000E+000	-7.15685E-006	0.00000E+000	7.31707E-004	-3.27687E+002	7	...........
	442	443	4.05897E+000	-1.76293E-006	0.00000E+000	-7.15566E-006	0.00000E+000	7.34040E-004	-3.27687E+002	7	...........
	443	444	4.05897E+000	-1.76332E-006	0.00000E+000	-7.15727E-006	0.00000E+000	7.32840E-004	-3.27687E+002	7	...........
	444	445	4.05895E+000	-1.76327E-006	0.00000E+000	-7.15705E-006	0.00000E+000	7.33540E-004	-3.27687E+002	7	...........
	445	446	4.05895E+000	-1.76350E-006	0.00000E+000	-7.15795E-006	0.00000E+000	7.32674E-004	-3.27687E+002	7	...........
	446	447	4.05894E+000	-1.76261E-006	0.00000E+000	-7.15431E-006	0.00000E+000	7.33324E-004	-3.27687E+002	7	...........
	447	448	4.05894E+000	-1.76355E-006	0.00000E+000	-7.15813E-006	0.00000E+000	7.33307E-004	-3.27687E+002	7	...........
	448	449	4.05895E+000	-1.76276E-006	0.00000E+000	-7.15496E-006	0.00000E+000	7.31357E-004	-3.27687E+002	7	...........
	449	450	4.05894E+000	-1.76290E-006	0.00000E+000	-7.15551E-006	0.00000E+000	7.31457E-004	-3.27687E+002	7	...........
	450	451	4.05892E+000	-1.76325E-006	0.00000E+000	-7.15690E-006	0.00000E+000	7.32490E-004	-3.27687E+002	7	...........
	451	452	4.05892E+000	-1.76324E-006	0.00000E+000	-7.15685E-006	0.00000E+000	7.33857E-004	-3.27687E+002	7	...........
	452	453	4.05891E+000	-1.76200E-006	0.00000E+000	-7.15179E-006	0.00000E+000	7.33074E-004	-3.27687E+002	7	...........
	453	454	4.05891E+000	-1.76332E-006	0.00000E+000	-7.15718E-006	0.00000E+000	7.33690E-004	-3.27687E+002	7	...........
	454	455	4.05890E+000	-1.76326E-006	0.00000E+000	-7.15690E-006	0.00000E+000	7.35157E-004	-3.27687E+002	7	...........
	455	456	4.05891E+000	-1.76378E-006	0.00000E+000	-7.15900E-006	0.00000E+000	7.32190E-004	-3.27687E+002	7	...........
	456	457	4.05890E+000	-1.76356E-006	0.00000E+000	-7.15812E-006	0.00000E+000	7.31290E-004	-3.27687E+002	7	...........
	457	458	4.05889E+000	-1.76300E-006	0.00000E+000	-7.15583E-006	0.00000E+000	7.34140E-004	-3.27687E+002	7	...........
	458	459	4.05888E+000	-1.76372E-006	0.00000E+000	-7.15872E-006	0.00000E+000	7.32924E-004	-3.27687E+002	7	...........
	459	460	4.05888E+000	-1.76395E-006	0.00000E+000	-7.15964E-006	0.00000E+000	7.32340E-004	-3.27687E+002	7	...........
	460	461	4.05888E+000	-1.76400E-006	0.00000E+000	-7.15987E-006	0.00000E+000	7.31874E-004	-3.27687E+002	7	...........
	461	462	4.05887E+000	-1.76328E-006	0.00000E+000	-7.15693E-006	0.00000E+000	7.34090E-004	-3.27687E+002	7	...........
	462	463	4.05886E+000	-1.76291E-006	0.00000E+000	-7.15539E-006	0.00000E+000	7.30057E-004	-3.27687E+002	7	...........
	463	464	4.05886E+000	-1.76362E-006	0.00000E+000	-7.15829E-006	0.00000E+000	7.31274E-004	-3.27687E+002	7	...........
	464	465	4.05886E+000	-1.76249E-006	0.00000E+000	-7.15368E-006	0.00000E+000	7.31607E-004	-3.27687E+002	7	...........
	465	466	4.05885E+000	-1.76282E-006	0.00000E+000	-7.15504E-006	0.00000E+000	7.32557E-004	-3.27687E+002	7	...........
	466	467	4.05884E+000	-1.76304E-006	0.00000E+000	-7.15590E-006	0.00000E+000	7.30007E-004	-3.27687E+002	7	...........
	467	468	4.05883E+000	-1.76352E-006	0.00000E+000	-7.15782E-006	0.00000E+000	7.32107E-004	-3.27687E+002	7	...........
	468	469	4.05883E+000	-1.76312E-006	0.00000E+000	-7.15622E-006	0.00000E+000	7.30974E-004	-3.27687E+002	7	...........
	469	470	4.05882E+000	-1.76349E-006	0.00000E+000	-7.15768E-006	0.00000E+000	7.31857E-004	-3.27687E+002	7	...........
	470	471	4.05882E+000	-1.76336E-006	0.00000E+000	-7.15716E-006	0.00000E+000	7.31490E-004	-3.27687E+002	7	...........
	471	472	4.05882E+000	-1.76392E-006	0.00000E+000	-7.15942E-006	0.00000E+000	7.31024E-004	-3.27687E+002	7	...........
	472	473	4.05881E+000	-1.76340E-006	0.00000E+000	-7.15733E-006	0.00000E+000	7.29557E-004	-3.27687E+002	7	...........
	473	474	4.05880E+000	-1.76372E-006	0.00000E+000	-7.15859E-006	0.00000E+000	7.31907E-004	-3.27687E+002	7	...........
	474	475	4.05879E+000	-1.76437E-006	0.00000E+000	-7.16121E-006	0.00000E+000	7.29890E-004	-3.27687E+002	7	...........
	475	476	4.05879E+000	-1.76340E-006	0.00000E+000	-7.15728E-006	0.00000E+000	7.31940E-004	-3.27687E+002	7	...........
	476	477	4.05878E+000	-1.76289E-006	0.00000E+000	-7.15520E-006	0.00000E+000	7.29940E-004	-3.27687E+002	7	...........
	477	478	4.05878E+000	-1.76287E-006	0.00000E+000	-7.15511E-006	0.00000E+000	7.31807E-004	-3.27687E+002	7	...........
	478	479	4.05877E+000	-1.76324E-006	0.00000E+000	-7.15657E-006	0.00000E+000	7.31174E-004	-3.27687E+002	7	...........
	479	480	4.05877E+000	-1.76304E-006	0.00000E+000	-7.15576E-006	0.00000E+000	7.29974E-004	-3.27687E+002	7	...........
	480	481	4.05877E+000	-1.76411E-006	0.00000E+000	-7.16011E-006	0.00000E+000	7.28840E-004	-3.27687E+002	7	...........
	481	482	4.05876E+000	-1.76347E-006	0.00000E+000	-7.15750E-006	0.00000E+000	7.32307E-004	-3.27687E+002	7	...........
	482	483	4.05875E+000	-1.76300E-006	0.00000E+000	-7.15560E-006	0.00000E+000	7.26940E-004	-3.27687E+002	7	...........
	483	484	4.05875E+000	-1.76380E-006	0.00000E+000	-7.15882E-006	0.00000E+000	7.29274E-004	-3.27687E+002	7	...........
	484	485	4.05874E+000	-1.76368E-006	0.00000E+000	-7.15831E-006	0.00000E+000	7.29507E-004	-3.27687E+002	7	...........
	485	486	4.05874E+000	-1.76330E-006	0.00000E+000	-7.15679E-006	0.00000E+000	7.27957E-004	-3.27687E+002	7	...........
	486	487	4.05873E+000	-1.76329E-006	0.00000E+000	-7.15670E-006	0.00000E+000	7.27074E-004	-3.27687E+002	7	...........
	487	488	4.05872E+000	-1.76338E-006	0.00000E+000	-7.15707E-006	0.00000E+000	7.28324E-004	-3.27687E+002	7	...........
	488	489	4.05872E+000	-1.76331E-006	0.00000E+000	-7.15678E-006	0.00000E+000	7.30290E-004	-3.27687E+002	7	...........
	489	490	4.05871E+000	-1.76272E-006	0.00000E+000	-7.15439E-006	0.00000E+000	7.28674E-004	-3.27687E+002	7	...........
	490	491	4.05871E+000	-1.76193E-006	0.00000E+000	-7.15114E-006	0.00000E+000	7.27074E-004	-3.27687E+002	7	...........
	491	492	4.05870E+000	-1.76333E-006	0.00000E+000	-7.15684E-006	0.00000E+000	7.28657E-004	-3.27687E+002	7	...........
	492	493	4.05869E+000	-1.76241E-006	0.00000E+000	-7.15308E-006	0.00000E+000	7.29490E-004	-3.27687E+002	7	...........
	493	494	4.05869E+000	-1.76311E-006	0.00000E+000	-7.15590E-006	0.00000E+000	7.29807E-004	-3.27687E+002	7	...........
	494	495	4.05868E+000	-1.76335E-006	0.00000E+000	-7.15686E-006	0.00000E+000	7.27457E-004	-3.27687E+002	7	...........
	495	496	4.05867E+000	-1.76292E-006	0.00000E+000	-7.15511E-006	0.00000E+000	7.29390E-004	-3.27687E+002	7	...........
	496	497	4.05867E+000	-1.76344E-006	0.00000E+000	-7.15723E-006	0.00000E+000	7.26757E-004	-3.27687E+002	7	...........
	497	498	4.05866E+000	-1.76342E-006	0.00000E+000	-7.15712E-006	0.00000E+000	7.27357E-004	-3.27687E+002	7	...........
	498	499	4.05865E+000	-1.76344E-006	0.00000E+000	-7.15717E-006	0.00000E+000	7.27474E-004	-3.27687E+002	7	...........
	499	500	4.05865E+000	-1.76262E-006	0.00000E+000	-7.15386E-006	0.00000E+000	7.27424E-004	-3.27687E+002	7	...........
	500	501	4.05864E+000	-1.76255E-006	0.00000E+000	-7.15356E-006	0.00000E+000	7.26857E-004	-3.27687E+002	7	...........
	501	502	4.05863E+000	-1.76169E-006	0.00000E+000	-7.15006E-006	0.00000E+000	7.28357E-004	-3.27687E+002	7	...........
	502	503	4.05863E+000	-1.76182E-006	0.00000E+000	-7.15059E-006	0.00000E+000	7.25440E-004	-3.27687E+002	7	...........
	503	504	4.05862E+000	-1.76233E-006	0.00000E+000	-7.15262E-006	0.00000E+000	7.27207E-004	-3.27687E+002	7	...........
	504	505	4.05861E+000	-1.76267E-006	0.00000E+000	-7.15400E-006	0.00000E+000	7.25824E-004	-3.27687E+002	7	...........
	505	506	4.05860E+000	-1.76222E-006	0.00000E+000	-7.15215E-006	0.00000E+000	7.25240E-004	-3.27687E+002	7	...........
	506	507	4.05860E+000	-1.76227E-006	0.00000E+000	-7.15236E-006	0.00000E+000	7.26157E-004	-3.27687E+002	7	...........
	507	508	4.05858E+000	-1.76271E-006	0.00000E+000	-7.15409E-006	0.00000E+000	7.26024E-004	-3.27687E+002	7	...........
	508	509	4.05858E+000	-1.76197E-006	0.00000E+000	-7.15108E-006	0.00000E+000	7.25574E-004	-3.27687E+002	7	...........
	509	510	4.05858E+000	-1.76206E-006	0.00000E+000	-7.15147E-006	0.00000E+000	7.24090E-004	-3.27687E+002	7	...........
	510	511	4.05857E+000	-1.76257E-006	0.00000E+000	-7.15350E-006	0.00000E+000	7.27007E-004	-3.27687E+002	7	...........
	511	512	4.05856E+000	-1.76237E-006	0.00000E+000	-7.15268E-006	0.00000E+000	7.27690E-004	-3.27687E+002	7	...........
	512	513	4.05856E+000	-1.76302E-006	0.00000E+000	-7.15533E-006	0.00000E+000	7.25424E-004	-3.27687E+002	7	...........
	513	514	4.05855E+000	-1.76327E-006	0.00000E+000	-7.15633E-006	0.00000E+000	7.25324E-004	-3.27687E+002	7	...........
	514	515	4.05854E+000	-1.76240E-006	0.00000E+000	-7.15277E-006	0.00000E+000	7.23407E-004	-3.27687E+002	7	...........
	515	516	4.05853E+000	-1.76196E-006	0.00000E+000	-7.15099E-006	0.00000E+000	7.23157E-004	-3.27687E+002	7	...........
	516	517	4.05853E+000	-1.76245E-006	0.00000E+000	-7.15294E-006	0.00000E+000	7.26007E-004	-3.27687E+002	7	...........
	517	518	4.05852E+000	-1.76283E-006	0.00000E+000	-7.15449E-006	0.00000E+000	7.24574E-004	-3.27687E+002	7	...........
	518	519	4.05851E+000	-1.76248E-006	0.00000E+000	-7.15306E-006	0.00000E+000	7.25074E-004	-3.27687E+002	7	...........
	519	520	4.05850E+000	-1.76262E-006	0.00000E+000	-7.15360E-006	0.00000E+000	7.22874E-004	-3.27687E+002	7	...........
	520	521	4.05850E+000	-1.76280E-006	0.00000E+000	-7.15431E-006	0.00000E+000	7.24807E-004	-3.27687E+002	7	...........
	521	522	4.05848E+000	-1.76238E-006	0.00000E+000	-7.15259E-006	0.00000E+000	7.26574E-004	-3.27687E+002	7	...........
	522	523	4.05848E+000	-1.76292E-006	0.00000E+000	-7.15479E-006	0.00000E+000	7.26107E-004	-3.27687E+002	7	...........
	523	524	4.05848E+000	-1.76185E-006	0.00000E+000	-7.15044E-006	0.00000E+000	7.25707E-004	-3.27687E+002	7	...........
	524	525	4.05846E+000	-1.76214E-006	0.00000E+000	-7.15159E-006	0.00000E+000	7.23357E-004	-3.27687E+002	7	...........
	525	526	4.05846E+000	-1.76224E-006	0.00000E+000	-7.15198E-006	0.00000E+000	7.23224E-004	-3.27687E+002	7	...........
	526	527	4.05845E+000	-1.76168E-006	0.00000E+000	-7.14970E-006	0.00000E+000	7.25940E-004	-3.27687E+002	7	...........
	527	528	4.05844E+000	-1.76206E-006	0.00000E+000	-7.15123E-006	0.00000E+000	7.21557E-004	-3.27687E+002	7	...........
	528	529	4.05845E+000	-1.76208E-006	0.00000E+000	-7.15129E-006	0.00000E+000	7.24557E-004	-3.27687E+002	7	...........
	529	530	4.05845E+000	-1.76286E-006	0.00000E+000	-7.15448E-006	0.00000E+000	7.22290E-004	-3.27687E+002	7	...........
	530	531	4.05843E+000	-1.76186E-006	0.00000E+000	-7.15039E-006	0.00000E+000	7.23907E-004	-3.27687E+002	7	...........
	531	532	4.05842E+000	-1.76177E-006	0.00000E+000	-7.14999E-006	0.00000E+000	7.19974E-004	-3.27687E+002	7	...........
	532	533	4.05840E+000	-1.76207E-006	0.00000E+000	-7.15117E-006	0.00000E+000	7.25540E-004	-3.27687E+002	7	...........
	533	534	4.05839E+000	-1.76190E-006	0.00000E+000	-7.15047E-006	0.00000E+000	7.23357E-004	-3.27687E+002	7	...........
	534	535	4.05838E+000	-1.76235E-006	0.00000E+000	-7.15231E-006	0.00000E+000	7.24607E-004	-3.27687E+002	7	...........
	535	536	4.05840E+000	-1.76241E-006	0.00000E+000	-7.15255E-006	0.00000E+000	7.22890E-004	-3.27687E+002	7	...........
	536	537	4.05839E+000	-1.76204E-006	0.00000E+000	-7.15104E-006	0.00000E+000	7.22907E-004	-3.27687E+002	7	...........
	537	538	4.05838E+000	-1.76160E-006	0.00000E+000	-7.14923E-006	0.00000E+000	7.24690E-004	-3.27687E+002	7	...........
	538	539	4.05836E+000	-1.76248E-006	0.00000E+000	-7.15279E-006	0.00000E+000	7.22457E-004	-3.27687E+002	7	...........
	539	540	4.05835E+000	-1.76154E-006	0.00000E+000	-7.14894E-006	0.00000E+000	7.19524E-004	-3.27687E+002	7	...........
	540	541	4.05835E+000	-1.76096E-006	0.00000E+000	-7.14660E-006	0.00000E+000	7.20874E-004	-3.27687E+002	7	...........
	541	542	4.05835E+000	-1.76149E-006	0.00000E+000	-7.14873E-006	0.00000E+000	7.21207E-004	-3.27687E+002	7	...........
	542	543	4.05833E+000	-1.76142E-006	0.00000E+000	-7.14843E-006	0.00000E+000	7.20440E-004	-3.27687E+002	7	...........
	543	544	4.05833E+000	-1.76172E-006	0.00000E+000	-7.14964E-006	0.00000E+000	7.21007E-004	-3.27687E+002	7	...........
	544	545	4.05832E+000	-1.76195E-006	0.00000E+000	-7.15058E-006	0.00000E+000	7.22540E-004	-3.27687E+002	7	...........
	545	546	4.05831E+000	-1.76159E-006	0.00000E+000	-7.14907E-006	0.00000E+000	7.23907E-004	-3.27687E+002	7	...........
	546	547	4.05830E+000	-1.76131E-006	0.00000E+000	-7.14792E-006	0.00000E+000	7.22374E-004	-3.27687E+002	7	...........
	547	548	4.05830E+000	-1.76187E-006	0.00000E+000	-7.15021E-006	0.00000E+000	7.20174E-004	-3.27687E+002	7	...........
	548	549	4.05829E+000	-1.76226E-006	0.00000E+000	-7.15174E-006	0.00000E+000	7.23057E-004	-3.27687E+002	7	...........
	549	550	4.05829E+000	-1.76261E-006	0.00000E+000	-7.15319E-006	0.00000E+000	7.22224E-004	-3.27687E+002	7	...........
	550	551	4.05827E+000	-1.76242E-006	0.00000E+000	-7.15238E-006	0.00000E+000	7.22307E-004	-3.27687E+002	7	...........
	551	552	4.05828E+000	-1.76320E-006	0.00000E+000	-7.15556E-006	0.00000E+000	7.20757E-004	-3.27687E+002	7	...........
	552	553	4.05826E+000	-1.76295E-006	0.00000E+000	-7.15449E-006	0.00000E+000	7.20974E-004	-3.27687E+002	7	...........
	553	554	4.05825E+000	-1.76181E-006	0.00000E+000	-7.14987E-006	0.00000E+000	7.19307E-004	-3.27687E+002	7	...........
	554	555	4.05824E+000	-1.76235E-006	0.00000E+000	-7.15204E-006	0.00000E+000	7.18290E-004	-3.27687E+002	7	...........
	555	556	4.05823E+000	-1.76180E-006	0.00000E+000	-7.14980E-006	0.00000E+000	7.20574E-004	-3.27687E+002	7	...........
	556	557	4.05822E+000	-1.76271E-006	0.00000E+000	-7.15347E-006	0.00000E+000	7.19374E-004	-3.27687E+002	7	...........
	557	558	4.05822E+000	-1.76268E-006	0.00000E+000	-7.15334E-006	0.00000E+000	7.23440E-004	-3.27687E+002	7	...........
	558	559	4.05821E+000	-1.76216E-006	0.00000E+000	-7.15122E-006	0.00000E+000	7.20224E-004	-3.27687E+002	7	...........
	559	560	4.05820E+000	-1.76208E-006	0.00000E+000	-7.15087E-006	0.00000E+000	7.20874E-004	-3.27687E+002	7	...........
	560	561	4.05818E+000	-1.76248E-006	0.00000E+000	-7.15248E-006	0.00000E+000	7.20140E-004	-3.27687E+002	7	...........
	561	562	4.05818E+000	-1.76178E-006	0.00000E+000	-7.14961E-006	0.00000E+000	7.20040E-004	-3.27687E+002	7	...........
	562	563	4.05818E+000	-1.76178E-006	0.00000E+000	-7.14960E-006	0.00000E+000	7.20857E-004	-3.27687E+002	7	...........
	563	564	4.05817E+000	-1.76207E-006	0.00000E+000	-7.15079E-006	0.00000E+000	7.21007E-004	-3.27687E+002	7	...........
	564	565	4.05816E+000	-1.76243E-006	0.00000E+000	-7.15223E-006	0.00000E+000	7.18774E-004	-3.27687E+002	7	...........
	565	566	4.05813E+000	-1.76185E-006	0.00000E+000	-7.14981E-006	0.00000E+000	7.20524E-004	-3.27687E+002	7	...........
	566	567	4.05812E+000	-1.76254E-006	0.00000E+000	-7.15261E-006	0.00000E+000	7.21140E-004	-3.27687E+002	7	...........
	567	568	4.05812E+000	-1.76328E-006	0.00000E+000	-7.15560E-006	0.00000E+000	7.20257E-004	-3.27687E+002	7	...........
	568	569	4.05811E+000	-1.76271E-006	0.00000E+000	-7.15328E-006	0.00000E+000	7.22524E-004	-3.27687E+002	7	...........
	569	570	4.05810E+000	-1.76202E-006	0.00000E+000	-7.15048E-006	0.00000E+000	7.21624E-004	-3.27687E+002	7	...........
	570	571	4.05810E+000	-1.76207E-006	0.00000E+000	-7.15065E-006	0.00000E+000	7.21907E-004	-3.27687E+002	7	...........
	571	572	4.05809E+000	-1.76242E-006	0.00000E+000	-7.15204E-006	0.00000E+000	7.23407E-004	-3.27687E+002	7	...........
	572	573	4.05810E+000	-1.76217E-006	0.00000E+000	-7.15106E-006	0.00000E+000	7.24024E-004	-3.27687E+002	7	...........
	573	574	4.05809E+000	-1.76233E-006	0.00000E+000	-7.15171E-006	0.00000E+000	7.23874E-004	-3.27687E+002	7	...........
	574	575	4.05807E+000	-1.76232E-006	0.00000E+000	-7.15164E-006	0.00000E+000	7.23440E-004	-3.27687E+002	7	...........
	575	576	4.05806E+000	-1.76226E-006	0.00000E+000	-7.15135E-006	0.00000E+000	7.22940E-004	-3.27687E+002	7	...........
	576	577	4.05804E+000	-1.76160E-006	0.00000E+000	-7.14863E-006	0.00000E+000	7.20674E-004	-3.27687E+002	7	...........
	577	578	4.05804E+000	-1.76157E-006	0.00000E+000	-7.14852E-006	0.00000E+000	7.20157E-004	-3.27687E+002	7	...........
	578	579	4.05801E+000	-1.76081E-006	0.00000E+000	-7.14539E-006	0.00000E+000	7.23024E-004	-3.27687E+002	7	...........
	579	580	4.05802E+000	-1.76202E-006	0.00000E+000	-7.15032E-006	0.00000E+000	7.22590E-004	-3.27687E+002	7	...........
	580	581	4.05800E+000	-1.76183E-006	0.00000E+000	-7.14952E-006	0.00000E+000	7.22857E-004	-3.27687E+002	7	...........
	581	582	4.05800E+000	-1.76102E-006	0.00000E+000	-7.14621E-006	0.00000E+000	7.20624E-004	-3.27687E+002	7	...........
	582	583	4.05799E+000	-1.76166E-006	0.00000E+000	-7.14878E-006	0.00000E+000	7.23624E-004	-3.27687E+002	7	...........
	583	584	4.05798E+000	-1.76131E-006	0.00000E+000	-7.14737E-006	0.00000E+000	7.21824E-004	-3.27687E+002	7	...........
	584	585	4.05798E+000	-1.76226E-006	0.00000E+000	-7.15122E-006	0.00000E+000	7.22424E-004	-3.27687E+002	7	...........
	585	586	4.05797E+000	-1.76245E-006	0.00000E+000	-7.15196E-006	0.00000E+000	7.19374E-004	-3.27687E+002	7	...........
	586	587	4.05795E+000	-1.76268E-006	0.00000E+000	-7.15288E-006	0.00000E+000	7.21590E-004	-3.27687E+002	7	...........
	587	588	4.05794E+000	-1.76184E-006	0.00000E+000	-7.14946E-006	0.00000E+000	7.20807E-004	-3.27687E+002	7	...........
	588	589	4.05794E+000	-1.76200E-006	0.00000E+000	-7.15009E-006	0.00000E+000	7.20407E-004	-3.27687E+002	7	...........
	589	590	4.05794E+000	-1.76197E-006	0.00000E+000	-7.14996E-006	0.00000E+000	7.21440E-004	-3.27687E+002	7	...........
	590	591	4.05794E+000	-1.76070E-006	0.00000E+000	-7.14480E-006	0.00000E+000	7.20624E-004	-3.27687E+002	7	...........
	591	592	4.05792E+000	-1.76069E-006	0.00000E+000	-7.14473E-006	0.00000E+000	7.22190E-004	-3.27687E+002	7	...........
	592	593	4.05792E+000	-1.76158E-006	0.00000E+000	-7.14834E-006	0.00000E+000	7.19674E-004	-3.27687E+002	7	...........
	593	594	4.05789E+000	-1.76166E-006	0.00000E+000	-7.14861E-006	0.00000E+000	7.20824E-004	-3.27687E+002	7	...........
	594	595	4.05789E+000	-1.76057E-006	0.00000E+000	-7.14420E-006	0.00000E+000	7.22874E-004	-3.27687E+002	7	...........
	595	596	4.05787E+000	-1.76076E-006	0.00000E+000	-7.14494E-006	0.00000E+000	7.21957E-004	-3.27687E+002	7	...........
	596	597	4.05786E+000	-1.76091E-006	0.00000E+000	-7.14551E-006	0.00000E+000	7.24207E-004	-3.27687E+002	7	...........
	597	598	4.05785E+000	-1.76117E-006	0.00000E+000	-7.14654E-006	0.00000E+000	7.21107E-004	-3.27687E+002	7	...........
	598	599	4.05785E+000	-1.76106E-006	0.00000E+000	-7.14610E-006	0.00000E+000	7.23607E-004	-3.27687E+002	7	...........
	599	600	4.05784E+000	-1.76143E-006	0.00000E+000	-7.14763E-006	0.00000E+000	7.19407E-004	-3.27687E+002	7	...........
