EXPLAIN
TAG	PWR800_READVOLTAGE
TITLE	LABEL	PWR Read Voltage	Test Identifier
DATE	LABEL	30.3.2024	Date
TIME	LABEL	5:31:41	Time
NOTES	NOTES	1	Notes...
	
PSTAT	PSTAT	REF600-12055	Potentiostat
CAPACITY	QUANT	1.00000E+000	Capacity (A-hr)
CELLTYPE	SELECTOR	1	Cell Type
WORKINGCONNECTION	SELECTOR	0	Working Connection
MAXTIME	VARIABLEANDUNITS	6.00000E+002	s	6.00000E+002	second(s)	Max Time
SAMPLETIME	QUANT	1.00000E+000	Sample Period (s)
STOPAT1	MULTIPARAM	0	0.00000E+000	Stop At 1	None	N/A
STOPAT2	MULTIPARAM	0	0.00000E+000	Stop At 2	None	N/A
AESBHCSELECTOR	TOGGLE	F	Save Both Half Cells
EOC	QUANT	4.088392	Open Circuit (V)
SEQUENCER	TOGGLE	TRUE	Run as Sequence
PSTATMODEL	IQUANT	4	Pstat Model
PSTATSECTION	LABEL	REF600-12055	Pstat Section
PSTATSERIALNO	LABEL	12055	Pstat Serial Number
CTRLMODE	IQUANT	0	Control Mode
ELECTROMETER	IQUANT	0	RE=0 or CS=1
IESTAB	IQUANT	0	I/E Stability
CASPEED	IQUANT	4	Control Amp Speed
CONVENTION	IQUANT	1	Current Convention
ICHRANGE	IQUANT	2	Ich Range
ICHRANGEMODE	TOGGLE	T	Ich Auto Range
ICHOFFSETENABLE	TOGGLE	F	Ich Offset Enable
ICHOFFSET	QUANT	0	Ich Offset (V)
ICHFILTER	IQUANT	1	Ich Filter
VCHRANGE	IQUANT	3	Vch Range
VCHRANGEMODE	TOGGLE	T	Vch Auto Range
VCHOFFSETENABLE	TOGGLE	F	Vch Offset Enable
VCHOFFSET	QUANT	0	Vch Offset (V)
VCHFILTER	IQUANT	1	Vch Filter
ACHRANGE	IQUANT	2	Ach Range
ACHOFFSETENABLE	TOGGLE	F	Ach Offset Enable
ACHOFFSET	QUANT	0	Ach Offset (V)
ACHFILTER	IQUANT	1	Ach Filter
IERANGELOWERLIMIT	IQUANT	7	I/E Range Lower Limit
IERANGEMODE	TOGGLE	F	I/E AutoRange
IERANGE	IQUANT	11	I/E Range
POSFEEDENABLE	TOGGLE	F	Positive Feedback IR Comp
POSFEEDRESISTANCE	QUANT	0	Positive Feedback Resistance (ohm)
ACHSELECT	IQUANT	4	Ach Select
SENSECABLEID	IQUANT	14	Sense Cable ID
PWRCABLEID	IQUANT	14	Power Cable ID
DCCALDATE	LABEL	2/12/2024	DC Calibration Date
ACCALDATE	LABEL	2/12/2024	AC Calibration Date
THERMOSELECT	IQUANT	1	Thermo Select
FRAMEWORKVERSION	LABEL	7.10.3	Framework Version
INSTRUMENTVERSION	LABEL	4.91	Instrument Version
COMMVERSION	LABEL	2.24	Communications Version
CPUPLDVERSION	LABEL	0.00	CPU PLD Version
CTRLPLDVERSION	LABEL	0.00	CTRL PLD Version
PSTATPLDVERSION	LABEL	0.00	PSTAT PLD Version
CURVE	TABLE	600
	Pt	T	Vf	Im	Vu	Pwr	Sig	Ach	Temp	IERange	Over
	#	s	V	A	V	W	V	V	deg C	#	bits
	0	1	4.02707E+000	7.31120E-007	0.00000E+000	2.94427E-006	0.00000E+000	8.92040E-004	-3.27687E+002	7	...........
	1	2	4.02735E+000	7.34822E-007	0.00000E+000	2.95939E-006	0.00000E+000	8.90024E-004	-3.27687E+002	7	...........
	2	3	4.02757E+000	7.33860E-007	0.00000E+000	2.95567E-006	0.00000E+000	8.88790E-004	-3.27687E+002	7	...........
	3	4	4.02774E+000	7.33566E-007	0.00000E+000	2.95461E-006	0.00000E+000	8.88657E-004	-3.27687E+002	7	...........
	4	5	4.02790E+000	7.35965E-007	0.00000E+000	2.96439E-006	0.00000E+000	8.87357E-004	-3.27687E+002	7	...........
	5	6	4.02802E+000	7.36114E-007	0.00000E+000	2.96508E-006	0.00000E+000	8.85357E-004	-3.27687E+002	7	...........
	6	7	4.02814E+000	7.36546E-007	0.00000E+000	2.96691E-006	0.00000E+000	8.89674E-004	-3.27687E+002	7	...........
	7	8	4.02823E+000	7.36275E-007	0.00000E+000	2.96589E-006	0.00000E+000	8.90624E-004	-3.27687E+002	7	...........
	8	9	4.02832E+000	7.36528E-007	0.00000E+000	2.96698E-006	0.00000E+000	8.92857E-004	-3.27687E+002	7	...........
	9	10	4.02843E+000	7.37797E-007	0.00000E+000	2.97217E-006	0.00000E+000	8.94174E-004	-3.27687E+002	7	...........
	10	11	4.02852E+000	7.38345E-007	0.00000E+000	2.97444E-006	0.00000E+000	8.95624E-004	-3.27687E+002	7	...........
	11	12	4.02861E+000	7.39629E-007	0.00000E+000	2.97968E-006	0.00000E+000	8.95657E-004	-3.27687E+002	7	...........
	12	13	4.02869E+000	7.40531E-007	0.00000E+000	2.98337E-006	0.00000E+000	8.94074E-004	-3.27687E+002	7	...........
	13	14	4.02877E+000	7.40368E-007	0.00000E+000	2.98277E-006	0.00000E+000	8.94574E-004	-3.27687E+002	7	...........
	14	15	4.02885E+000	7.41359E-007	0.00000E+000	2.98682E-006	0.00000E+000	8.92190E-004	-3.27687E+002	7	...........
	15	16	4.02891E+000	7.42972E-007	0.00000E+000	2.99337E-006	0.00000E+000	8.89274E-004	-3.27687E+002	7	...........
	16	17	4.02898E+000	7.43019E-007	0.00000E+000	2.99361E-006	0.00000E+000	8.89490E-004	-3.27687E+002	7	...........
	17	18	4.02903E+000	7.43558E-007	0.00000E+000	2.99582E-006	0.00000E+000	8.87440E-004	-3.27687E+002	7	...........
	18	19	4.02910E+000	7.44322E-007	0.00000E+000	2.99895E-006	0.00000E+000	8.85990E-004	-3.27687E+002	7	...........
	19	20	4.02916E+000	7.45807E-007	0.00000E+000	3.00498E-006	0.00000E+000	8.81990E-004	-3.27687E+002	7	...........
	20	21	4.02922E+000	7.46584E-007	0.00000E+000	3.00815E-006	0.00000E+000	7.01557E-004	-3.27687E+002	7	...........
	21	22	4.02928E+000	7.46313E-007	0.00000E+000	3.00711E-006	0.00000E+000	6.12690E-004	-3.27687E+002	7	...........
	22	23	4.02933E+000	7.45189E-007	0.00000E+000	3.00261E-006	0.00000E+000	6.10274E-004	-3.27687E+002	7	...........
	23	24	4.02939E+000	7.46591E-007	0.00000E+000	3.00831E-006	0.00000E+000	6.07674E-004	-3.27687E+002	7	...........
	24	25	4.02944E+000	7.47628E-007	0.00000E+000	3.01252E-006	0.00000E+000	6.06874E-004	-3.27687E+002	7	...........
	25	26	4.02949E+000	7.47419E-007	0.00000E+000	3.01172E-006	0.00000E+000	6.03624E-004	-3.27687E+002	7	...........
	26	27	4.02956E+000	7.47953E-007	0.00000E+000	3.01392E-006	0.00000E+000	6.05557E-004	-3.27687E+002	7	...........
	27	28	4.02961E+000	7.48481E-007	0.00000E+000	3.01608E-006	0.00000E+000	6.07290E-004	-3.27687E+002	7	...........
	28	29	4.02965E+000	7.49525E-007	0.00000E+000	3.02032E-006	0.00000E+000	6.06624E-004	-3.27687E+002	7	...........
	29	30	4.02971E+000	7.50765E-007	0.00000E+000	3.02536E-006	0.00000E+000	6.07324E-004	-3.27687E+002	7	...........
	30	31	4.02974E+000	7.51547E-007	0.00000E+000	3.02854E-006	0.00000E+000	6.06190E-004	-3.27687E+002	7	...........
	31	32	4.02980E+000	7.51549E-007	0.00000E+000	3.02859E-006	0.00000E+000	6.11024E-004	-3.27687E+002	7	...........
	32	33	4.02984E+000	7.51422E-007	0.00000E+000	3.02811E-006	0.00000E+000	6.16007E-004	-3.27687E+002	7	...........
	33	34	4.02988E+000	7.51348E-007	0.00000E+000	3.02784E-006	0.00000E+000	6.17457E-004	-3.27687E+002	7	...........
	34	35	4.02994E+000	7.52526E-007	0.00000E+000	3.03263E-006	0.00000E+000	6.19757E-004	-3.27687E+002	7	...........
	35	36	4.02999E+000	7.52943E-007	0.00000E+000	3.03435E-006	0.00000E+000	6.24190E-004	-3.27687E+002	7	...........
	36	37	4.03004E+000	7.52918E-007	0.00000E+000	3.03429E-006	0.00000E+000	6.28957E-004	-3.27687E+002	7	...........
	37	38	4.03009E+000	7.53263E-007	0.00000E+000	3.03572E-006	0.00000E+000	6.29024E-004	-3.27687E+002	7	...........
	38	39	4.03013E+000	7.53308E-007	0.00000E+000	3.03593E-006	0.00000E+000	6.33590E-004	-3.27687E+002	7	...........
	39	40	4.03016E+000	7.53751E-007	0.00000E+000	3.03774E-006	0.00000E+000	6.35890E-004	-3.27687E+002	7	...........
	40	41	4.03020E+000	7.54396E-007	0.00000E+000	3.04036E-006	0.00000E+000	6.34140E-004	-3.27687E+002	7	...........
	41	42	4.03024E+000	7.54495E-007	0.00000E+000	3.04079E-006	0.00000E+000	6.36290E-004	-3.27687E+002	7	...........
	42	43	4.03028E+000	7.55451E-007	0.00000E+000	3.04468E-006	0.00000E+000	6.35407E-004	-3.27687E+002	7	...........
	43	44	4.03032E+000	7.56868E-007	0.00000E+000	3.05042E-006	0.00000E+000	6.38407E-004	-3.27687E+002	7	...........
	44	45	4.03036E+000	7.56364E-007	0.00000E+000	3.04841E-006	0.00000E+000	6.37757E-004	-3.27687E+002	7	...........
	45	46	4.03040E+000	7.56353E-007	0.00000E+000	3.04841E-006	0.00000E+000	6.36807E-004	-3.27687E+002	7	...........
	46	47	4.03043E+000	7.57228E-007	0.00000E+000	3.05195E-006	0.00000E+000	6.36524E-004	-3.27687E+002	7	...........
	47	48	4.03045E+000	7.56711E-007	0.00000E+000	3.04989E-006	0.00000E+000	6.38774E-004	-3.27687E+002	7	...........
	48	49	4.03048E+000	7.57561E-007	0.00000E+000	3.05333E-006	0.00000E+000	6.37290E-004	-3.27687E+002	7	...........
	49	50	4.03052E+000	7.59088E-007	0.00000E+000	3.05952E-006	0.00000E+000	6.36440E-004	-3.27687E+002	7	...........
	50	51	4.03054E+000	7.58894E-007	0.00000E+000	3.05876E-006	0.00000E+000	6.35524E-004	-3.27687E+002	7	...........
	51	52	4.03058E+000	7.58952E-007	0.00000E+000	3.05902E-006	0.00000E+000	6.36624E-004	-3.27687E+002	7	...........
	52	53	4.03061E+000	7.58979E-007	0.00000E+000	3.05915E-006	0.00000E+000	6.34557E-004	-3.27687E+002	7	...........
	53	54	4.03064E+000	7.58467E-007	0.00000E+000	3.05710E-006	0.00000E+000	6.34924E-004	-3.27687E+002	7	...........
	54	55	4.03067E+000	7.57860E-007	0.00000E+000	3.05469E-006	0.00000E+000	6.34640E-004	-3.27687E+002	7	...........
	55	56	4.03069E+000	7.57902E-007	0.00000E+000	3.05487E-006	0.00000E+000	6.34957E-004	-3.27687E+002	7	...........
	56	57	4.03072E+000	7.57550E-007	0.00000E+000	3.05347E-006	0.00000E+000	6.34140E-004	-3.27687E+002	7	...........
	57	58	4.03075E+000	7.59876E-007	0.00000E+000	3.06287E-006	0.00000E+000	6.32490E-004	-3.27687E+002	7	...........
	58	59	4.03078E+000	7.60059E-007	0.00000E+000	3.06363E-006	0.00000E+000	6.32907E-004	-3.27687E+002	7	...........
	59	60	4.03080E+000	7.58887E-007	0.00000E+000	3.05892E-006	0.00000E+000	6.34207E-004	-3.27687E+002	7	...........
	60	61	4.03082E+000	7.59879E-007	0.00000E+000	3.06294E-006	0.00000E+000	6.33357E-004	-3.27687E+002	7	...........
	61	62	4.03085E+000	7.59708E-007	0.00000E+000	3.06227E-006	0.00000E+000	6.31890E-004	-3.27687E+002	7	...........
	62	63	4.03087E+000	7.60165E-007	0.00000E+000	3.06413E-006	0.00000E+000	6.31307E-004	-3.27687E+002	7	...........
	63	64	4.03091E+000	7.61056E-007	0.00000E+000	3.06775E-006	0.00000E+000	6.31274E-004	-3.27687E+002	7	...........
	64	65	4.03093E+000	7.60799E-007	0.00000E+000	3.06672E-006	0.00000E+000	6.30890E-004	-3.27687E+002	7	...........
	65	66	4.03095E+000	7.61680E-007	0.00000E+000	3.07029E-006	0.00000E+000	6.26174E-004	-3.27687E+002	7	...........
	66	67	4.03097E+000	7.60774E-007	0.00000E+000	3.06666E-006	0.00000E+000	6.31174E-004	-3.27687E+002	7	...........
	67	68	4.03100E+000	7.61662E-007	0.00000E+000	3.07026E-006	0.00000E+000	6.30840E-004	-3.27687E+002	7	...........
	68	69	4.03102E+000	7.61311E-007	0.00000E+000	3.06886E-006	0.00000E+000	6.30774E-004	-3.27687E+002	7	...........
	69	70	4.03104E+000	7.62486E-007	0.00000E+000	3.07361E-006	0.00000E+000	6.29307E-004	-3.27687E+002	7	...........
	70	71	4.03106E+000	7.62738E-007	0.00000E+000	3.07464E-006	0.00000E+000	6.31624E-004	-3.27687E+002	7	...........
	71	72	4.03108E+000	7.64102E-007	0.00000E+000	3.08016E-006	0.00000E+000	6.31740E-004	-3.27687E+002	7	...........
	72	73	4.03110E+000	7.63760E-007	0.00000E+000	3.07879E-006	0.00000E+000	6.31440E-004	-3.27687E+002	7	...........
	73	74	4.03112E+000	7.64039E-007	0.00000E+000	3.07993E-006	0.00000E+000	6.31507E-004	-3.27687E+002	7	...........
	74	75	4.03113E+000	7.64010E-007	0.00000E+000	3.07983E-006	0.00000E+000	6.30240E-004	-3.27687E+002	7	...........
	75	76	4.03114E+000	7.63465E-007	0.00000E+000	3.07764E-006	0.00000E+000	6.31757E-004	-3.27687E+002	7	...........
	76	77	4.03117E+000	7.64630E-007	0.00000E+000	3.08235E-006	0.00000E+000	6.33157E-004	-3.27687E+002	7	...........
	77	78	4.03118E+000	7.64821E-007	0.00000E+000	3.08313E-006	0.00000E+000	6.32774E-004	-3.27687E+002	7	...........
	78	79	4.03119E+000	7.65333E-007	0.00000E+000	3.08520E-006	0.00000E+000	6.31807E-004	-3.27687E+002	7	...........
	79	80	4.03120E+000	7.65964E-007	0.00000E+000	3.08775E-006	0.00000E+000	6.32857E-004	-3.27687E+002	7	...........
	80	81	4.03121E+000	7.64911E-007	0.00000E+000	3.08352E-006	0.00000E+000	6.32057E-004	-3.27687E+002	7	...........
	81	82	4.03122E+000	7.66252E-007	0.00000E+000	3.08893E-006	0.00000E+000	6.30607E-004	-3.27687E+002	7	...........
	82	83	4.03123E+000	7.65108E-007	0.00000E+000	3.08433E-006	0.00000E+000	6.33257E-004	-3.27687E+002	7	...........
	83	84	4.03125E+000	7.65316E-007	0.00000E+000	3.08518E-006	0.00000E+000	6.30107E-004	-3.27687E+002	7	...........
	84	85	4.03126E+000	7.66402E-007	0.00000E+000	3.08956E-006	0.00000E+000	6.31790E-004	-3.27687E+002	7	...........
	85	86	4.03127E+000	7.65570E-007	0.00000E+000	3.08622E-006	0.00000E+000	6.35307E-004	-3.27687E+002	7	...........
	86	87	4.03128E+000	7.67214E-007	0.00000E+000	3.09285E-006	0.00000E+000	6.34857E-004	-3.27687E+002	7	...........
	87	88	4.03129E+000	7.66658E-007	0.00000E+000	3.09062E-006	0.00000E+000	6.31807E-004	-3.27687E+002	7	...........
	88	89	4.03129E+000	7.65795E-007	0.00000E+000	3.08714E-006	0.00000E+000	6.34540E-004	-3.27687E+002	7	...........
	89	90	4.03131E+000	7.66457E-007	0.00000E+000	3.08982E-006	0.00000E+000	6.34790E-004	-3.27687E+002	7	...........
	90	91	4.03132E+000	7.68112E-007	0.00000E+000	3.09650E-006	0.00000E+000	6.35024E-004	-3.27687E+002	7	...........
	91	92	4.03132E+000	7.67738E-007	0.00000E+000	3.09500E-006	0.00000E+000	6.37924E-004	-3.27687E+002	7	...........
	92	93	4.03134E+000	7.67434E-007	0.00000E+000	3.09378E-006	0.00000E+000	6.36090E-004	-3.27687E+002	7	...........
	93	94	4.03134E+000	7.67951E-007	0.00000E+000	3.09588E-006	0.00000E+000	6.38224E-004	-3.27687E+002	7	...........
	94	95	4.03135E+000	7.68660E-007	0.00000E+000	3.09874E-006	0.00000E+000	6.34874E-004	-3.27687E+002	7	...........
	95	96	4.03136E+000	7.67882E-007	0.00000E+000	3.09561E-006	0.00000E+000	6.37624E-004	-3.27687E+002	7	...........
	96	97	4.03137E+000	7.66726E-007	0.00000E+000	3.09096E-006	0.00000E+000	6.34074E-004	-3.27687E+002	7	...........
	97	98	4.03138E+000	7.67667E-007	0.00000E+000	3.09476E-006	0.00000E+000	6.36790E-004	-3.27687E+002	7	...........
	98	99	4.03139E+000	7.69465E-007	0.00000E+000	3.10201E-006	0.00000E+000	6.37257E-004	-3.27687E+002	7	...........
	99	100	4.03140E+000	7.70832E-007	0.00000E+000	3.10753E-006	0.00000E+000	6.35907E-004	-3.27687E+002	7	...........
	100	101	4.03141E+000	7.70482E-007	0.00000E+000	3.10613E-006	0.00000E+000	6.35407E-004	-3.27687E+002	7	...........
	101	102	4.03141E+000	7.69974E-007	0.00000E+000	3.10408E-006	0.00000E+000	6.39474E-004	-3.27687E+002	7	...........
	102	103	4.03143E+000	7.69078E-007	0.00000E+000	3.10048E-006	0.00000E+000	6.38507E-004	-3.27687E+002	7	...........
	103	104	4.03144E+000	7.70113E-007	0.00000E+000	3.10466E-006	0.00000E+000	6.38974E-004	-3.27687E+002	7	...........
	104	105	4.03145E+000	7.70648E-007	0.00000E+000	3.10682E-006	0.00000E+000	6.39440E-004	-3.27687E+002	7	...........
	105	106	4.03146E+000	7.70450E-007	0.00000E+000	3.10604E-006	0.00000E+000	6.39457E-004	-3.27687E+002	7	...........
	106	107	4.03147E+000	7.70845E-007	0.00000E+000	3.10763E-006	0.00000E+000	6.37424E-004	-3.27687E+002	7	...........
	107	108	4.03148E+000	7.70313E-007	0.00000E+000	3.10550E-006	0.00000E+000	6.40224E-004	-3.27687E+002	7	...........
	108	109	4.03149E+000	7.70612E-007	0.00000E+000	3.10671E-006	0.00000E+000	6.39140E-004	-3.27687E+002	7	...........
	109	110	4.03150E+000	7.71138E-007	0.00000E+000	3.10884E-006	0.00000E+000	6.39907E-004	-3.27687E+002	7	...........
	110	111	4.03151E+000	7.70626E-007	0.00000E+000	3.10678E-006	0.00000E+000	6.38840E-004	-3.27687E+002	7	...........
	111	112	4.03152E+000	7.70468E-007	0.00000E+000	3.10616E-006	0.00000E+000	6.41257E-004	-3.27687E+002	7	...........
	112	113	4.03153E+000	7.70287E-007	0.00000E+000	3.10543E-006	0.00000E+000	6.39607E-004	-3.27687E+002	7	...........
	113	114	4.03153E+000	7.72869E-007	0.00000E+000	3.11585E-006	0.00000E+000	6.40940E-004	-3.27687E+002	7	...........
	114	115	4.03154E+000	7.73589E-007	0.00000E+000	3.11875E-006	0.00000E+000	6.39274E-004	-3.27687E+002	7	...........
	115	116	4.03156E+000	7.73600E-007	0.00000E+000	3.11881E-006	0.00000E+000	6.41224E-004	-3.27687E+002	7	...........
	116	117	4.03158E+000	7.74766E-007	0.00000E+000	3.12353E-006	0.00000E+000	6.40524E-004	-3.27687E+002	7	...........
	117	118	4.03158E+000	7.73978E-007	0.00000E+000	3.12035E-006	0.00000E+000	6.39357E-004	-3.27687E+002	7	...........
	118	119	4.03158E+000	7.73659E-007	0.00000E+000	3.11907E-006	0.00000E+000	6.42240E-004	-3.27687E+002	7	...........
	119	120	4.03159E+000	7.73437E-007	0.00000E+000	3.11819E-006	0.00000E+000	6.42774E-004	-3.27687E+002	7	...........
	120	121	4.03160E+000	7.74511E-007	0.00000E+000	3.12252E-006	0.00000E+000	6.42140E-004	-3.27687E+002	7	...........
	121	122	4.03163E+000	7.73946E-007	0.00000E+000	3.12026E-006	0.00000E+000	6.40590E-004	-3.27687E+002	7	...........
	122	123	4.03163E+000	7.74738E-007	0.00000E+000	3.12346E-006	0.00000E+000	6.40407E-004	-3.27687E+002	7	...........
	123	124	4.03165E+000	7.74891E-007	0.00000E+000	3.12409E-006	0.00000E+000	6.40840E-004	-3.27687E+002	7	...........
	124	125	4.03166E+000	7.74152E-007	0.00000E+000	3.12112E-006	0.00000E+000	6.43457E-004	-3.27687E+002	7	...........
	125	126	4.03168E+000	7.73969E-007	0.00000E+000	3.12039E-006	0.00000E+000	6.42357E-004	-3.27687E+002	7	...........
	126	127	4.03167E+000	7.75064E-007	0.00000E+000	3.12481E-006	0.00000E+000	6.39474E-004	-3.27687E+002	7	...........
	127	128	4.03169E+000	7.74846E-007	0.00000E+000	3.12394E-006	0.00000E+000	6.40890E-004	-3.27687E+002	7	...........
	128	129	4.03171E+000	7.75239E-007	0.00000E+000	3.12554E-006	0.00000E+000	6.41390E-004	-3.27687E+002	7	...........
	129	130	4.03172E+000	7.75888E-007	0.00000E+000	3.12816E-006	0.00000E+000	6.43707E-004	-3.27687E+002	7	...........
	130	131	4.03173E+000	7.75364E-007	0.00000E+000	3.12606E-006	0.00000E+000	6.40140E-004	-3.27687E+002	7	...........
	131	132	4.03174E+000	7.74681E-007	0.00000E+000	3.12331E-006	0.00000E+000	6.43140E-004	-3.27687E+002	7	...........
	132	133	4.03175E+000	7.75763E-007	0.00000E+000	3.12769E-006	0.00000E+000	6.38557E-004	-3.27687E+002	7	...........
	133	134	4.03176E+000	7.76953E-007	0.00000E+000	3.13249E-006	0.00000E+000	6.42724E-004	-3.27687E+002	7	...........
	134	135	4.03177E+000	7.77415E-007	0.00000E+000	3.13436E-006	0.00000E+000	6.41724E-004	-3.27687E+002	7	...........
	135	136	4.03178E+000	7.76210E-007	0.00000E+000	3.12951E-006	0.00000E+000	6.42374E-004	-3.27687E+002	7	...........
	136	137	4.03179E+000	7.76448E-007	0.00000E+000	3.13047E-006	0.00000E+000	6.42224E-004	-3.27687E+002	7	...........
	137	138	4.03180E+000	7.76531E-007	0.00000E+000	3.13082E-006	0.00000E+000	6.42324E-004	-3.27687E+002	7	...........
	138	139	4.03181E+000	7.76002E-007	0.00000E+000	3.12869E-006	0.00000E+000	6.42024E-004	-3.27687E+002	7	...........
	139	140	4.03182E+000	7.76117E-007	0.00000E+000	3.12916E-006	0.00000E+000	6.42440E-004	-3.27687E+002	7	...........
	140	141	4.03182E+000	7.76117E-007	0.00000E+000	3.12916E-006	0.00000E+000	6.42074E-004	-3.27687E+002	7	...........
	141	142	4.03183E+000	7.76067E-007	0.00000E+000	3.12897E-006	0.00000E+000	6.40307E-004	-3.27687E+002	7	...........
	142	143	4.03184E+000	7.76476E-007	0.00000E+000	3.13063E-006	0.00000E+000	6.39390E-004	-3.27687E+002	7	...........
	143	144	4.03186E+000	7.77425E-007	0.00000E+000	3.13447E-006	0.00000E+000	6.41007E-004	-3.27687E+002	7	...........
	144	145	4.03188E+000	7.77917E-007	0.00000E+000	3.13647E-006	0.00000E+000	6.41507E-004	-3.27687E+002	7	...........
	145	146	4.03188E+000	7.78233E-007	0.00000E+000	3.13775E-006	0.00000E+000	6.43457E-004	-3.27687E+002	7	...........
	146	147	4.03188E+000	7.77822E-007	0.00000E+000	3.13608E-006	0.00000E+000	6.42090E-004	-3.27687E+002	7	...........
	147	148	4.03191E+000	7.77540E-007	0.00000E+000	3.13497E-006	0.00000E+000	6.42824E-004	-3.27687E+002	7	...........
	148	149	4.03192E+000	7.78631E-007	0.00000E+000	3.13938E-006	0.00000E+000	6.42890E-004	-3.27687E+002	7	...........
	149	150	4.03195E+000	7.78025E-007	0.00000E+000	3.13696E-006	0.00000E+000	6.40157E-004	-3.27687E+002	7	...........
	150	151	4.03194E+000	7.78343E-007	0.00000E+000	3.13824E-006	0.00000E+000	6.40490E-004	-3.27687E+002	7	...........
	151	152	4.03194E+000	7.78976E-007	0.00000E+000	3.14079E-006	0.00000E+000	6.44974E-004	-3.27687E+002	7	...........
	152	153	4.03196E+000	7.77728E-007	0.00000E+000	3.13577E-006	0.00000E+000	6.41990E-004	-3.27687E+002	7	...........
	153	154	4.03197E+000	7.77955E-007	0.00000E+000	3.13669E-006	0.00000E+000	6.42590E-004	-3.27687E+002	7	...........
	154	155	4.03199E+000	7.78324E-007	0.00000E+000	3.13820E-006	0.00000E+000	6.39107E-004	-3.27687E+002	7	...........
	155	156	4.03199E+000	7.78058E-007	0.00000E+000	3.13712E-006	0.00000E+000	6.40340E-004	-3.27687E+002	7	...........
	156	157	4.03201E+000	7.79279E-007	0.00000E+000	3.14206E-006	0.00000E+000	6.40890E-004	-3.27687E+002	7	...........
	157	158	4.03203E+000	7.77869E-007	0.00000E+000	3.13639E-006	0.00000E+000	6.41507E-004	-3.27687E+002	7	...........
	158	159	4.03203E+000	7.78212E-007	0.00000E+000	3.13777E-006	0.00000E+000	6.41840E-004	-3.27687E+002	7	...........
	159	160	4.03205E+000	7.78084E-007	0.00000E+000	3.13728E-006	0.00000E+000	6.40540E-004	-3.27687E+002	7	...........
	160	161	4.03205E+000	7.77582E-007	0.00000E+000	3.13525E-006	0.00000E+000	6.42207E-004	-3.27687E+002	7	...........
	161	162	4.03206E+000	7.78042E-007	0.00000E+000	3.13711E-006	0.00000E+000	6.42057E-004	-3.27687E+002	7	...........
	162	163	4.03205E+000	7.78669E-007	0.00000E+000	3.13964E-006	0.00000E+000	6.38740E-004	-3.27687E+002	7	...........
	163	164	4.03207E+000	7.78219E-007	0.00000E+000	3.13783E-006	0.00000E+000	6.42174E-004	-3.27687E+002	7	...........
	164	165	4.03208E+000	7.78380E-007	0.00000E+000	3.13849E-006	0.00000E+000	6.42674E-004	-3.27687E+002	7	...........
	165	166	4.03209E+000	7.78555E-007	0.00000E+000	3.13920E-006	0.00000E+000	6.43874E-004	-3.27687E+002	7	...........
	166	167	4.03210E+000	7.78728E-007	0.00000E+000	3.13991E-006	0.00000E+000	6.38524E-004	-3.27687E+002	7	...........
	167	168	4.03211E+000	7.78904E-007	0.00000E+000	3.14063E-006	0.00000E+000	6.40657E-004	-3.27687E+002	7	...........
	168	169	4.03212E+000	7.78316E-007	0.00000E+000	3.13826E-006	0.00000E+000	6.43857E-004	-3.27687E+002	7	...........
	169	170	4.03213E+000	7.79561E-007	0.00000E+000	3.14329E-006	0.00000E+000	6.41740E-004	-3.27687E+002	7	...........
	170	171	4.03213E+000	7.80042E-007	0.00000E+000	3.14523E-006	0.00000E+000	6.41324E-004	-3.27687E+002	7	...........
	171	172	4.03214E+000	7.80239E-007	0.00000E+000	3.14604E-006	0.00000E+000	6.41057E-004	-3.27687E+002	7	...........
	172	173	4.03216E+000	7.79849E-007	0.00000E+000	3.14447E-006	0.00000E+000	6.41257E-004	-3.27687E+002	7	...........
	173	174	4.03216E+000	7.80324E-007	0.00000E+000	3.14639E-006	0.00000E+000	6.39790E-004	-3.27687E+002	7	...........
	174	175	4.03215E+000	7.80195E-007	0.00000E+000	3.14586E-006	0.00000E+000	6.42107E-004	-3.27687E+002	7	...........
	175	176	4.03216E+000	7.80423E-007	0.00000E+000	3.14679E-006	0.00000E+000	6.42290E-004	-3.27687E+002	7	...........
	176	177	4.03218E+000	7.80732E-007	0.00000E+000	3.14805E-006	0.00000E+000	6.43724E-004	-3.27687E+002	7	...........
	177	178	4.03219E+000	7.80775E-007	0.00000E+000	3.14824E-006	0.00000E+000	6.41924E-004	-3.27687E+002	7	...........
	178	179	4.03219E+000	7.80692E-007	0.00000E+000	3.14790E-006	0.00000E+000	6.39907E-004	-3.27687E+002	7	...........
	179	180	4.03219E+000	7.81251E-007	0.00000E+000	3.15016E-006	0.00000E+000	6.39407E-004	-3.27687E+002	7	...........
	180	181	4.03221E+000	7.80948E-007	0.00000E+000	3.14895E-006	0.00000E+000	6.42040E-004	-3.27687E+002	7	...........
	181	182	4.03221E+000	7.80929E-007	0.00000E+000	3.14887E-006	0.00000E+000	6.40040E-004	-3.27687E+002	7	...........
	182	183	4.03222E+000	7.80813E-007	0.00000E+000	3.14841E-006	0.00000E+000	6.39790E-004	-3.27687E+002	7	...........
	183	184	4.03223E+000	7.81063E-007	0.00000E+000	3.14942E-006	0.00000E+000	6.41957E-004	-3.27687E+002	7	...........
	184	185	4.03223E+000	7.81389E-007	0.00000E+000	3.15074E-006	0.00000E+000	6.39324E-004	-3.27687E+002	7	...........
	185	186	4.03224E+000	7.82114E-007	0.00000E+000	3.15367E-006	0.00000E+000	6.39657E-004	-3.27687E+002	7	...........
	186	187	4.03226E+000	7.81117E-007	0.00000E+000	3.14967E-006	0.00000E+000	6.41774E-004	-3.27687E+002	7	...........
	187	188	4.03226E+000	7.81346E-007	0.00000E+000	3.15059E-006	0.00000E+000	6.38524E-004	-3.27687E+002	7	...........
	188	189	4.03226E+000	7.81453E-007	0.00000E+000	3.15102E-006	0.00000E+000	6.39574E-004	-3.27687E+002	7	...........
	189	190	4.03227E+000	7.81789E-007	0.00000E+000	3.15239E-006	0.00000E+000	6.39190E-004	-3.27687E+002	7	...........
	190	191	4.03228E+000	7.82325E-007	0.00000E+000	3.15456E-006	0.00000E+000	6.40924E-004	-3.27687E+002	7	...........
	191	192	4.03229E+000	7.82158E-007	0.00000E+000	3.15389E-006	0.00000E+000	6.43007E-004	-3.27687E+002	7	...........
	192	193	4.03230E+000	7.81634E-007	0.00000E+000	3.15178E-006	0.00000E+000	6.41757E-004	-3.27687E+002	7	...........
	193	194	4.03232E+000	7.82160E-007	0.00000E+000	3.15392E-006	0.00000E+000	6.39757E-004	-3.27687E+002	7	...........
	194	195	4.03232E+000	7.81750E-007	0.00000E+000	3.15226E-006	0.00000E+000	6.39257E-004	-3.27687E+002	7	...........
	195	196	4.03232E+000	7.81521E-007	0.00000E+000	3.15134E-006	0.00000E+000	6.40390E-004	-3.27687E+002	7	...........
	196	197	4.03234E+000	7.81573E-007	0.00000E+000	3.15157E-006	0.00000E+000	6.39340E-004	-3.27687E+002	7	...........
	197	198	4.03233E+000	7.82309E-007	0.00000E+000	3.15453E-006	0.00000E+000	6.46457E-004	-3.27687E+002	7	...........
	198	199	4.03235E+000	7.82265E-007	0.00000E+000	3.15437E-006	0.00000E+000	6.39840E-004	-3.27687E+002	7	...........
	199	200	4.03234E+000	7.83296E-007	0.00000E+000	3.15852E-006	0.00000E+000	6.39857E-004	-3.27687E+002	7	...........
	200	201	4.03236E+000	7.82605E-007	0.00000E+000	3.15574E-006	0.00000E+000	6.38924E-004	-3.27687E+002	7	...........
	201	202	4.03236E+000	7.82590E-007	0.00000E+000	3.15569E-006	0.00000E+000	6.40957E-004	-3.27687E+002	7	...........
	202	203	4.03238E+000	7.82220E-007	0.00000E+000	3.15421E-006	0.00000E+000	6.38624E-004	-3.27687E+002	7	...........
	203	204	4.03238E+000	7.81864E-007	0.00000E+000	3.15277E-006	0.00000E+000	6.42340E-004	-3.27687E+002	7	...........
	204	205	4.03238E+000	7.81777E-007	0.00000E+000	3.15242E-006	0.00000E+000	6.41724E-004	-3.27687E+002	7	...........
	205	206	4.03239E+000	7.82410E-007	0.00000E+000	3.15498E-006	0.00000E+000	6.40324E-004	-3.27687E+002	7	...........
	206	207	4.03240E+000	7.82401E-007	0.00000E+000	3.15495E-006	0.00000E+000	6.40290E-004	-3.27687E+002	7	...........
	207	208	4.03240E+000	7.81975E-007	0.00000E+000	3.15323E-006	0.00000E+000	6.38924E-004	-3.27687E+002	7	...........
	208	209	4.03240E+000	7.81634E-007	0.00000E+000	3.15186E-006	0.00000E+000	6.38974E-004	-3.27687E+002	7	...........
	209	210	4.03241E+000	7.81726E-007	0.00000E+000	3.15224E-006	0.00000E+000	6.42140E-004	-3.27687E+002	7	...........
	210	211	4.03241E+000	7.81165E-007	0.00000E+000	3.14998E-006	0.00000E+000	6.40940E-004	-3.27687E+002	7	...........
	211	212	4.03243E+000	7.81768E-007	0.00000E+000	3.15242E-006	0.00000E+000	6.41590E-004	-3.27687E+002	7	...........
	212	213	4.03243E+000	7.82433E-007	0.00000E+000	3.15511E-006	0.00000E+000	6.40140E-004	-3.27687E+002	7	...........
	213	214	4.03243E+000	7.82988E-007	0.00000E+000	3.15735E-006	0.00000E+000	6.38690E-004	-3.27687E+002	7	...........
	214	215	4.03244E+000	7.83035E-007	0.00000E+000	3.15755E-006	0.00000E+000	6.40390E-004	-3.27687E+002	7	...........
	215	216	4.03245E+000	7.82600E-007	0.00000E+000	3.15580E-006	0.00000E+000	6.39940E-004	-3.27687E+002	7	...........
	216	217	4.03246E+000	7.82774E-007	0.00000E+000	3.15650E-006	0.00000E+000	6.38124E-004	-3.27687E+002	7	...........
	217	218	4.03246E+000	7.82575E-007	0.00000E+000	3.15571E-006	0.00000E+000	6.40407E-004	-3.27687E+002	7	...........
	218	219	4.03247E+000	7.83202E-007	0.00000E+000	3.15824E-006	0.00000E+000	6.39524E-004	-3.27687E+002	7	...........
	219	220	4.03248E+000	7.83047E-007	0.00000E+000	3.15762E-006	0.00000E+000	6.39640E-004	-3.27687E+002	7	...........
	220	221	4.03247E+000	7.82866E-007	0.00000E+000	3.15688E-006	0.00000E+000	6.38224E-004	-3.27687E+002	7	...........
	221	222	4.03248E+000	7.82711E-007	0.00000E+000	3.15627E-006	0.00000E+000	6.41857E-004	-3.27687E+002	7	...........
	222	223	4.03249E+000	7.83062E-007	0.00000E+000	3.15769E-006	0.00000E+000	6.41007E-004	-3.27687E+002	7	...........
	223	224	4.03249E+000	7.82556E-007	0.00000E+000	3.15565E-006	0.00000E+000	6.41557E-004	-3.27687E+002	7	...........
	224	225	4.03249E+000	7.82415E-007	0.00000E+000	3.15508E-006	0.00000E+000	6.41457E-004	-3.27687E+002	7	...........
	225	226	4.03250E+000	7.82968E-007	0.00000E+000	3.15732E-006	0.00000E+000	6.41607E-004	-3.27687E+002	7	...........
	226	227	4.03250E+000	7.83232E-007	0.00000E+000	3.15838E-006	0.00000E+000	6.42457E-004	-3.27687E+002	7	...........
	227	228	4.03250E+000	7.83257E-007	0.00000E+000	3.15849E-006	0.00000E+000	6.41907E-004	-3.27687E+002	7	...........
	228	229	4.03251E+000	7.84519E-007	0.00000E+000	3.16358E-006	0.00000E+000	6.40607E-004	-3.27687E+002	7	...........
	229	230	4.03253E+000	7.83071E-007	0.00000E+000	3.15776E-006	0.00000E+000	6.40424E-004	-3.27687E+002	7	...........
	230	231	4.03254E+000	7.83716E-007	0.00000E+000	3.16037E-006	0.00000E+000	6.39490E-004	-3.27687E+002	7	...........
	231	232	4.03254E+000	7.83821E-007	0.00000E+000	3.16079E-006	0.00000E+000	6.39074E-004	-3.27687E+002	7	...........
	232	233	4.03255E+000	7.84011E-007	0.00000E+000	3.16156E-006	0.00000E+000	6.40540E-004	-3.27687E+002	7	...........
	233	234	4.03255E+000	7.84202E-007	0.00000E+000	3.16233E-006	0.00000E+000	6.37690E-004	-3.27687E+002	7	...........
	234	235	4.03256E+000	7.84184E-007	0.00000E+000	3.16227E-006	0.00000E+000	6.37140E-004	-3.27687E+002	7	...........
	235	236	4.03256E+000	7.83588E-007	0.00000E+000	3.15986E-006	0.00000E+000	6.39257E-004	-3.27687E+002	7	...........
	236	237	4.03256E+000	7.84166E-007	0.00000E+000	3.16219E-006	0.00000E+000	6.38624E-004	-3.27687E+002	7	...........
	237	238	4.03256E+000	7.84007E-007	0.00000E+000	3.16156E-006	0.00000E+000	6.38490E-004	-3.27687E+002	7	...........
	238	239	4.03257E+000	7.83778E-007	0.00000E+000	3.16064E-006	0.00000E+000	6.39840E-004	-3.27687E+002	7	...........
	239	240	4.03258E+000	7.83019E-007	0.00000E+000	3.15759E-006	0.00000E+000	6.38940E-004	-3.27687E+002	7	...........
	240	241	4.03259E+000	7.83369E-007	0.00000E+000	3.15901E-006	0.00000E+000	6.36724E-004	-3.27687E+002	7	...........
	241	242	4.03260E+000	7.83626E-007	0.00000E+000	3.16005E-006	0.00000E+000	6.38324E-004	-3.27687E+002	7	...........
	242	243	4.03260E+000	7.84390E-007	0.00000E+000	3.16313E-006	0.00000E+000	6.40807E-004	-3.27687E+002	7	...........
	243	244	4.03259E+000	7.84034E-007	0.00000E+000	3.16169E-006	0.00000E+000	6.38057E-004	-3.27687E+002	7	...........
	244	245	4.03260E+000	7.83389E-007	0.00000E+000	3.15909E-006	0.00000E+000	6.42057E-004	-3.27687E+002	7	...........
	245	246	4.03259E+000	7.83036E-007	0.00000E+000	3.15766E-006	0.00000E+000	6.40840E-004	-3.27687E+002	7	...........
	246	247	4.03260E+000	7.83952E-007	0.00000E+000	3.16136E-006	0.00000E+000	6.38674E-004	-3.27687E+002	7	...........
	247	248	4.03260E+000	7.84206E-007	0.00000E+000	3.16239E-006	0.00000E+000	6.41324E-004	-3.27687E+002	7	...........
	248	249	4.03260E+000	7.84325E-007	0.00000E+000	3.16287E-006	0.00000E+000	6.40990E-004	-3.27687E+002	7	...........
	249	250	4.03261E+000	7.84483E-007	0.00000E+000	3.16351E-006	0.00000E+000	6.38707E-004	-3.27687E+002	7	...........
	250	251	4.03262E+000	7.84016E-007	0.00000E+000	3.16164E-006	0.00000E+000	6.39657E-004	-3.27687E+002	7	...........
	251	252	4.03262E+000	7.84196E-007	0.00000E+000	3.16236E-006	0.00000E+000	6.40907E-004	-3.27687E+002	7	...........
	252	253	4.03263E+000	7.84233E-007	0.00000E+000	3.16252E-006	0.00000E+000	6.40757E-004	-3.27687E+002	7	...........
	253	254	4.03263E+000	7.83762E-007	0.00000E+000	3.16062E-006	0.00000E+000	6.40624E-004	-3.27687E+002	7	...........
	254	255	4.03264E+000	7.83940E-007	0.00000E+000	3.16135E-006	0.00000E+000	6.41990E-004	-3.27687E+002	7	...........
	255	256	4.03264E+000	7.84104E-007	0.00000E+000	3.16201E-006	0.00000E+000	6.39940E-004	-3.27687E+002	7	...........
	256	257	4.03265E+000	7.84769E-007	0.00000E+000	3.16470E-006	0.00000E+000	6.38040E-004	-3.27687E+002	7	...........
	257	258	4.03265E+000	7.84984E-007	0.00000E+000	3.16557E-006	0.00000E+000	6.37390E-004	-3.27687E+002	7	...........
	258	259	4.03266E+000	7.83667E-007	0.00000E+000	3.16027E-006	0.00000E+000	6.40790E-004	-3.27687E+002	7	...........
	259	260	4.03266E+000	7.83864E-007	0.00000E+000	3.16105E-006	0.00000E+000	6.41007E-004	-3.27687E+002	7	...........
	260	261	4.03266E+000	7.83964E-007	0.00000E+000	3.16146E-006	0.00000E+000	6.41574E-004	-3.27687E+002	7	...........
	261	262	4.03267E+000	7.83481E-007	0.00000E+000	3.15952E-006	0.00000E+000	6.41190E-004	-3.27687E+002	7	...........
	262	263	4.03266E+000	7.84023E-007	0.00000E+000	3.16170E-006	0.00000E+000	6.41490E-004	-3.27687E+002	7	...........
	263	264	4.03268E+000	7.84741E-007	0.00000E+000	3.16461E-006	0.00000E+000	6.41474E-004	-3.27687E+002	7	...........
	264	265	4.03267E+000	7.84255E-007	0.00000E+000	3.16264E-006	0.00000E+000	6.40490E-004	-3.27687E+002	7	...........
	265	266	4.03268E+000	7.83827E-007	0.00000E+000	3.16093E-006	0.00000E+000	6.40324E-004	-3.27687E+002	7	...........
	266	267	4.03269E+000	7.83692E-007	0.00000E+000	3.16039E-006	0.00000E+000	6.40557E-004	-3.27687E+002	7	...........
	267	268	4.03269E+000	7.83832E-007	0.00000E+000	3.16096E-006	0.00000E+000	6.39574E-004	-3.27687E+002	7	...........
	268	269	4.03270E+000	7.83819E-007	0.00000E+000	3.16090E-006	0.00000E+000	6.41157E-004	-3.27687E+002	7	...........
	269	270	4.03270E+000	7.83888E-007	0.00000E+000	3.16119E-006	0.00000E+000	6.44257E-004	-3.27687E+002	7	...........
	270	271	4.03271E+000	7.84385E-007	0.00000E+000	3.16320E-006	0.00000E+000	6.40040E-004	-3.27687E+002	7	...........
	271	272	4.03270E+000	7.85253E-007	0.00000E+000	3.16669E-006	0.00000E+000	6.41857E-004	-3.27687E+002	7	...........
	272	273	4.03272E+000	7.84656E-007	0.00000E+000	3.16429E-006	0.00000E+000	6.44874E-004	-3.27687E+002	7	...........
	273	274	4.03271E+000	7.84345E-007	0.00000E+000	3.16303E-006	0.00000E+000	6.43440E-004	-3.27687E+002	7	...........
	274	275	4.03271E+000	7.84620E-007	0.00000E+000	3.16414E-006	0.00000E+000	6.41840E-004	-3.27687E+002	7	...........
	275	276	4.03272E+000	7.84952E-007	0.00000E+000	3.16549E-006	0.00000E+000	6.40040E-004	-3.27687E+002	7	...........
	276	277	4.03273E+000	7.85698E-007	0.00000E+000	3.16851E-006	0.00000E+000	6.39274E-004	-3.27687E+002	7	...........
	277	278	4.03272E+000	7.85616E-007	0.00000E+000	3.16817E-006	0.00000E+000	6.40424E-004	-3.27687E+002	7	...........
	278	279	4.03274E+000	7.84601E-007	0.00000E+000	3.16409E-006	0.00000E+000	6.41607E-004	-3.27687E+002	7	...........
	279	280	4.03274E+000	7.85066E-007	0.00000E+000	3.16596E-006	0.00000E+000	6.42840E-004	-3.27687E+002	7	...........
	280	281	4.03273E+000	7.85053E-007	0.00000E+000	3.16590E-006	0.00000E+000	6.41440E-004	-3.27687E+002	7	...........
	281	282	4.03273E+000	7.84763E-007	0.00000E+000	3.16474E-006	0.00000E+000	6.42774E-004	-3.27687E+002	7	...........
	282	283	4.03273E+000	7.84519E-007	0.00000E+000	3.16376E-006	0.00000E+000	6.40524E-004	-3.27687E+002	7	...........
	283	284	4.03273E+000	7.85094E-007	0.00000E+000	3.16608E-006	0.00000E+000	6.42757E-004	-3.27687E+002	7	...........
	284	285	4.03274E+000	7.85471E-007	0.00000E+000	3.16760E-006	0.00000E+000	6.39090E-004	-3.27687E+002	7	...........
	285	286	4.03275E+000	7.85588E-007	0.00000E+000	3.16808E-006	0.00000E+000	6.40024E-004	-3.27687E+002	7	...........
	286	287	4.03275E+000	7.86179E-007	0.00000E+000	3.17047E-006	0.00000E+000	6.43740E-004	-3.27687E+002	7	...........
	287	288	4.03276E+000	7.84997E-007	0.00000E+000	3.16570E-006	0.00000E+000	6.42340E-004	-3.27687E+002	7	...........
	288	289	4.03275E+000	7.85116E-007	0.00000E+000	3.16618E-006	0.00000E+000	6.40540E-004	-3.27687E+002	7	...........
	289	290	4.03276E+000	7.85246E-007	0.00000E+000	3.16671E-006	0.00000E+000	6.40824E-004	-3.27687E+002	7	...........
	290	291	4.03277E+000	7.85838E-007	0.00000E+000	3.16911E-006	0.00000E+000	6.40290E-004	-3.27687E+002	7	...........
	291	292	4.03277E+000	7.85652E-007	0.00000E+000	3.16836E-006	0.00000E+000	6.38790E-004	-3.27687E+002	7	...........
	292	293	4.03277E+000	7.85721E-007	0.00000E+000	3.16863E-006	0.00000E+000	6.40390E-004	-3.27687E+002	7	...........
	293	294	4.03278E+000	7.85680E-007	0.00000E+000	3.16847E-006	0.00000E+000	6.40874E-004	-3.27687E+002	7	...........
	294	295	4.03277E+000	7.85738E-007	0.00000E+000	3.16870E-006	0.00000E+000	6.43524E-004	-3.27687E+002	7	...........
	295	296	4.03278E+000	7.85434E-007	0.00000E+000	3.16748E-006	0.00000E+000	6.43324E-004	-3.27687E+002	7	...........
	296	297	4.03278E+000	7.85663E-007	0.00000E+000	3.16841E-006	0.00000E+000	6.43040E-004	-3.27687E+002	7	...........
	297	298	4.03278E+000	7.85898E-007	0.00000E+000	3.16935E-006	0.00000E+000	6.42207E-004	-3.27687E+002	7	...........
	298	299	4.03279E+000	7.85927E-007	0.00000E+000	3.16948E-006	0.00000E+000	6.44857E-004	-3.27687E+002	7	...........
	299	300	4.03279E+000	7.86374E-007	0.00000E+000	3.17129E-006	0.00000E+000	6.44874E-004	-3.27687E+002	7	...........
	300	301	4.03279E+000	7.87210E-007	0.00000E+000	3.17466E-006	0.00000E+000	6.45690E-004	-3.27687E+002	7	...........
	301	302	4.03280E+000	7.86202E-007	0.00000E+000	3.17060E-006	0.00000E+000	6.43940E-004	-3.27687E+002	7	...........
	302	303	4.03280E+000	7.85992E-007	0.00000E+000	3.16975E-006	0.00000E+000	6.41090E-004	-3.27687E+002	7	...........
	303	304	4.03281E+000	7.86331E-007	0.00000E+000	3.17112E-006	0.00000E+000	6.43990E-004	-3.27687E+002	7	...........
	304	305	4.03281E+000	7.86889E-007	0.00000E+000	3.17338E-006	0.00000E+000	6.44440E-004	-3.27687E+002	7	...........
	305	306	4.03281E+000	7.87219E-007	0.00000E+000	3.17471E-006	0.00000E+000	6.46007E-004	-3.27687E+002	7	...........
	306	307	4.03281E+000	7.86951E-007	0.00000E+000	3.17363E-006	0.00000E+000	6.43390E-004	-3.27687E+002	7	...........
	307	308	4.03282E+000	7.86712E-007	0.00000E+000	3.17267E-006	0.00000E+000	6.46340E-004	-3.27687E+002	7	...........
	308	309	4.03282E+000	7.86919E-007	0.00000E+000	3.17350E-006	0.00000E+000	6.43790E-004	-3.27687E+002	7	...........
	309	310	4.03282E+000	7.87262E-007	0.00000E+000	3.17488E-006	0.00000E+000	6.45474E-004	-3.27687E+002	7	...........
	310	311	4.03282E+000	7.87304E-007	0.00000E+000	3.17506E-006	0.00000E+000	6.42407E-004	-3.27687E+002	7	...........
	311	312	4.03283E+000	7.86977E-007	0.00000E+000	3.17374E-006	0.00000E+000	6.44807E-004	-3.27687E+002	7	...........
	312	313	4.03283E+000	7.87019E-007	0.00000E+000	3.17391E-006	0.00000E+000	6.47207E-004	-3.27687E+002	7	...........
	313	314	4.03283E+000	7.87362E-007	0.00000E+000	3.17530E-006	0.00000E+000	6.47390E-004	-3.27687E+002	7	...........
	314	315	4.03284E+000	7.88047E-007	0.00000E+000	3.17806E-006	0.00000E+000	6.44857E-004	-3.27687E+002	7	...........
	315	316	4.03284E+000	7.87908E-007	0.00000E+000	3.17751E-006	0.00000E+000	6.45574E-004	-3.27687E+002	7	...........
	316	317	4.03285E+000	7.87846E-007	0.00000E+000	3.17726E-006	0.00000E+000	6.47207E-004	-3.27687E+002	7	...........
	317	318	4.03284E+000	7.87861E-007	0.00000E+000	3.17732E-006	0.00000E+000	6.45057E-004	-3.27687E+002	7	...........
	318	319	4.03284E+000	7.87836E-007	0.00000E+000	3.17722E-006	0.00000E+000	6.43940E-004	-3.27687E+002	7	...........
	319	320	4.03285E+000	7.88163E-007	0.00000E+000	3.17854E-006	0.00000E+000	6.45157E-004	-3.27687E+002	7	...........
	320	321	4.03284E+000	7.88231E-007	0.00000E+000	3.17881E-006	0.00000E+000	6.46874E-004	-3.27687E+002	7	...........
	321	322	4.03286E+000	7.87911E-007	0.00000E+000	3.17753E-006	0.00000E+000	6.46690E-004	-3.27687E+002	7	...........
	322	323	4.03285E+000	7.88171E-007	0.00000E+000	3.17858E-006	0.00000E+000	6.46640E-004	-3.27687E+002	7	...........
	323	324	4.03285E+000	7.87603E-007	0.00000E+000	3.17629E-006	0.00000E+000	6.47974E-004	-3.27687E+002	7	...........
	324	325	4.03285E+000	7.87584E-007	0.00000E+000	3.17621E-006	0.00000E+000	6.46440E-004	-3.27687E+002	7	...........
	325	326	4.03286E+000	7.86912E-007	0.00000E+000	3.17351E-006	0.00000E+000	6.47074E-004	-3.27687E+002	7	...........
	326	327	4.03286E+000	7.87500E-007	0.00000E+000	3.17588E-006	0.00000E+000	6.46207E-004	-3.27687E+002	7	...........
	327	328	4.03286E+000	7.87421E-007	0.00000E+000	3.17556E-006	0.00000E+000	6.45140E-004	-3.27687E+002	7	...........
	328	329	4.03287E+000	7.87633E-007	0.00000E+000	3.17642E-006	0.00000E+000	6.47224E-004	-3.27687E+002	7	...........
	329	330	4.03286E+000	7.88612E-007	0.00000E+000	3.18036E-006	0.00000E+000	6.44240E-004	-3.27687E+002	7	...........
	330	331	4.03287E+000	7.88034E-007	0.00000E+000	3.17803E-006	0.00000E+000	6.47124E-004	-3.27687E+002	7	...........
	331	332	4.03286E+000	7.88223E-007	0.00000E+000	3.17880E-006	0.00000E+000	6.48290E-004	-3.27687E+002	7	...........
	332	333	4.03286E+000	7.87603E-007	0.00000E+000	3.17629E-006	0.00000E+000	6.47907E-004	-3.27687E+002	7	...........
	333	334	4.03287E+000	7.88203E-007	0.00000E+000	3.17872E-006	0.00000E+000	6.46090E-004	-3.27687E+002	7	...........
	334	335	4.03288E+000	7.88418E-007	0.00000E+000	3.17960E-006	0.00000E+000	6.43990E-004	-3.27687E+002	7	...........
	335	336	4.03288E+000	7.88632E-007	0.00000E+000	3.18046E-006	0.00000E+000	6.47524E-004	-3.27687E+002	7	...........
	336	337	4.03288E+000	7.88519E-007	0.00000E+000	3.18000E-006	0.00000E+000	6.46474E-004	-3.27687E+002	7	...........
	337	338	4.03289E+000	7.88659E-007	0.00000E+000	3.18057E-006	0.00000E+000	6.48007E-004	-3.27687E+002	7	...........
	338	339	4.03288E+000	7.88339E-007	0.00000E+000	3.17928E-006	0.00000E+000	6.50674E-004	-3.27687E+002	7	...........
	339	340	4.03288E+000	7.87941E-007	0.00000E+000	3.17767E-006	0.00000E+000	6.46940E-004	-3.27687E+002	7	...........
	340	341	4.03289E+000	7.87629E-007	0.00000E+000	3.17642E-006	0.00000E+000	6.48124E-004	-3.27687E+002	7	...........
	341	342	4.03289E+000	7.87953E-007	0.00000E+000	3.17773E-006	0.00000E+000	6.47607E-004	-3.27687E+002	7	...........
	342	343	4.03289E+000	7.88329E-007	0.00000E+000	3.17925E-006	0.00000E+000	6.48507E-004	-3.27687E+002	7	...........
	343	344	4.03290E+000	7.88848E-007	0.00000E+000	3.18134E-006	0.00000E+000	6.44940E-004	-3.27687E+002	7	...........
	344	345	4.03290E+000	7.88735E-007	0.00000E+000	3.18089E-006	0.00000E+000	6.48057E-004	-3.27687E+002	7	...........
	345	346	4.03291E+000	7.88753E-007	0.00000E+000	3.18097E-006	0.00000E+000	6.46124E-004	-3.27687E+002	7	...........
	346	347	4.03290E+000	7.88456E-007	0.00000E+000	3.17976E-006	0.00000E+000	6.49757E-004	-3.27687E+002	7	...........
	347	348	4.03291E+000	7.88411E-007	0.00000E+000	3.17959E-006	0.00000E+000	6.51324E-004	-3.27687E+002	7	...........
	348	349	4.03290E+000	7.88650E-007	0.00000E+000	3.18055E-006	0.00000E+000	6.50157E-004	-3.27687E+002	7	...........
	349	350	4.03290E+000	7.88704E-007	0.00000E+000	3.18076E-006	0.00000E+000	6.49357E-004	-3.27687E+002	7	...........
	350	351	4.03291E+000	7.88881E-007	0.00000E+000	3.18148E-006	0.00000E+000	6.49024E-004	-3.27687E+002	7	...........
	351	352	4.03292E+000	7.88605E-007	0.00000E+000	3.18038E-006	0.00000E+000	6.50890E-004	-3.27687E+002	7	...........
	352	353	4.03292E+000	7.88686E-007	0.00000E+000	3.18070E-006	0.00000E+000	6.47007E-004	-3.27687E+002	7	...........
	353	354	4.03292E+000	7.88748E-007	0.00000E+000	3.18096E-006	0.00000E+000	6.49290E-004	-3.27687E+002	7	...........
	354	355	4.03292E+000	7.88285E-007	0.00000E+000	3.17909E-006	0.00000E+000	6.49774E-004	-3.27687E+002	7	...........
	355	356	4.03293E+000	7.88452E-007	0.00000E+000	3.17977E-006	0.00000E+000	6.46574E-004	-3.27687E+002	7	...........
	356	357	4.03292E+000	7.89379E-007	0.00000E+000	3.18351E-006	0.00000E+000	6.46940E-004	-3.27687E+002	7	...........
	357	358	4.03293E+000	7.89260E-007	0.00000E+000	3.18303E-006	0.00000E+000	6.48440E-004	-3.27687E+002	7	...........
	358	359	4.03293E+000	7.90762E-007	0.00000E+000	3.18908E-006	0.00000E+000	6.49524E-004	-3.27687E+002	7	...........
	359	360	4.03293E+000	7.89571E-007	0.00000E+000	3.18429E-006	0.00000E+000	6.50190E-004	-3.27687E+002	7	...........
	360	361	4.03293E+000	7.89196E-007	0.00000E+000	3.18277E-006	0.00000E+000	6.48040E-004	-3.27687E+002	7	...........
	361	362	4.03294E+000	7.88667E-007	0.00000E+000	3.18065E-006	0.00000E+000	6.51090E-004	-3.27687E+002	7	...........
	362	363	4.03294E+000	7.89333E-007	0.00000E+000	3.18333E-006	0.00000E+000	6.51257E-004	-3.27687E+002	7	...........
	363	364	4.03295E+000	7.90249E-007	0.00000E+000	3.18703E-006	0.00000E+000	6.47224E-004	-3.27687E+002	7	...........
	364	365	4.03294E+000	7.90299E-007	0.00000E+000	3.18723E-006	0.00000E+000	6.48340E-004	-3.27687E+002	7	...........
	365	366	4.03294E+000	7.89584E-007	0.00000E+000	3.18434E-006	0.00000E+000	6.50074E-004	-3.27687E+002	7	...........
	366	367	4.03295E+000	7.89166E-007	0.00000E+000	3.18266E-006	0.00000E+000	6.50740E-004	-3.27687E+002	7	...........
	367	368	4.03294E+000	7.89029E-007	0.00000E+000	3.18211E-006	0.00000E+000	6.52140E-004	-3.27687E+002	7	...........
	368	369	4.03294E+000	7.88766E-007	0.00000E+000	3.18105E-006	0.00000E+000	6.51190E-004	-3.27687E+002	7	...........
	369	370	4.03296E+000	7.88623E-007	0.00000E+000	3.18048E-006	0.00000E+000	6.52824E-004	-3.27687E+002	7	...........
	370	371	4.03296E+000	7.88977E-007	0.00000E+000	3.18191E-006	0.00000E+000	6.48740E-004	-3.27687E+002	7	...........
	371	372	4.03296E+000	7.88890E-007	0.00000E+000	3.18156E-006	0.00000E+000	6.49657E-004	-3.27687E+002	7	...........
	372	373	4.03296E+000	7.89129E-007	0.00000E+000	3.18253E-006	0.00000E+000	6.52524E-004	-3.27687E+002	7	...........
	373	374	4.03296E+000	7.89392E-007	0.00000E+000	3.18359E-006	0.00000E+000	6.50024E-004	-3.27687E+002	7	...........
	374	375	4.03297E+000	7.88793E-007	0.00000E+000	3.18118E-006	0.00000E+000	6.52690E-004	-3.27687E+002	7	...........
	375	376	4.03296E+000	7.88797E-007	0.00000E+000	3.18119E-006	0.00000E+000	6.50157E-004	-3.27687E+002	7	...........
	376	377	4.03297E+000	7.89130E-007	0.00000E+000	3.18254E-006	0.00000E+000	6.49074E-004	-3.27687E+002	7	...........
	377	378	4.03297E+000	7.89517E-007	0.00000E+000	3.18410E-006	0.00000E+000	6.48724E-004	-3.27687E+002	7	...........
	378	379	4.03297E+000	7.89482E-007	0.00000E+000	3.18396E-006	0.00000E+000	6.49574E-004	-3.27687E+002	7	...........
	379	380	4.03298E+000	7.89263E-007	0.00000E+000	3.18308E-006	0.00000E+000	6.50457E-004	-3.27687E+002	7	...........
	380	381	4.03298E+000	7.89026E-007	0.00000E+000	3.18213E-006	0.00000E+000	6.52024E-004	-3.27687E+002	7	...........
	381	382	4.03299E+000	7.89275E-007	0.00000E+000	3.18314E-006	0.00000E+000	6.53357E-004	-3.27687E+002	7	...........
	382	383	4.03299E+000	7.89130E-007	0.00000E+000	3.18255E-006	0.00000E+000	6.54357E-004	-3.27687E+002	7	...........
	383	384	4.03298E+000	7.89227E-007	0.00000E+000	3.18294E-006	0.00000E+000	6.54224E-004	-3.27687E+002	7	...........
	384	385	4.03299E+000	7.88957E-007	0.00000E+000	3.18185E-006	0.00000E+000	6.52674E-004	-3.27687E+002	7	...........
	385	386	4.03299E+000	7.89390E-007	0.00000E+000	3.18361E-006	0.00000E+000	6.56457E-004	-3.27687E+002	7	...........
	386	387	4.03299E+000	7.89805E-007	0.00000E+000	3.18527E-006	0.00000E+000	6.52257E-004	-3.27687E+002	7	...........
	387	388	4.03299E+000	7.90594E-007	0.00000E+000	3.18846E-006	0.00000E+000	6.52724E-004	-3.27687E+002	7	...........
	388	389	4.03299E+000	7.89681E-007	0.00000E+000	3.18477E-006	0.00000E+000	6.54524E-004	-3.27687E+002	7	...........
	389	390	4.03299E+000	7.89805E-007	0.00000E+000	3.18528E-006	0.00000E+000	6.55107E-004	-3.27687E+002	7	...........
	390	391	4.03300E+000	7.90192E-007	0.00000E+000	3.18684E-006	0.00000E+000	6.54307E-004	-3.27687E+002	7	...........
	391	392	4.03300E+000	7.90522E-007	0.00000E+000	3.18817E-006	0.00000E+000	6.53690E-004	-3.27687E+002	7	...........
	392	393	4.03300E+000	7.90450E-007	0.00000E+000	3.18789E-006	0.00000E+000	6.53174E-004	-3.27687E+002	7	...........
	393	394	4.03301E+000	7.91004E-007	0.00000E+000	3.19013E-006	0.00000E+000	6.54907E-004	-3.27687E+002	7	...........
	394	395	4.03301E+000	7.90677E-007	0.00000E+000	3.18881E-006	0.00000E+000	6.54474E-004	-3.27687E+002	7	...........
	395	396	4.03302E+000	7.90258E-007	0.00000E+000	3.18712E-006	0.00000E+000	6.53357E-004	-3.27687E+002	7	...........
	396	397	4.03301E+000	7.90380E-007	0.00000E+000	3.18761E-006	0.00000E+000	6.55574E-004	-3.27687E+002	7	...........
	397	398	4.03301E+000	7.90289E-007	0.00000E+000	3.18725E-006	0.00000E+000	6.55324E-004	-3.27687E+002	7	...........
	398	399	4.03303E+000	7.90447E-007	0.00000E+000	3.18789E-006	0.00000E+000	6.57540E-004	-3.27687E+002	7	...........
	399	400	4.03302E+000	7.90400E-007	0.00000E+000	3.18770E-006	0.00000E+000	6.56624E-004	-3.27687E+002	7	...........
	400	401	4.03302E+000	7.91089E-007	0.00000E+000	3.19048E-006	0.00000E+000	6.56557E-004	-3.27687E+002	7	...........
	401	402	4.03301E+000	7.91409E-007	0.00000E+000	3.19176E-006	0.00000E+000	6.57890E-004	-3.27687E+002	7	...........
	402	403	4.03302E+000	7.91934E-007	0.00000E+000	3.19388E-006	0.00000E+000	6.56607E-004	-3.27687E+002	7	...........
	403	404	4.03302E+000	7.91591E-007	0.00000E+000	3.19250E-006	0.00000E+000	6.57774E-004	-3.27687E+002	7	...........
	404	405	4.03303E+000	7.91590E-007	0.00000E+000	3.19250E-006	0.00000E+000	6.58590E-004	-3.27687E+002	7	...........
	405	406	4.03302E+000	7.92222E-007	0.00000E+000	3.19505E-006	0.00000E+000	6.57574E-004	-3.27687E+002	7	...........
	406	407	4.03303E+000	7.92106E-007	0.00000E+000	3.19459E-006	0.00000E+000	6.55074E-004	-3.27687E+002	7	...........
	407	408	4.03303E+000	7.92150E-007	0.00000E+000	3.19477E-006	0.00000E+000	6.57990E-004	-3.27687E+002	7	...........
	408	409	4.03304E+000	7.92449E-007	0.00000E+000	3.19598E-006	0.00000E+000	6.58040E-004	-3.27687E+002	7	...........
	409	410	4.03303E+000	7.92804E-007	0.00000E+000	3.19740E-006	0.00000E+000	6.55224E-004	-3.27687E+002	7	...........
	410	411	4.03304E+000	7.92674E-007	0.00000E+000	3.19688E-006	0.00000E+000	6.56890E-004	-3.27687E+002	7	...........
	411	412	4.03303E+000	7.92346E-007	0.00000E+000	3.19556E-006	0.00000E+000	6.54857E-004	-3.27687E+002	7	...........
	412	413	4.03303E+000	7.92171E-007	0.00000E+000	3.19485E-006	0.00000E+000	6.55640E-004	-3.27687E+002	7	...........
	413	414	4.03304E+000	7.91575E-007	0.00000E+000	3.19245E-006	0.00000E+000	6.56957E-004	-3.27687E+002	7	...........
	414	415	4.03305E+000	7.91940E-007	0.00000E+000	3.19393E-006	0.00000E+000	6.56157E-004	-3.27687E+002	7	...........
	415	416	4.03304E+000	7.92504E-007	0.00000E+000	3.19620E-006	0.00000E+000	6.58124E-004	-3.27687E+002	7	...........
	416	417	4.03305E+000	7.92828E-007	0.00000E+000	3.19751E-006	0.00000E+000	6.57407E-004	-3.27687E+002	7	...........
	417	418	4.03305E+000	7.92629E-007	0.00000E+000	3.19671E-006	0.00000E+000	6.57957E-004	-3.27687E+002	7	...........
	418	419	4.03304E+000	7.92249E-007	0.00000E+000	3.19518E-006	0.00000E+000	6.59140E-004	-3.27687E+002	7	...........
	419	420	4.03306E+000	7.92590E-007	0.00000E+000	3.19656E-006	0.00000E+000	6.60907E-004	-3.27687E+002	7	...........
	420	421	4.03305E+000	7.92347E-007	0.00000E+000	3.19557E-006	0.00000E+000	6.58074E-004	-3.27687E+002	7	...........
	421	422	4.03305E+000	7.92773E-007	0.00000E+000	3.19729E-006	0.00000E+000	6.59674E-004	-3.27687E+002	7	...........
	422	423	4.03305E+000	7.92927E-007	0.00000E+000	3.19791E-006	0.00000E+000	6.57057E-004	-3.27687E+002	7	...........
	423	424	4.03306E+000	7.92722E-007	0.00000E+000	3.19709E-006	0.00000E+000	6.60257E-004	-3.27687E+002	7	...........
	424	425	4.03306E+000	7.92680E-007	0.00000E+000	3.19693E-006	0.00000E+000	6.60540E-004	-3.27687E+002	7	...........
	425	426	4.03305E+000	7.92183E-007	0.00000E+000	3.19491E-006	0.00000E+000	6.60090E-004	-3.27687E+002	7	...........
	426	427	4.03306E+000	7.91889E-007	0.00000E+000	3.19374E-006	0.00000E+000	6.56424E-004	-3.27687E+002	7	...........
	427	428	4.03306E+000	7.91983E-007	0.00000E+000	3.19411E-006	0.00000E+000	6.61224E-004	-3.27687E+002	7	...........
	428	429	4.03307E+000	7.91885E-007	0.00000E+000	3.19373E-006	0.00000E+000	6.57357E-004	-3.27687E+002	7	...........
	429	430	4.03307E+000	7.92148E-007	0.00000E+000	3.19479E-006	0.00000E+000	6.59724E-004	-3.27687E+002	7	...........
	430	431	4.03307E+000	7.92540E-007	0.00000E+000	3.19637E-006	0.00000E+000	6.59224E-004	-3.27687E+002	7	...........
	431	432	4.03308E+000	7.93443E-007	0.00000E+000	3.20002E-006	0.00000E+000	6.60557E-004	-3.27687E+002	7	...........
	432	433	4.03307E+000	7.91911E-007	0.00000E+000	3.19383E-006	0.00000E+000	6.59974E-004	-3.27687E+002	7	...........
	433	434	4.03307E+000	7.91696E-007	0.00000E+000	3.19296E-006	0.00000E+000	6.61224E-004	-3.27687E+002	7	...........
	434	435	4.03307E+000	7.91581E-007	0.00000E+000	3.19250E-006	0.00000E+000	6.62274E-004	-3.27687E+002	7	...........
	435	436	4.03307E+000	7.91525E-007	0.00000E+000	3.19228E-006	0.00000E+000	6.61490E-004	-3.27687E+002	7	...........
	436	437	4.03307E+000	7.91920E-007	0.00000E+000	3.19387E-006	0.00000E+000	6.61990E-004	-3.27687E+002	7	...........
	437	438	4.03308E+000	7.92026E-007	0.00000E+000	3.19430E-006	0.00000E+000	6.59940E-004	-3.27687E+002	7	...........
	438	439	4.03308E+000	7.92131E-007	0.00000E+000	3.19473E-006	0.00000E+000	6.62507E-004	-3.27687E+002	7	...........
	439	440	4.03308E+000	7.92421E-007	0.00000E+000	3.19590E-006	0.00000E+000	6.60224E-004	-3.27687E+002	7	...........
	440	441	4.03309E+000	7.91601E-007	0.00000E+000	3.19260E-006	0.00000E+000	6.59290E-004	-3.27687E+002	7	...........
	441	442	4.03309E+000	7.91574E-007	0.00000E+000	3.19249E-006	0.00000E+000	6.59957E-004	-3.27687E+002	7	...........
	442	443	4.03309E+000	7.91725E-007	0.00000E+000	3.19310E-006	0.00000E+000	6.61107E-004	-3.27687E+002	7	...........
	443	444	4.03310E+000	7.91690E-007	0.00000E+000	3.19296E-006	0.00000E+000	6.59840E-004	-3.27687E+002	7	...........
	444	445	4.03310E+000	7.92149E-007	0.00000E+000	3.19481E-006	0.00000E+000	6.62024E-004	-3.27687E+002	7	...........
	445	446	4.03310E+000	7.92625E-007	0.00000E+000	3.19674E-006	0.00000E+000	6.62324E-004	-3.27687E+002	7	...........
	446	447	4.03310E+000	7.92962E-007	0.00000E+000	3.19809E-006	0.00000E+000	6.64924E-004	-3.27687E+002	7	...........
	447	448	4.03310E+000	7.92274E-007	0.00000E+000	3.19532E-006	0.00000E+000	6.61790E-004	-3.27687E+002	7	...........
	448	449	4.03309E+000	7.92081E-007	0.00000E+000	3.19454E-006	0.00000E+000	6.61490E-004	-3.27687E+002	7	...........
	449	450	4.03310E+000	7.92308E-007	0.00000E+000	3.19546E-006	0.00000E+000	6.63890E-004	-3.27687E+002	7	...........
	450	451	4.03311E+000	7.92464E-007	0.00000E+000	3.19609E-006	0.00000E+000	6.63207E-004	-3.27687E+002	7	...........
	451	452	4.03310E+000	7.92434E-007	0.00000E+000	3.19597E-006	0.00000E+000	6.65057E-004	-3.27687E+002	7	...........
	452	453	4.03311E+000	7.92192E-007	0.00000E+000	3.19499E-006	0.00000E+000	6.63757E-004	-3.27687E+002	7	...........
	453	454	4.03311E+000	7.92124E-007	0.00000E+000	3.19473E-006	0.00000E+000	6.65007E-004	-3.27687E+002	7	...........
	454	455	4.03311E+000	7.91778E-007	0.00000E+000	3.19333E-006	0.00000E+000	6.61490E-004	-3.27687E+002	7	...........
	455	456	4.03311E+000	7.92326E-007	0.00000E+000	3.19554E-006	0.00000E+000	6.61807E-004	-3.27687E+002	7	...........
	456	457	4.03311E+000	7.92138E-007	0.00000E+000	3.19478E-006	0.00000E+000	6.62524E-004	-3.27687E+002	7	...........
	457	458	4.03312E+000	7.92589E-007	0.00000E+000	3.19660E-006	0.00000E+000	6.64874E-004	-3.27687E+002	7	...........
	458	459	4.03312E+000	7.92677E-007	0.00000E+000	3.19696E-006	0.00000E+000	6.64174E-004	-3.27687E+002	7	...........
	459	460	4.03311E+000	7.93066E-007	0.00000E+000	3.19852E-006	0.00000E+000	6.62774E-004	-3.27687E+002	7	...........
	460	461	4.03313E+000	7.93675E-007	0.00000E+000	3.20099E-006	0.00000E+000	6.62274E-004	-3.27687E+002	7	...........
	461	462	4.03313E+000	7.93481E-007	0.00000E+000	3.20021E-006	0.00000E+000	6.62374E-004	-3.27687E+002	7	...........
	462	463	4.03312E+000	7.92719E-007	0.00000E+000	3.19713E-006	0.00000E+000	6.63290E-004	-3.27687E+002	7	...........
	463	464	4.03313E+000	7.93545E-007	0.00000E+000	3.20047E-006	0.00000E+000	6.64307E-004	-3.27687E+002	7	...........
	464	465	4.03313E+000	7.93417E-007	0.00000E+000	3.19995E-006	0.00000E+000	6.60857E-004	-3.27687E+002	7	...........
	465	466	4.03313E+000	7.93358E-007	0.00000E+000	3.19972E-006	0.00000E+000	6.65974E-004	-3.27687E+002	7	...........
	466	467	4.03313E+000	7.93711E-007	0.00000E+000	3.20114E-006	0.00000E+000	6.62574E-004	-3.27687E+002	7	...........
	467	468	4.03314E+000	7.94092E-007	0.00000E+000	3.20268E-006	0.00000E+000	6.63140E-004	-3.27687E+002	7	...........
	468	469	4.03314E+000	7.94329E-007	0.00000E+000	3.20364E-006	0.00000E+000	6.64140E-004	-3.27687E+002	7	...........
	469	470	4.03314E+000	7.93753E-007	0.00000E+000	3.20132E-006	0.00000E+000	6.66540E-004	-3.27687E+002	7	...........
	470	471	4.03313E+000	7.93725E-007	0.00000E+000	3.20120E-006	0.00000E+000	6.61907E-004	-3.27687E+002	7	...........
	471	472	4.03314E+000	7.93168E-007	0.00000E+000	3.19896E-006	0.00000E+000	6.65774E-004	-3.27687E+002	7	...........
	472	473	4.03315E+000	7.92787E-007	0.00000E+000	3.19743E-006	0.00000E+000	6.66707E-004	-3.27687E+002	7	...........
	473	474	4.03314E+000	7.93595E-007	0.00000E+000	3.20068E-006	0.00000E+000	6.66257E-004	-3.27687E+002	7	...........
	474	475	4.03315E+000	7.93883E-007	0.00000E+000	3.20185E-006	0.00000E+000	6.67874E-004	-3.27687E+002	7	...........
	475	476	4.03315E+000	7.94617E-007	0.00000E+000	3.20481E-006	0.00000E+000	6.64107E-004	-3.27687E+002	7	...........
	476	477	4.03315E+000	7.94304E-007	0.00000E+000	3.20355E-006	0.00000E+000	6.66457E-004	-3.27687E+002	7	...........
	477	478	4.03316E+000	7.93924E-007	0.00000E+000	3.20203E-006	0.00000E+000	6.66540E-004	-3.27687E+002	7	...........
	478	479	4.03316E+000	7.94296E-007	0.00000E+000	3.20352E-006	0.00000E+000	6.66407E-004	-3.27687E+002	7	...........
	479	480	4.03316E+000	7.94273E-007	0.00000E+000	3.20343E-006	0.00000E+000	6.66507E-004	-3.27687E+002	7	...........
	480	481	4.03316E+000	7.94987E-007	0.00000E+000	3.20631E-006	0.00000E+000	6.67440E-004	-3.27687E+002	7	...........
	481	482	4.03317E+000	7.94866E-007	0.00000E+000	3.20583E-006	0.00000E+000	6.67324E-004	-3.27687E+002	7	...........
	482	483	4.03317E+000	7.94363E-007	0.00000E+000	3.20380E-006	0.00000E+000	6.65057E-004	-3.27687E+002	7	...........
	483	484	4.03317E+000	7.94654E-007	0.00000E+000	3.20497E-006	0.00000E+000	6.65207E-004	-3.27687E+002	7	...........
	484	485	4.03317E+000	7.94085E-007	0.00000E+000	3.20268E-006	0.00000E+000	6.67574E-004	-3.27687E+002	7	...........
	485	486	4.03317E+000	7.93709E-007	0.00000E+000	3.20116E-006	0.00000E+000	6.66574E-004	-3.27687E+002	7	...........
	486	487	4.03317E+000	7.93839E-007	0.00000E+000	3.20169E-006	0.00000E+000	6.68574E-004	-3.27687E+002	7	...........
	487	488	4.03317E+000	7.94035E-007	0.00000E+000	3.20248E-006	0.00000E+000	6.68490E-004	-3.27687E+002	7	...........
	488	489	4.03318E+000	7.94889E-007	0.00000E+000	3.20593E-006	0.00000E+000	6.68774E-004	-3.27687E+002	7	...........
	489	490	4.03317E+000	7.95652E-007	0.00000E+000	3.20900E-006	0.00000E+000	6.66157E-004	-3.27687E+002	7	...........
	490	491	4.03317E+000	7.95654E-007	0.00000E+000	3.20901E-006	0.00000E+000	6.66174E-004	-3.27687E+002	7	...........
	491	492	4.03317E+000	7.94921E-007	0.00000E+000	3.20605E-006	0.00000E+000	6.68190E-004	-3.27687E+002	7	...........
	492	493	4.03317E+000	7.94476E-007	0.00000E+000	3.20426E-006	0.00000E+000	6.67657E-004	-3.27687E+002	7	...........
	493	494	4.03318E+000	7.95114E-007	0.00000E+000	3.20684E-006	0.00000E+000	6.69990E-004	-3.27687E+002	7	...........
	494	495	4.03317E+000	7.95693E-007	0.00000E+000	3.20917E-006	0.00000E+000	6.70057E-004	-3.27687E+002	7	...........
	495	496	4.03318E+000	7.95923E-007	0.00000E+000	3.21010E-006	0.00000E+000	6.68824E-004	-3.27687E+002	7	...........
	496	497	4.03319E+000	7.95780E-007	0.00000E+000	3.20953E-006	0.00000E+000	6.71674E-004	-3.27687E+002	7	...........
	497	498	4.03319E+000	7.95272E-007	0.00000E+000	3.20748E-006	0.00000E+000	6.72440E-004	-3.27687E+002	7	...........
	498	499	4.03319E+000	7.95514E-007	0.00000E+000	3.20846E-006	0.00000E+000	6.72890E-004	-3.27687E+002	7	...........
	499	500	4.03321E+000	7.94745E-007	0.00000E+000	3.20537E-006	0.00000E+000	6.72690E-004	-3.27687E+002	7	...........
	500	501	4.03320E+000	7.94812E-007	0.00000E+000	3.20564E-006	0.00000E+000	6.72790E-004	-3.27687E+002	7	...........
	501	502	4.03320E+000	7.94895E-007	0.00000E+000	3.20597E-006	0.00000E+000	6.71174E-004	-3.27687E+002	7	...........
	502	503	4.03319E+000	7.94678E-007	0.00000E+000	3.20509E-006	0.00000E+000	6.71374E-004	-3.27687E+002	7	...........
	503	504	4.03320E+000	7.95411E-007	0.00000E+000	3.20805E-006	0.00000E+000	6.70290E-004	-3.27687E+002	7	...........
	504	505	4.03321E+000	7.95834E-007	0.00000E+000	3.20976E-006	0.00000E+000	6.70674E-004	-3.27687E+002	7	...........
	505	506	4.03320E+000	7.95618E-007	0.00000E+000	3.20889E-006	0.00000E+000	6.71757E-004	-3.27687E+002	7	...........
	506	507	4.03320E+000	7.95336E-007	0.00000E+000	3.20775E-006	0.00000E+000	6.73190E-004	-3.27687E+002	7	...........
	507	508	4.03321E+000	7.95588E-007	0.00000E+000	3.20877E-006	0.00000E+000	6.68824E-004	-3.27687E+002	7	...........
	508	509	4.03321E+000	7.95636E-007	0.00000E+000	3.20897E-006	0.00000E+000	6.72474E-004	-3.27687E+002	7	...........
	509	510	4.03320E+000	7.95574E-007	0.00000E+000	3.20871E-006	0.00000E+000	6.71207E-004	-3.27687E+002	7	...........
	510	511	4.03320E+000	7.95949E-007	0.00000E+000	3.21022E-006	0.00000E+000	6.72340E-004	-3.27687E+002	7	...........
	511	512	4.03321E+000	7.96048E-007	0.00000E+000	3.21063E-006	0.00000E+000	6.71640E-004	-3.27687E+002	7	...........
	512	513	4.03321E+000	7.96059E-007	0.00000E+000	3.21067E-006	0.00000E+000	6.71307E-004	-3.27687E+002	7	...........
	513	514	4.03321E+000	7.95721E-007	0.00000E+000	3.20931E-006	0.00000E+000	6.72924E-004	-3.27687E+002	7	...........
	514	515	4.03321E+000	7.95181E-007	0.00000E+000	3.20713E-006	0.00000E+000	6.70490E-004	-3.27687E+002	7	...........
	515	516	4.03322E+000	7.94762E-007	0.00000E+000	3.20545E-006	0.00000E+000	6.75474E-004	-3.27687E+002	7	...........
	516	517	4.03322E+000	7.94655E-007	0.00000E+000	3.20502E-006	0.00000E+000	6.74557E-004	-3.27687E+002	7	...........
	517	518	4.03322E+000	7.94979E-007	0.00000E+000	3.20632E-006	0.00000E+000	6.71957E-004	-3.27687E+002	7	...........
	518	519	4.03321E+000	7.95346E-007	0.00000E+000	3.20780E-006	0.00000E+000	6.72857E-004	-3.27687E+002	7	...........
	519	520	4.03322E+000	7.96350E-007	0.00000E+000	3.21185E-006	0.00000E+000	6.72457E-004	-3.27687E+002	7	...........
	520	521	4.03322E+000	7.95158E-007	0.00000E+000	3.20705E-006	0.00000E+000	6.73424E-004	-3.27687E+002	7	...........
	521	522	4.03322E+000	7.95028E-007	0.00000E+000	3.20652E-006	0.00000E+000	6.70557E-004	-3.27687E+002	7	...........
	522	523	4.03323E+000	7.95380E-007	0.00000E+000	3.20795E-006	0.00000E+000	6.73524E-004	-3.27687E+002	7	...........
	523	524	4.03325E+000	7.95521E-007	0.00000E+000	3.20853E-006	0.00000E+000	6.75857E-004	-3.27687E+002	7	...........
	524	525	4.03324E+000	7.94830E-007	0.00000E+000	3.20574E-006	0.00000E+000	6.74774E-004	-3.27687E+002	7	...........
	525	526	4.03324E+000	7.95251E-007	0.00000E+000	3.20744E-006	0.00000E+000	6.74107E-004	-3.27687E+002	7	...........
	526	527	4.03324E+000	7.95179E-007	0.00000E+000	3.20715E-006	0.00000E+000	6.74590E-004	-3.27687E+002	7	...........
	527	528	4.03325E+000	7.95059E-007	0.00000E+000	3.20667E-006	0.00000E+000	6.73890E-004	-3.27687E+002	7	...........
	528	529	4.03325E+000	7.95124E-007	0.00000E+000	3.20693E-006	0.00000E+000	6.74257E-004	-3.27687E+002	7	...........
	529	530	4.03325E+000	7.94742E-007	0.00000E+000	3.20540E-006	0.00000E+000	6.73540E-004	-3.27687E+002	7	...........
	530	531	4.03325E+000	7.94104E-007	0.00000E+000	3.20282E-006	0.00000E+000	6.74007E-004	-3.27687E+002	7	...........
	531	532	4.03325E+000	7.94544E-007	0.00000E+000	3.20459E-006	0.00000E+000	6.74224E-004	-3.27687E+002	7	...........
	532	533	4.03325E+000	7.95042E-007	0.00000E+000	3.20660E-006	0.00000E+000	6.75357E-004	-3.27687E+002	7	...........
	533	534	4.03325E+000	7.94718E-007	0.00000E+000	3.20530E-006	0.00000E+000	6.77440E-004	-3.27687E+002	7	...........
	534	535	4.03325E+000	7.95524E-007	0.00000E+000	3.20854E-006	0.00000E+000	6.74324E-004	-3.27687E+002	7	...........
	535	536	4.03324E+000	7.94709E-007	0.00000E+000	3.20526E-006	0.00000E+000	6.77074E-004	-3.27687E+002	7	...........
	536	537	4.03325E+000	7.95140E-007	0.00000E+000	3.20700E-006	0.00000E+000	6.76890E-004	-3.27687E+002	7	...........
	537	538	4.03326E+000	7.94492E-007	0.00000E+000	3.20439E-006	0.00000E+000	6.76974E-004	-3.27687E+002	7	...........
	538	539	4.03326E+000	7.94993E-007	0.00000E+000	3.20641E-006	0.00000E+000	6.78557E-004	-3.27687E+002	7	...........
	539	540	4.03326E+000	7.94871E-007	0.00000E+000	3.20592E-006	0.00000E+000	6.77690E-004	-3.27687E+002	7	...........
	540	541	4.03326E+000	7.94734E-007	0.00000E+000	3.20537E-006	0.00000E+000	6.79424E-004	-3.27687E+002	7	...........
	541	542	4.03327E+000	7.94620E-007	0.00000E+000	3.20492E-006	0.00000E+000	6.79490E-004	-3.27687E+002	7	...........
	542	543	4.03327E+000	7.94579E-007	0.00000E+000	3.20475E-006	0.00000E+000	6.75374E-004	-3.27687E+002	7	...........
	543	544	4.03328E+000	7.94625E-007	0.00000E+000	3.20495E-006	0.00000E+000	6.78907E-004	-3.27687E+002	7	...........
	544	545	4.03327E+000	7.94626E-007	0.00000E+000	3.20494E-006	0.00000E+000	6.77657E-004	-3.27687E+002	7	...........
	545	546	4.03327E+000	7.93992E-007	0.00000E+000	3.20238E-006	0.00000E+000	6.78940E-004	-3.27687E+002	7	...........
	546	547	4.03327E+000	7.93857E-007	0.00000E+000	3.20184E-006	0.00000E+000	6.78507E-004	-3.27687E+002	7	...........
	547	548	4.03327E+000	7.94305E-007	0.00000E+000	3.20365E-006	0.00000E+000	6.79524E-004	-3.27687E+002	7	...........
	548	549	4.03327E+000	7.94444E-007	0.00000E+000	3.20421E-006	0.00000E+000	6.78257E-004	-3.27687E+002	7	...........
	549	550	4.03326E+000	7.94901E-007	0.00000E+000	3.20604E-006	0.00000E+000	6.77307E-004	-3.27687E+002	7	...........
	550	551	4.03326E+000	7.93709E-007	0.00000E+000	3.20124E-006	0.00000E+000	6.78240E-004	-3.27687E+002	7	...........
	551	552	4.03327E+000	7.93667E-007	0.00000E+000	3.20108E-006	0.00000E+000	6.78840E-004	-3.27687E+002	7	...........
	552	553	4.03327E+000	7.93556E-007	0.00000E+000	3.20063E-006	0.00000E+000	6.78707E-004	-3.27687E+002	7	...........
	553	554	4.03328E+000	7.94235E-007	0.00000E+000	3.20337E-006	0.00000E+000	6.81524E-004	-3.27687E+002	7	...........
	554	555	4.03327E+000	7.94196E-007	0.00000E+000	3.20321E-006	0.00000E+000	6.79324E-004	-3.27687E+002	7	...........
	555	556	4.03327E+000	7.94025E-007	0.00000E+000	3.20252E-006	0.00000E+000	6.78290E-004	-3.27687E+002	7	...........
	556	557	4.03327E+000	7.93635E-007	0.00000E+000	3.20094E-006	0.00000E+000	6.80257E-004	-3.27687E+002	7	...........
	557	558	4.03328E+000	7.93296E-007	0.00000E+000	3.19958E-006	0.00000E+000	6.82640E-004	-3.27687E+002	7	...........
	558	559	4.03329E+000	7.93438E-007	0.00000E+000	3.20016E-006	0.00000E+000	6.80474E-004	-3.27687E+002	7	...........
	559	560	4.03329E+000	7.93100E-007	0.00000E+000	3.19880E-006	0.00000E+000	6.79724E-004	-3.27687E+002	7	...........
	560	561	4.03329E+000	7.92966E-007	0.00000E+000	3.19826E-006	0.00000E+000	6.81324E-004	-3.27687E+002	7	...........
	561	562	4.03330E+000	7.93233E-007	0.00000E+000	3.19934E-006	0.00000E+000	6.81890E-004	-3.27687E+002	7	...........
	562	563	4.03329E+000	7.93671E-007	0.00000E+000	3.20111E-006	0.00000E+000	6.80274E-004	-3.27687E+002	7	...........
	563	564	4.03330E+000	7.94071E-007	0.00000E+000	3.20272E-006	0.00000E+000	6.81040E-004	-3.27687E+002	7	...........
	564	565	4.03330E+000	7.94011E-007	0.00000E+000	3.20248E-006	0.00000E+000	6.84690E-004	-3.27687E+002	7	...........
	565	566	4.03330E+000	7.93407E-007	0.00000E+000	3.20005E-006	0.00000E+000	6.78424E-004	-3.27687E+002	7	...........
	566	567	4.03329E+000	7.94079E-007	0.00000E+000	3.20275E-006	0.00000E+000	6.78440E-004	-3.27687E+002	7	...........
	567	568	4.03330E+000	7.93571E-007	0.00000E+000	3.20071E-006	0.00000E+000	6.78607E-004	-3.27687E+002	7	...........
	568	569	4.03330E+000	7.94517E-007	0.00000E+000	3.20452E-006	0.00000E+000	6.78024E-004	-3.27687E+002	7	...........
	569	570	4.03330E+000	7.94336E-007	0.00000E+000	3.20379E-006	0.00000E+000	6.79107E-004	-3.27687E+002	7	...........
	570	571	4.03330E+000	7.94191E-007	0.00000E+000	3.20321E-006	0.00000E+000	6.79074E-004	-3.27687E+002	7	...........
	571	572	4.03330E+000	7.94499E-007	0.00000E+000	3.20445E-006	0.00000E+000	6.81090E-004	-3.27687E+002	7	...........
	572	573	4.03330E+000	7.94733E-007	0.00000E+000	3.20539E-006	0.00000E+000	6.81540E-004	-3.27687E+002	7	...........
	573	574	4.03330E+000	7.94320E-007	0.00000E+000	3.20373E-006	0.00000E+000	6.81440E-004	-3.27687E+002	7	...........
	574	575	4.03331E+000	7.94031E-007	0.00000E+000	3.20257E-006	0.00000E+000	6.81057E-004	-3.27687E+002	7	...........
	575	576	4.03330E+000	7.93992E-007	0.00000E+000	3.20241E-006	0.00000E+000	6.83907E-004	-3.27687E+002	7	...........
	576	577	4.03330E+000	7.93882E-007	0.00000E+000	3.20197E-006	0.00000E+000	6.80974E-004	-3.27687E+002	7	...........
	577	578	4.03331E+000	7.94419E-007	0.00000E+000	3.20414E-006	0.00000E+000	6.81424E-004	-3.27687E+002	7	...........
	578	579	4.03331E+000	7.95067E-007	0.00000E+000	3.20675E-006	0.00000E+000	6.84007E-004	-3.27687E+002	7	...........
	579	580	4.03330E+000	7.94604E-007	0.00000E+000	3.20488E-006	0.00000E+000	6.83840E-004	-3.27687E+002	7	...........
	580	581	4.03332E+000	7.94676E-007	0.00000E+000	3.20518E-006	0.00000E+000	6.84074E-004	-3.27687E+002	7	...........
	581	582	4.03331E+000	7.94616E-007	0.00000E+000	3.20493E-006	0.00000E+000	6.82957E-004	-3.27687E+002	7	...........
	582	583	4.03331E+000	7.94871E-007	0.00000E+000	3.20597E-006	0.00000E+000	6.86374E-004	-3.27687E+002	7	...........
	583	584	4.03332E+000	7.95205E-007	0.00000E+000	3.20732E-006	0.00000E+000	6.84774E-004	-3.27687E+002	7	...........
	584	585	4.03334E+000	7.95771E-007	0.00000E+000	3.20961E-006	0.00000E+000	6.84724E-004	-3.27687E+002	7	...........
	585	586	4.03334E+000	7.95386E-007	0.00000E+000	3.20806E-006	0.00000E+000	6.82757E-004	-3.27687E+002	7	...........
	586	587	4.03334E+000	7.95691E-007	0.00000E+000	3.20929E-006	0.00000E+000	6.84057E-004	-3.27687E+002	7	...........
	587	588	4.03334E+000	7.95190E-007	0.00000E+000	3.20727E-006	0.00000E+000	6.83190E-004	-3.27687E+002	7	...........
	588	589	4.03333E+000	7.95698E-007	0.00000E+000	3.20931E-006	0.00000E+000	6.85690E-004	-3.27687E+002	7	...........
	589	590	4.03333E+000	7.95298E-007	0.00000E+000	3.20770E-006	0.00000E+000	6.85857E-004	-3.27687E+002	7	...........
	590	591	4.03334E+000	7.95403E-007	0.00000E+000	3.20813E-006	0.00000E+000	6.84357E-004	-3.27687E+002	7	...........
	591	592	4.03334E+000	7.95435E-007	0.00000E+000	3.20826E-006	0.00000E+000	6.84140E-004	-3.27687E+002	7	...........
	592	593	4.03334E+000	7.95345E-007	0.00000E+000	3.20790E-006	0.00000E+000	6.82857E-004	-3.27687E+002	7	...........
	593	594	4.03333E+000	7.96118E-007	0.00000E+000	3.21101E-006	0.00000E+000	6.86340E-004	-3.27687E+002	7	...........
	594	595	4.03333E+000	7.94957E-007	0.00000E+000	3.20632E-006	0.00000E+000	6.84740E-004	-3.27687E+002	7	...........
	595	596	4.03335E+000	7.94940E-007	0.00000E+000	3.20627E-006	0.00000E+000	6.84857E-004	-3.27687E+002	7	...........
	596	597	4.03334E+000	7.95070E-007	0.00000E+000	3.20679E-006	0.00000E+000	6.84074E-004	-3.27687E+002	7	...........
	597	598	4.03335E+000	7.96115E-007	0.00000E+000	3.21101E-006	0.00000E+000	6.84124E-004	-3.27687E+002	7	...........
	598	599	4.03335E+000	7.95563E-007	0.00000E+000	3.20879E-006	0.00000E+000	6.85607E-004	-3.27687E+002	7	...........
	599	600	4.03334E+000	7.96311E-007	0.00000E+000	3.21179E-006	0.00000E+000	6.85090E-004	-3.27687E+002	7	...........
