EXPLAIN
TAG	PWR800_READVOLTAGE
TITLE	LABEL	PWR Read Voltage	Test Identifier
DATE	LABEL	30.3.2024	Date
TIME	LABEL	16:14:01	Time
NOTES	NOTES	1	Notes...
	
PSTAT	PSTAT	REF600-12055	Potentiostat
CAPACITY	QUANT	1.00000E+000	Capacity (A-hr)
CELLTYPE	SELECTOR	1	Cell Type
WORKINGCONNECTION	SELECTOR	0	Working Connection
MAXTIME	VARIABLEANDUNITS	6.00000E+002	s	6.00000E+002	second(s)	Max Time
SAMPLETIME	QUANT	1.00000E+000	Sample Period (s)
STOPAT1	MULTIPARAM	0	0.00000E+000	Stop At 1	None	N/A
STOPAT2	MULTIPARAM	0	0.00000E+000	Stop At 2	None	N/A
AESBHCSELECTOR	TOGGLE	F	Save Both Half Cells
EOC	QUANT	3.431731	Open Circuit (V)
SEQUENCER	TOGGLE	TRUE	Run as Sequence
PSTATMODEL	IQUANT	4	Pstat Model
PSTATSECTION	LABEL	REF600-12055	Pstat Section
PSTATSERIALNO	LABEL	12055	Pstat Serial Number
CTRLMODE	IQUANT	0	Control Mode
ELECTROMETER	IQUANT	0	RE=0 or CS=1
IESTAB	IQUANT	0	I/E Stability
CASPEED	IQUANT	4	Control Amp Speed
CONVENTION	IQUANT	1	Current Convention
ICHRANGE	IQUANT	2	Ich Range
ICHRANGEMODE	TOGGLE	T	Ich Auto Range
ICHOFFSETENABLE	TOGGLE	F	Ich Offset Enable
ICHOFFSET	QUANT	0	Ich Offset (V)
ICHFILTER	IQUANT	1	Ich Filter
VCHRANGE	IQUANT	3	Vch Range
VCHRANGEMODE	TOGGLE	T	Vch Auto Range
VCHOFFSETENABLE	TOGGLE	F	Vch Offset Enable
VCHOFFSET	QUANT	0	Vch Offset (V)
VCHFILTER	IQUANT	1	Vch Filter
ACHRANGE	IQUANT	2	Ach Range
ACHOFFSETENABLE	TOGGLE	F	Ach Offset Enable
ACHOFFSET	QUANT	0	Ach Offset (V)
ACHFILTER	IQUANT	1	Ach Filter
IERANGELOWERLIMIT	IQUANT	7	I/E Range Lower Limit
IERANGEMODE	TOGGLE	F	I/E AutoRange
IERANGE	IQUANT	11	I/E Range
POSFEEDENABLE	TOGGLE	F	Positive Feedback IR Comp
POSFEEDRESISTANCE	QUANT	0	Positive Feedback Resistance (ohm)
ACHSELECT	IQUANT	4	Ach Select
SENSECABLEID	IQUANT	14	Sense Cable ID
PWRCABLEID	IQUANT	14	Power Cable ID
DCCALDATE	LABEL	2/12/2024	DC Calibration Date
ACCALDATE	LABEL	2/12/2024	AC Calibration Date
THERMOSELECT	IQUANT	1	Thermo Select
FRAMEWORKVERSION	LABEL	7.10.3	Framework Version
INSTRUMENTVERSION	LABEL	4.91	Instrument Version
COMMVERSION	LABEL	2.24	Communications Version
CPUPLDVERSION	LABEL	0.00	CPU PLD Version
CTRLPLDVERSION	LABEL	0.00	CTRL PLD Version
PSTATPLDVERSION	LABEL	0.00	PSTAT PLD Version
CURVE	TABLE	600
	Pt	T	Vf	Im	Vu	Pwr	Sig	Ach	Temp	IERange	Over
	#	s	V	A	V	W	V	V	deg C	#	bits
	0	1	3.20854E+000	-1.04016E-006	0.00000E+000	-3.33739E-006	0.00000E+000	8.96307E-004	-3.27687E+002	7	...........
	1	2	3.20895E+000	-1.03629E-006	0.00000E+000	-3.32540E-006	0.00000E+000	8.97907E-004	-3.27687E+002	7	...........
	2	3	3.20924E+000	-1.03498E-006	0.00000E+000	-3.32151E-006	0.00000E+000	8.97890E-004	-3.27687E+002	7	...........
	3	4	3.20953E+000	-1.03348E-006	0.00000E+000	-3.31698E-006	0.00000E+000	8.96824E-004	-3.27687E+002	7	...........
	4	5	3.20978E+000	-1.03262E-006	0.00000E+000	-3.31450E-006	0.00000E+000	8.93274E-004	-3.27687E+002	7	...........
	5	6	3.21000E+000	-1.03160E-006	0.00000E+000	-3.31142E-006	0.00000E+000	8.88340E-004	-3.27687E+002	7	...........
	6	7	3.21021E+000	-1.03060E-006	0.00000E+000	-3.30845E-006	0.00000E+000	8.85824E-004	-3.27687E+002	7	...........
	7	8	3.21042E+000	-1.02947E-006	0.00000E+000	-3.30505E-006	0.00000E+000	8.87874E-004	-3.27687E+002	7	...........
	8	9	3.21061E+000	-1.02866E-006	0.00000E+000	-3.30264E-006	0.00000E+000	8.89557E-004	-3.27687E+002	7	...........
	9	10	3.21079E+000	-1.02642E-006	0.00000E+000	-3.29561E-006	0.00000E+000	8.90757E-004	-3.27687E+002	7	...........
	10	11	3.21097E+000	-1.02418E-006	0.00000E+000	-3.28863E-006	0.00000E+000	8.91857E-004	-3.27687E+002	7	...........
	11	12	3.21116E+000	-1.02344E-006	0.00000E+000	-3.28643E-006	0.00000E+000	8.92824E-004	-3.27687E+002	7	...........
	12	13	3.21134E+000	-1.02267E-006	0.00000E+000	-3.28413E-006	0.00000E+000	8.91307E-004	-3.27687E+002	7	...........
	13	14	3.21149E+000	-1.02156E-006	0.00000E+000	-3.28074E-006	0.00000E+000	8.91774E-004	-3.27687E+002	7	...........
	14	15	3.21165E+000	-1.02023E-006	0.00000E+000	-3.27662E-006	0.00000E+000	8.89790E-004	-3.27687E+002	7	...........
	15	16	3.21179E+000	-1.01858E-006	0.00000E+000	-3.27146E-006	0.00000E+000	8.91207E-004	-3.27687E+002	7	...........
	16	17	3.21193E+000	-1.01705E-006	0.00000E+000	-3.26668E-006	0.00000E+000	8.91724E-004	-3.27687E+002	7	...........
	17	18	3.21206E+000	-1.01622E-006	0.00000E+000	-3.26415E-006	0.00000E+000	8.95940E-004	-3.27687E+002	7	...........
	18	19	3.21217E+000	-1.01566E-006	0.00000E+000	-3.26248E-006	0.00000E+000	8.97090E-004	-3.27687E+002	7	...........
	19	20	3.21231E+000	-1.01453E-006	0.00000E+000	-3.25898E-006	0.00000E+000	8.98307E-004	-3.27687E+002	7	...........
	20	21	3.21245E+000	-1.01327E-006	0.00000E+000	-3.25507E-006	0.00000E+000	7.28007E-004	-3.27687E+002	7	...........
	21	22	3.21261E+000	-1.01184E-006	0.00000E+000	-3.25066E-006	0.00000E+000	6.48924E-004	-3.27687E+002	7	...........
	22	23	3.21278E+000	-1.01206E-006	0.00000E+000	-3.25153E-006	0.00000E+000	6.48057E-004	-3.27687E+002	7	...........
	23	24	3.21292E+000	-1.01051E-006	0.00000E+000	-3.24670E-006	0.00000E+000	6.46790E-004	-3.27687E+002	7	...........
	24	25	3.21306E+000	-1.00857E-006	0.00000E+000	-3.24059E-006	0.00000E+000	6.46040E-004	-3.27687E+002	7	...........
	25	26	3.21319E+000	-1.00712E-006	0.00000E+000	-3.23608E-006	0.00000E+000	6.42207E-004	-3.27687E+002	7	...........
	26	27	3.21331E+000	-1.00727E-006	0.00000E+000	-3.23668E-006	0.00000E+000	6.40540E-004	-3.27687E+002	7	...........
	27	28	3.21344E+000	-1.00595E-006	0.00000E+000	-3.23256E-006	0.00000E+000	6.39574E-004	-3.27687E+002	7	...........
	28	29	3.21355E+000	-1.00461E-006	0.00000E+000	-3.22836E-006	0.00000E+000	6.37274E-004	-3.27687E+002	7	...........
	29	30	3.21366E+000	-1.00428E-006	0.00000E+000	-3.22743E-006	0.00000E+000	6.36857E-004	-3.27687E+002	7	...........
	30	31	3.21377E+000	-1.00250E-006	0.00000E+000	-3.22180E-006	0.00000E+000	6.40157E-004	-3.27687E+002	7	...........
	31	32	3.21388E+000	-1.00152E-006	0.00000E+000	-3.21875E-006	0.00000E+000	6.42457E-004	-3.27687E+002	7	...........
	32	33	3.21398E+000	-1.00150E-006	0.00000E+000	-3.21879E-006	0.00000E+000	6.44990E-004	-3.27687E+002	7	...........
	33	34	3.21408E+000	-1.00037E-006	0.00000E+000	-3.21527E-006	0.00000E+000	6.43390E-004	-3.27687E+002	7	...........
	34	35	3.21420E+000	-1.00030E-006	0.00000E+000	-3.21515E-006	0.00000E+000	6.46424E-004	-3.27687E+002	7	...........
	35	36	3.21431E+000	-9.99689E-007	0.00000E+000	-3.21331E-006	0.00000E+000	6.42507E-004	-3.27687E+002	7	...........
	36	37	3.21442E+000	-9.99565E-007	0.00000E+000	-3.21302E-006	0.00000E+000	6.44040E-004	-3.27687E+002	7	...........
	37	38	3.21453E+000	-9.97963E-007	0.00000E+000	-3.20798E-006	0.00000E+000	6.43640E-004	-3.27687E+002	7	...........
	38	39	3.21463E+000	-9.96632E-007	0.00000E+000	-3.20380E-006	0.00000E+000	6.40274E-004	-3.27687E+002	7	...........
	39	40	3.21472E+000	-9.96376E-007	0.00000E+000	-3.20307E-006	0.00000E+000	6.36240E-004	-3.27687E+002	7	...........
	40	41	3.21481E+000	-9.96178E-007	0.00000E+000	-3.20253E-006	0.00000E+000	6.33424E-004	-3.27687E+002	7	...........
	41	42	3.21491E+000	-9.95634E-007	0.00000E+000	-3.20088E-006	0.00000E+000	6.29574E-004	-3.27687E+002	7	...........
	42	43	3.21500E+000	-9.94307E-007	0.00000E+000	-3.19670E-006	0.00000E+000	6.34657E-004	-3.27687E+002	7	...........
	43	44	3.21509E+000	-9.93456E-007	0.00000E+000	-3.19405E-006	0.00000E+000	6.31424E-004	-3.27687E+002	7	...........
	44	45	3.21518E+000	-9.93019E-007	0.00000E+000	-3.19273E-006	0.00000E+000	6.31740E-004	-3.27687E+002	7	...........
	45	46	3.21526E+000	-9.92196E-007	0.00000E+000	-3.19016E-006	0.00000E+000	6.32357E-004	-3.27687E+002	7	...........
	46	47	3.21533E+000	-9.92236E-007	0.00000E+000	-3.19036E-006	0.00000E+000	6.31190E-004	-3.27687E+002	7	...........
	47	48	3.21540E+000	-9.91541E-007	0.00000E+000	-3.18820E-006	0.00000E+000	6.31907E-004	-3.27687E+002	7	...........
	48	49	3.21548E+000	-9.91007E-007	0.00000E+000	-3.18656E-006	0.00000E+000	6.33457E-004	-3.27687E+002	7	...........
	49	50	3.21555E+000	-9.90983E-007	0.00000E+000	-3.18656E-006	0.00000E+000	6.32674E-004	-3.27687E+002	7	...........
	50	51	3.21563E+000	-9.90698E-007	0.00000E+000	-3.18572E-006	0.00000E+000	6.34607E-004	-3.27687E+002	7	...........
	51	52	3.21572E+000	-9.89653E-007	0.00000E+000	-3.18244E-006	0.00000E+000	6.34357E-004	-3.27687E+002	7	...........
	52	53	3.21581E+000	-9.88874E-007	0.00000E+000	-3.18003E-006	0.00000E+000	6.35107E-004	-3.27687E+002	7	...........
	53	54	3.21590E+000	-9.87660E-007	0.00000E+000	-3.17622E-006	0.00000E+000	6.34340E-004	-3.27687E+002	7	...........
	54	55	3.21598E+000	-9.88312E-007	0.00000E+000	-3.17840E-006	0.00000E+000	6.33340E-004	-3.27687E+002	7	...........
	55	56	3.21607E+000	-9.87324E-007	0.00000E+000	-3.17530E-006	0.00000E+000	6.30007E-004	-3.27687E+002	7	...........
	56	57	3.21614E+000	-9.87149E-007	0.00000E+000	-3.17481E-006	0.00000E+000	6.25457E-004	-3.27687E+002	7	...........
	57	58	3.21622E+000	-9.86650E-007	0.00000E+000	-3.17328E-006	0.00000E+000	6.23390E-004	-3.27687E+002	7	...........
	58	59	3.21629E+000	-9.85888E-007	0.00000E+000	-3.17090E-006	0.00000E+000	6.18940E-004	-3.27687E+002	7	...........
	59	60	3.21636E+000	-9.85467E-007	0.00000E+000	-3.16962E-006	0.00000E+000	6.18174E-004	-3.27687E+002	7	...........
	60	61	3.21644E+000	-9.84900E-007	0.00000E+000	-3.16787E-006	0.00000E+000	6.12090E-004	-3.27687E+002	7	...........
	61	62	3.21650E+000	-9.85386E-007	0.00000E+000	-3.16950E-006	0.00000E+000	6.12590E-004	-3.27687E+002	7	...........
	62	63	3.21659E+000	-9.84930E-007	0.00000E+000	-3.16811E-006	0.00000E+000	6.09807E-004	-3.27687E+002	7	...........
	63	64	3.21666E+000	-9.84617E-007	0.00000E+000	-3.16718E-006	0.00000E+000	6.07540E-004	-3.27687E+002	7	...........
	64	65	3.21674E+000	-9.84048E-007	0.00000E+000	-3.16542E-006	0.00000E+000	6.09440E-004	-3.27687E+002	7	...........
	65	66	3.21681E+000	-9.82860E-007	0.00000E+000	-3.16167E-006	0.00000E+000	6.12224E-004	-3.27687E+002	7	...........
	66	67	3.21688E+000	-9.80895E-007	0.00000E+000	-3.15542E-006	0.00000E+000	6.15740E-004	-3.27687E+002	7	...........
	67	68	3.21694E+000	-9.80890E-007	0.00000E+000	-3.15547E-006	0.00000E+000	6.15140E-004	-3.27687E+002	7	...........
	68	69	3.21701E+000	-9.80663E-007	0.00000E+000	-3.15481E-006	0.00000E+000	6.18107E-004	-3.27687E+002	7	...........
	69	70	3.21708E+000	-9.80862E-007	0.00000E+000	-3.15551E-006	0.00000E+000	6.22957E-004	-3.27687E+002	7	...........
	70	71	3.21715E+000	-9.79854E-007	0.00000E+000	-3.15233E-006	0.00000E+000	6.25357E-004	-3.27687E+002	7	...........
	71	72	3.21721E+000	-9.79707E-007	0.00000E+000	-3.15193E-006	0.00000E+000	6.25574E-004	-3.27687E+002	7	...........
	72	73	3.21728E+000	-9.79700E-007	0.00000E+000	-3.15197E-006	0.00000E+000	6.29657E-004	-3.27687E+002	7	...........
	73	74	3.21735E+000	-9.78856E-007	0.00000E+000	-3.14932E-006	0.00000E+000	6.28340E-004	-3.27687E+002	7	...........
	74	75	3.21743E+000	-9.77796E-007	0.00000E+000	-3.14599E-006	0.00000E+000	6.31890E-004	-3.27687E+002	7	...........
	75	76	3.21750E+000	-9.77783E-007	0.00000E+000	-3.14601E-006	0.00000E+000	6.32957E-004	-3.27687E+002	7	...........
	76	77	3.21756E+000	-9.78095E-007	0.00000E+000	-3.14708E-006	0.00000E+000	6.32157E-004	-3.27687E+002	7	...........
	77	78	3.21762E+000	-9.77284E-007	0.00000E+000	-3.14453E-006	0.00000E+000	6.33007E-004	-3.27687E+002	7	...........
	78	79	3.21768E+000	-9.77034E-007	0.00000E+000	-3.14379E-006	0.00000E+000	6.33240E-004	-3.27687E+002	7	...........
	79	80	3.21775E+000	-9.76962E-007	0.00000E+000	-3.14362E-006	0.00000E+000	6.33590E-004	-3.27687E+002	7	...........
	80	81	3.21781E+000	-9.76173E-007	0.00000E+000	-3.14114E-006	0.00000E+000	6.34357E-004	-3.27687E+002	7	...........
	81	82	3.21788E+000	-9.75010E-007	0.00000E+000	-3.13746E-006	0.00000E+000	6.33707E-004	-3.27687E+002	7	...........
	82	83	3.21794E+000	-9.75492E-007	0.00000E+000	-3.13908E-006	0.00000E+000	6.32174E-004	-3.27687E+002	7	...........
	83	84	3.21801E+000	-9.74984E-007	0.00000E+000	-3.13751E-006	0.00000E+000	6.31807E-004	-3.27687E+002	7	...........
	84	85	3.21806E+000	-9.74293E-007	0.00000E+000	-3.13533E-006	0.00000E+000	6.30407E-004	-3.27687E+002	7	...........
	85	86	3.21812E+000	-9.73642E-007	0.00000E+000	-3.13330E-006	0.00000E+000	6.31140E-004	-3.27687E+002	7	...........
	86	87	3.21817E+000	-9.73702E-007	0.00000E+000	-3.13354E-006	0.00000E+000	6.30190E-004	-3.27687E+002	7	...........
	87	88	3.21823E+000	-9.73178E-007	0.00000E+000	-3.13191E-006	0.00000E+000	6.32174E-004	-3.27687E+002	7	...........
	88	89	3.21827E+000	-9.73483E-007	0.00000E+000	-3.13293E-006	0.00000E+000	6.33507E-004	-3.27687E+002	7	...........
	89	90	3.21833E+000	-9.72937E-007	0.00000E+000	-3.13123E-006	0.00000E+000	6.31707E-004	-3.27687E+002	7	...........
	90	91	3.21838E+000	-9.72584E-007	0.00000E+000	-3.13014E-006	0.00000E+000	6.33424E-004	-3.27687E+002	7	...........
	91	92	3.21843E+000	-9.72366E-007	0.00000E+000	-3.12949E-006	0.00000E+000	6.33740E-004	-3.27687E+002	7	...........
	92	93	3.21847E+000	-9.72017E-007	0.00000E+000	-3.12841E-006	0.00000E+000	6.35174E-004	-3.27687E+002	7	...........
	93	94	3.21852E+000	-9.71520E-007	0.00000E+000	-3.12686E-006	0.00000E+000	6.36557E-004	-3.27687E+002	7	...........
	94	95	3.21857E+000	-9.70737E-007	0.00000E+000	-3.12439E-006	0.00000E+000	6.38724E-004	-3.27687E+002	7	...........
	95	96	3.21862E+000	-9.69420E-007	0.00000E+000	-3.12020E-006	0.00000E+000	6.42624E-004	-3.27687E+002	7	...........
	96	97	3.21866E+000	-9.70088E-007	0.00000E+000	-3.12238E-006	0.00000E+000	6.42574E-004	-3.27687E+002	7	...........
	97	98	3.21872E+000	-9.69823E-007	0.00000E+000	-3.12159E-006	0.00000E+000	6.43524E-004	-3.27687E+002	7	...........
	98	99	3.21877E+000	-9.69732E-007	0.00000E+000	-3.12135E-006	0.00000E+000	6.44424E-004	-3.27687E+002	7	...........
	99	100	3.21884E+000	-9.69575E-007	0.00000E+000	-3.12090E-006	0.00000E+000	6.44107E-004	-3.27687E+002	7	...........
	100	101	3.21889E+000	-9.68965E-007	0.00000E+000	-3.11900E-006	0.00000E+000	6.47390E-004	-3.27687E+002	7	...........
	101	102	3.21895E+000	-9.68372E-007	0.00000E+000	-3.11714E-006	0.00000E+000	6.48807E-004	-3.27687E+002	7	...........
	102	103	3.21901E+000	-9.68388E-007	0.00000E+000	-3.11725E-006	0.00000E+000	6.50490E-004	-3.27687E+002	7	...........
	103	104	3.21906E+000	-9.68497E-007	0.00000E+000	-3.11765E-006	0.00000E+000	6.47674E-004	-3.27687E+002	7	...........
	104	105	3.21912E+000	-9.68495E-007	0.00000E+000	-3.11770E-006	0.00000E+000	6.48790E-004	-3.27687E+002	7	...........
	105	106	3.21918E+000	-9.68183E-007	0.00000E+000	-3.11676E-006	0.00000E+000	6.48874E-004	-3.27687E+002	7	...........
	106	107	3.21923E+000	-9.67772E-007	0.00000E+000	-3.11548E-006	0.00000E+000	6.48974E-004	-3.27687E+002	7	...........
	107	108	3.21928E+000	-9.67978E-007	0.00000E+000	-3.11619E-006	0.00000E+000	6.46074E-004	-3.27687E+002	7	...........
	108	109	3.21933E+000	-9.67187E-007	0.00000E+000	-3.11370E-006	0.00000E+000	6.45324E-004	-3.27687E+002	7	...........
	109	110	3.21938E+000	-9.66885E-007	0.00000E+000	-3.11277E-006	0.00000E+000	6.45374E-004	-3.27687E+002	7	...........
	110	111	3.21943E+000	-9.66466E-007	0.00000E+000	-3.11147E-006	0.00000E+000	6.42340E-004	-3.27687E+002	7	...........
	111	112	3.21948E+000	-9.67164E-007	0.00000E+000	-3.11376E-006	0.00000E+000	6.41557E-004	-3.27687E+002	7	...........
	112	113	3.21954E+000	-9.66304E-007	0.00000E+000	-3.11105E-006	0.00000E+000	6.37324E-004	-3.27687E+002	7	...........
	113	114	3.21957E+000	-9.66136E-007	0.00000E+000	-3.11054E-006	0.00000E+000	6.40374E-004	-3.27687E+002	7	...........
	114	115	3.21963E+000	-9.65117E-007	0.00000E+000	-3.10731E-006	0.00000E+000	6.37490E-004	-3.27687E+002	7	...........
	115	116	3.21967E+000	-9.64861E-007	0.00000E+000	-3.10653E-006	0.00000E+000	6.37074E-004	-3.27687E+002	7	...........
	116	117	3.21971E+000	-9.65007E-007	0.00000E+000	-3.10704E-006	0.00000E+000	6.36390E-004	-3.27687E+002	7	...........
	117	118	3.21975E+000	-9.64825E-007	0.00000E+000	-3.10649E-006	0.00000E+000	6.34740E-004	-3.27687E+002	7	...........
	118	119	3.21980E+000	-9.64283E-007	0.00000E+000	-3.10480E-006	0.00000E+000	6.36890E-004	-3.27687E+002	7	...........
	119	120	3.21985E+000	-9.64781E-007	0.00000E+000	-3.10645E-006	0.00000E+000	6.35724E-004	-3.27687E+002	7	...........
	120	121	3.21988E+000	-9.64498E-007	0.00000E+000	-3.10557E-006	0.00000E+000	6.34890E-004	-3.27687E+002	7	...........
	121	122	3.21994E+000	-9.64149E-007	0.00000E+000	-3.10450E-006	0.00000E+000	6.35624E-004	-3.27687E+002	7	...........
	122	123	3.21998E+000	-9.63739E-007	0.00000E+000	-3.10322E-006	0.00000E+000	6.36940E-004	-3.27687E+002	7	...........
	123	124	3.22001E+000	-9.62782E-007	0.00000E+000	-3.10017E-006	0.00000E+000	6.36974E-004	-3.27687E+002	7	...........
	124	125	3.22005E+000	-9.62469E-007	0.00000E+000	-3.09920E-006	0.00000E+000	6.37240E-004	-3.27687E+002	7	...........
	125	126	3.22009E+000	-9.62427E-007	0.00000E+000	-3.09910E-006	0.00000E+000	6.38857E-004	-3.27687E+002	7	...........
	126	127	3.22014E+000	-9.62401E-007	0.00000E+000	-3.09907E-006	0.00000E+000	6.37824E-004	-3.27687E+002	7	...........
	127	128	3.22017E+000	-9.61442E-007	0.00000E+000	-3.09601E-006	0.00000E+000	6.38190E-004	-3.27687E+002	7	...........
	128	129	3.22021E+000	-9.61325E-007	0.00000E+000	-3.09567E-006	0.00000E+000	6.39490E-004	-3.27687E+002	7	...........
	129	130	3.22026E+000	-9.61600E-007	0.00000E+000	-3.09660E-006	0.00000E+000	6.40157E-004	-3.27687E+002	7	...........
	130	131	3.22030E+000	-9.61765E-007	0.00000E+000	-3.09717E-006	0.00000E+000	6.38674E-004	-3.27687E+002	7	...........
	131	132	3.22034E+000	-9.61325E-007	0.00000E+000	-3.09580E-006	0.00000E+000	6.41257E-004	-3.27687E+002	7	...........
	132	133	3.22038E+000	-9.61025E-007	0.00000E+000	-3.09486E-006	0.00000E+000	6.42440E-004	-3.27687E+002	7	...........
	133	134	3.22042E+000	-9.61665E-007	0.00000E+000	-3.09696E-006	0.00000E+000	6.40524E-004	-3.27687E+002	7	...........
	134	135	3.22047E+000	-9.61422E-007	0.00000E+000	-3.09623E-006	0.00000E+000	6.44874E-004	-3.27687E+002	7	...........
	135	136	3.22051E+000	-9.61184E-007	0.00000E+000	-3.09550E-006	0.00000E+000	6.45407E-004	-3.27687E+002	7	...........
	136	137	3.22054E+000	-9.60888E-007	0.00000E+000	-3.09458E-006	0.00000E+000	6.47407E-004	-3.27687E+002	7	...........
	137	138	3.22059E+000	-9.59885E-007	0.00000E+000	-3.09140E-006	0.00000E+000	6.46157E-004	-3.27687E+002	7	...........
	138	139	3.22063E+000	-9.59705E-007	0.00000E+000	-3.09086E-006	0.00000E+000	6.45590E-004	-3.27687E+002	7	...........
	139	140	3.22067E+000	-9.60215E-007	0.00000E+000	-3.09254E-006	0.00000E+000	6.44824E-004	-3.27687E+002	7	...........
	140	141	3.22072E+000	-9.60237E-007	0.00000E+000	-3.09265E-006	0.00000E+000	6.44690E-004	-3.27687E+002	7	...........
	141	142	3.22076E+000	-9.60228E-007	0.00000E+000	-3.09266E-006	0.00000E+000	6.44624E-004	-3.27687E+002	7	...........
	142	143	3.22081E+000	-9.59757E-007	0.00000E+000	-3.09119E-006	0.00000E+000	6.43540E-004	-3.27687E+002	7	...........
	143	144	3.22084E+000	-9.59446E-007	0.00000E+000	-3.09022E-006	0.00000E+000	6.43740E-004	-3.27687E+002	7	...........
	144	145	3.22088E+000	-9.58813E-007	0.00000E+000	-3.08822E-006	0.00000E+000	6.42724E-004	-3.27687E+002	7	...........
	145	146	3.22093E+000	-9.58493E-007	0.00000E+000	-3.08723E-006	0.00000E+000	6.45590E-004	-3.27687E+002	7	...........
	146	147	3.22096E+000	-9.58297E-007	0.00000E+000	-3.08664E-006	0.00000E+000	6.40957E-004	-3.27687E+002	7	...........
	147	148	3.22099E+000	-9.58480E-007	0.00000E+000	-3.08726E-006	0.00000E+000	6.43474E-004	-3.27687E+002	7	...........
	148	149	3.22104E+000	-9.59069E-007	0.00000E+000	-3.08920E-006	0.00000E+000	6.42907E-004	-3.27687E+002	7	...........
	149	150	3.22107E+000	-9.58759E-007	0.00000E+000	-3.08822E-006	0.00000E+000	6.40790E-004	-3.27687E+002	7	...........
	150	151	3.22111E+000	-9.58371E-007	0.00000E+000	-3.08702E-006	0.00000E+000	6.42424E-004	-3.27687E+002	7	...........
	151	152	3.22115E+000	-9.57134E-007	0.00000E+000	-3.08307E-006	0.00000E+000	6.39290E-004	-3.27687E+002	7	...........
	152	153	3.22119E+000	-9.56294E-007	0.00000E+000	-3.08040E-006	0.00000E+000	6.38657E-004	-3.27687E+002	7	...........
	153	154	3.22122E+000	-9.56171E-007	0.00000E+000	-3.08004E-006	0.00000E+000	6.37790E-004	-3.27687E+002	7	...........
	154	155	3.22126E+000	-9.56168E-007	0.00000E+000	-3.08006E-006	0.00000E+000	6.39224E-004	-3.27687E+002	7	...........
	155	156	3.22129E+000	-9.55990E-007	0.00000E+000	-3.07952E-006	0.00000E+000	6.36174E-004	-3.27687E+002	7	...........
	156	157	3.22133E+000	-9.56138E-007	0.00000E+000	-3.08004E-006	0.00000E+000	6.36507E-004	-3.27687E+002	7	...........
	157	158	3.22137E+000	-9.55715E-007	0.00000E+000	-3.07871E-006	0.00000E+000	6.33240E-004	-3.27687E+002	7	...........
	158	159	3.22140E+000	-9.55481E-007	0.00000E+000	-3.07799E-006	0.00000E+000	6.30674E-004	-3.27687E+002	7	...........
	159	160	3.22144E+000	-9.55746E-007	0.00000E+000	-3.07888E-006	0.00000E+000	6.34357E-004	-3.27687E+002	7	...........
	160	161	3.22147E+000	-9.55285E-007	0.00000E+000	-3.07742E-006	0.00000E+000	6.33207E-004	-3.27687E+002	7	...........
	161	162	3.22150E+000	-9.55567E-007	0.00000E+000	-3.07836E-006	0.00000E+000	6.33840E-004	-3.27687E+002	7	...........
	162	163	3.22154E+000	-9.54711E-007	0.00000E+000	-3.07564E-006	0.00000E+000	6.32990E-004	-3.27687E+002	7	...........
	163	164	3.22158E+000	-9.54974E-007	0.00000E+000	-3.07652E-006	0.00000E+000	6.33857E-004	-3.27687E+002	7	...........
	164	165	3.22160E+000	-9.54919E-007	0.00000E+000	-3.07637E-006	0.00000E+000	6.35090E-004	-3.27687E+002	7	...........
	165	166	3.22163E+000	-9.54329E-007	0.00000E+000	-3.07449E-006	0.00000E+000	6.34724E-004	-3.27687E+002	7	...........
	166	167	3.22166E+000	-9.53265E-007	0.00000E+000	-3.07110E-006	0.00000E+000	6.35974E-004	-3.27687E+002	7	...........
	167	168	3.22169E+000	-9.53840E-007	0.00000E+000	-3.07297E-006	0.00000E+000	6.36590E-004	-3.27687E+002	7	...........
	168	169	3.22172E+000	-9.54121E-007	0.00000E+000	-3.07391E-006	0.00000E+000	6.37324E-004	-3.27687E+002	7	...........
	169	170	3.22175E+000	-9.53781E-007	0.00000E+000	-3.07284E-006	0.00000E+000	6.35207E-004	-3.27687E+002	7	...........
	170	171	3.22178E+000	-9.53727E-007	0.00000E+000	-3.07269E-006	0.00000E+000	6.36390E-004	-3.27687E+002	7	...........
	171	172	3.22181E+000	-9.53246E-007	0.00000E+000	-3.07117E-006	0.00000E+000	6.37357E-004	-3.27687E+002	7	...........
	172	173	3.22183E+000	-9.53287E-007	0.00000E+000	-3.07133E-006	0.00000E+000	6.37240E-004	-3.27687E+002	7	...........
	173	174	3.22187E+000	-9.53532E-007	0.00000E+000	-3.07215E-006	0.00000E+000	6.39324E-004	-3.27687E+002	7	...........
	174	175	3.22190E+000	-9.53081E-007	0.00000E+000	-3.07073E-006	0.00000E+000	6.39257E-004	-3.27687E+002	7	...........
	175	176	3.22194E+000	-9.53225E-007	0.00000E+000	-3.07123E-006	0.00000E+000	6.39324E-004	-3.27687E+002	7	...........
	176	177	3.22197E+000	-9.53560E-007	0.00000E+000	-3.07234E-006	0.00000E+000	6.39790E-004	-3.27687E+002	7	...........
	177	178	3.22200E+000	-9.53143E-007	0.00000E+000	-3.07103E-006	0.00000E+000	6.37890E-004	-3.27687E+002	7	...........
	178	179	3.22203E+000	-9.53289E-007	0.00000E+000	-3.07153E-006	0.00000E+000	6.38007E-004	-3.27687E+002	7	...........
	179	180	3.22206E+000	-9.53016E-007	0.00000E+000	-3.07067E-006	0.00000E+000	6.39874E-004	-3.27687E+002	7	...........
	180	181	3.22209E+000	-9.51567E-007	0.00000E+000	-3.06604E-006	0.00000E+000	6.38307E-004	-3.27687E+002	7	...........
	181	182	3.22212E+000	-9.51612E-007	0.00000E+000	-3.06621E-006	0.00000E+000	6.40107E-004	-3.27687E+002	7	...........
	182	183	3.22217E+000	-9.52473E-007	0.00000E+000	-3.06903E-006	0.00000E+000	6.40157E-004	-3.27687E+002	7	...........
	183	184	3.22220E+000	-9.51987E-007	0.00000E+000	-3.06749E-006	0.00000E+000	6.39240E-004	-3.27687E+002	7	...........
	184	185	3.22224E+000	-9.51457E-007	0.00000E+000	-3.06582E-006	0.00000E+000	6.36774E-004	-3.27687E+002	7	...........
	185	186	3.22227E+000	-9.51540E-007	0.00000E+000	-3.06612E-006	0.00000E+000	6.36040E-004	-3.27687E+002	7	...........
	186	187	3.22231E+000	-9.50797E-007	0.00000E+000	-3.06376E-006	0.00000E+000	6.35474E-004	-3.27687E+002	7	...........
	187	188	3.22234E+000	-9.50935E-007	0.00000E+000	-3.06424E-006	0.00000E+000	6.34907E-004	-3.27687E+002	7	...........
	188	189	3.22238E+000	-9.51346E-007	0.00000E+000	-3.06560E-006	0.00000E+000	6.38774E-004	-3.27687E+002	7	...........
	189	190	3.22241E+000	-9.50347E-007	0.00000E+000	-3.06240E-006	0.00000E+000	6.36224E-004	-3.27687E+002	7	...........
	190	191	3.22244E+000	-9.50570E-007	0.00000E+000	-3.06315E-006	0.00000E+000	6.36124E-004	-3.27687E+002	7	...........
	191	192	3.22246E+000	-9.50236E-007	0.00000E+000	-3.06210E-006	0.00000E+000	6.34740E-004	-3.27687E+002	7	...........
	192	193	3.22250E+000	-9.50447E-007	0.00000E+000	-3.06281E-006	0.00000E+000	6.33074E-004	-3.27687E+002	7	...........
	193	194	3.22253E+000	-9.50740E-007	0.00000E+000	-3.06379E-006	0.00000E+000	6.31657E-004	-3.27687E+002	7	...........
	194	195	3.22256E+000	-9.50350E-007	0.00000E+000	-3.06256E-006	0.00000E+000	6.32357E-004	-3.27687E+002	7	...........
	195	196	3.22260E+000	-9.49756E-007	0.00000E+000	-3.06068E-006	0.00000E+000	6.30557E-004	-3.27687E+002	7	...........
	196	197	3.22262E+000	-9.49877E-007	0.00000E+000	-3.06109E-006	0.00000E+000	6.29840E-004	-3.27687E+002	7	...........
	197	198	3.22266E+000	-9.49858E-007	0.00000E+000	-3.06106E-006	0.00000E+000	6.28407E-004	-3.27687E+002	7	...........
	198	199	3.22268E+000	-9.49443E-007	0.00000E+000	-3.05975E-006	0.00000E+000	6.28540E-004	-3.27687E+002	7	...........
	199	200	3.22272E+000	-9.48730E-007	0.00000E+000	-3.05749E-006	0.00000E+000	6.24190E-004	-3.27687E+002	7	...........
	200	201	3.22274E+000	-9.49090E-007	0.00000E+000	-3.05867E-006	0.00000E+000	6.24557E-004	-3.27687E+002	7	...........
	201	202	3.22278E+000	-9.48526E-007	0.00000E+000	-3.05689E-006	0.00000E+000	6.23740E-004	-3.27687E+002	7	...........
	202	203	3.22280E+000	-9.48220E-007	0.00000E+000	-3.05593E-006	0.00000E+000	6.21624E-004	-3.27687E+002	7	...........
	203	204	3.22283E+000	-9.48583E-007	0.00000E+000	-3.05712E-006	0.00000E+000	6.21474E-004	-3.27687E+002	7	...........
	204	205	3.22286E+000	-9.48048E-007	0.00000E+000	-3.05543E-006	0.00000E+000	6.21140E-004	-3.27687E+002	7	...........
	205	206	3.22288E+000	-9.47850E-007	0.00000E+000	-3.05481E-006	0.00000E+000	6.19774E-004	-3.27687E+002	7	...........
	206	207	3.22292E+000	-9.47915E-007	0.00000E+000	-3.05505E-006	0.00000E+000	6.20257E-004	-3.27687E+002	7	...........
	207	208	3.22295E+000	-9.48232E-007	0.00000E+000	-3.05610E-006	0.00000E+000	6.19840E-004	-3.27687E+002	7	...........
	208	209	3.22298E+000	-9.47048E-007	0.00000E+000	-3.05232E-006	0.00000E+000	6.23357E-004	-3.27687E+002	7	...........
	209	210	3.22302E+000	-9.46126E-007	0.00000E+000	-3.04939E-006	0.00000E+000	6.22090E-004	-3.27687E+002	7	...........
	210	211	3.22305E+000	-9.46334E-007	0.00000E+000	-3.05008E-006	0.00000E+000	6.21124E-004	-3.27687E+002	7	...........
	211	212	3.22308E+000	-9.47232E-007	0.00000E+000	-3.05300E-006	0.00000E+000	6.22574E-004	-3.27687E+002	7	...........
	212	213	3.22311E+000	-9.47061E-007	0.00000E+000	-3.05248E-006	0.00000E+000	6.22524E-004	-3.27687E+002	7	...........
	213	214	3.22314E+000	-9.47217E-007	0.00000E+000	-3.05301E-006	0.00000E+000	6.23640E-004	-3.27687E+002	7	...........
	214	215	3.22317E+000	-9.46435E-007	0.00000E+000	-3.05052E-006	0.00000E+000	6.20940E-004	-3.27687E+002	7	...........
	215	216	3.22320E+000	-9.46058E-007	0.00000E+000	-3.04934E-006	0.00000E+000	6.23240E-004	-3.27687E+002	7	...........
	216	217	3.22323E+000	-9.46159E-007	0.00000E+000	-3.04969E-006	0.00000E+000	6.24090E-004	-3.27687E+002	7	...........
	217	218	3.22326E+000	-9.46338E-007	0.00000E+000	-3.05030E-006	0.00000E+000	6.24507E-004	-3.27687E+002	7	...........
	218	219	3.22329E+000	-9.46698E-007	0.00000E+000	-3.05148E-006	0.00000E+000	6.25724E-004	-3.27687E+002	7	...........
	219	220	3.22331E+000	-9.46283E-007	0.00000E+000	-3.05017E-006	0.00000E+000	6.26390E-004	-3.27687E+002	7	...........
	220	221	3.22334E+000	-9.46565E-007	0.00000E+000	-3.05110E-006	0.00000E+000	6.26474E-004	-3.27687E+002	7	...........
	221	222	3.22337E+000	-9.46149E-007	0.00000E+000	-3.04979E-006	0.00000E+000	6.28357E-004	-3.27687E+002	7	...........
	222	223	3.22340E+000	-9.45673E-007	0.00000E+000	-3.04828E-006	0.00000E+000	6.31074E-004	-3.27687E+002	7	...........
	223	224	3.22342E+000	-9.44626E-007	0.00000E+000	-3.04493E-006	0.00000E+000	6.33824E-004	-3.27687E+002	7	...........
	224	225	3.22345E+000	-9.43926E-007	0.00000E+000	-3.04270E-006	0.00000E+000	6.35357E-004	-3.27687E+002	7	...........
	225	226	3.22348E+000	-9.44514E-007	0.00000E+000	-3.04462E-006	0.00000E+000	6.35074E-004	-3.27687E+002	7	...........
	226	227	3.22351E+000	-9.44461E-007	0.00000E+000	-3.04448E-006	0.00000E+000	6.36890E-004	-3.27687E+002	7	...........
	227	228	3.22354E+000	-9.44738E-007	0.00000E+000	-3.04540E-006	0.00000E+000	6.36824E-004	-3.27687E+002	7	...........
	228	229	3.22357E+000	-9.44750E-007	0.00000E+000	-3.04546E-006	0.00000E+000	6.37624E-004	-3.27687E+002	7	...........
	229	230	3.22359E+000	-9.44177E-007	0.00000E+000	-3.04364E-006	0.00000E+000	6.37074E-004	-3.27687E+002	7	...........
	230	231	3.22362E+000	-9.43649E-007	0.00000E+000	-3.04197E-006	0.00000E+000	6.38607E-004	-3.27687E+002	7	...........
	231	232	3.22365E+000	-9.43343E-007	0.00000E+000	-3.04100E-006	0.00000E+000	6.41057E-004	-3.27687E+002	7	...........
	232	233	3.22368E+000	-9.43663E-007	0.00000E+000	-3.04207E-006	0.00000E+000	6.41624E-004	-3.27687E+002	7	...........
	233	234	3.22370E+000	-9.42938E-007	0.00000E+000	-3.03975E-006	0.00000E+000	6.41674E-004	-3.27687E+002	7	...........
	234	235	3.22372E+000	-9.43198E-007	0.00000E+000	-3.04060E-006	0.00000E+000	6.42707E-004	-3.27687E+002	7	...........
	235	236	3.22376E+000	-9.43072E-007	0.00000E+000	-3.04024E-006	0.00000E+000	6.44490E-004	-3.27687E+002	7	...........
	236	237	3.22379E+000	-9.42918E-007	0.00000E+000	-3.03977E-006	0.00000E+000	6.44957E-004	-3.27687E+002	7	...........
	237	238	3.22382E+000	-9.42598E-007	0.00000E+000	-3.03876E-006	0.00000E+000	6.48274E-004	-3.27687E+002	7	...........
	238	239	3.22385E+000	-9.42464E-007	0.00000E+000	-3.03836E-006	0.00000E+000	6.45440E-004	-3.27687E+002	7	...........
	239	240	3.22388E+000	-9.42575E-007	0.00000E+000	-3.03875E-006	0.00000E+000	6.47457E-004	-3.27687E+002	7	...........
	240	241	3.22392E+000	-9.43278E-007	0.00000E+000	-3.04105E-006	0.00000E+000	6.49524E-004	-3.27687E+002	7	...........
	241	242	3.22394E+000	-9.42755E-007	0.00000E+000	-3.03939E-006	0.00000E+000	6.48507E-004	-3.27687E+002	7	...........
	242	243	3.22398E+000	-9.42185E-007	0.00000E+000	-3.03759E-006	0.00000E+000	6.47707E-004	-3.27687E+002	7	...........
	243	244	3.22400E+000	-9.42335E-007	0.00000E+000	-3.03809E-006	0.00000E+000	6.47774E-004	-3.27687E+002	7	...........
	244	245	3.22403E+000	-9.42301E-007	0.00000E+000	-3.03801E-006	0.00000E+000	6.49257E-004	-3.27687E+002	7	...........
	245	246	3.22405E+000	-9.42061E-007	0.00000E+000	-3.03725E-006	0.00000E+000	6.46807E-004	-3.27687E+002	7	...........
	246	247	3.22409E+000	-9.41601E-007	0.00000E+000	-3.03580E-006	0.00000E+000	6.47124E-004	-3.27687E+002	7	...........
	247	248	3.22411E+000	-9.41818E-007	0.00000E+000	-3.03652E-006	0.00000E+000	6.46407E-004	-3.27687E+002	7	...........
	248	249	3.22414E+000	-9.41506E-007	0.00000E+000	-3.03555E-006	0.00000E+000	6.45857E-004	-3.27687E+002	7	...........
	249	250	3.22417E+000	-9.41303E-007	0.00000E+000	-3.03492E-006	0.00000E+000	6.46024E-004	-3.27687E+002	7	...........
	250	251	3.22419E+000	-9.41015E-007	0.00000E+000	-3.03402E-006	0.00000E+000	6.46907E-004	-3.27687E+002	7	...........
	251	252	3.22422E+000	-9.40450E-007	0.00000E+000	-3.03222E-006	0.00000E+000	6.40507E-004	-3.27687E+002	7	...........
	252	253	3.22425E+000	-9.40182E-007	0.00000E+000	-3.03138E-006	0.00000E+000	6.42024E-004	-3.27687E+002	7	...........
	253	254	3.22428E+000	-9.40022E-007	0.00000E+000	-3.03089E-006	0.00000E+000	6.41690E-004	-3.27687E+002	7	...........
	254	255	3.22430E+000	-9.39987E-007	0.00000E+000	-3.03080E-006	0.00000E+000	6.44640E-004	-3.27687E+002	7	...........
	255	256	3.22434E+000	-9.40574E-007	0.00000E+000	-3.03273E-006	0.00000E+000	6.42557E-004	-3.27687E+002	7	...........
	256	257	3.22435E+000	-9.39693E-007	0.00000E+000	-3.02990E-006	0.00000E+000	6.41190E-004	-3.27687E+002	7	...........
	257	258	3.22438E+000	-9.40212E-007	0.00000E+000	-3.03160E-006	0.00000E+000	6.41407E-004	-3.27687E+002	7	...........
	258	259	3.22440E+000	-9.40124E-007	0.00000E+000	-3.03134E-006	0.00000E+000	6.39640E-004	-3.27687E+002	7	...........
	259	260	3.22443E+000	-9.40248E-007	0.00000E+000	-3.03176E-006	0.00000E+000	6.44440E-004	-3.27687E+002	7	...........
	260	261	3.22445E+000	-9.40506E-007	0.00000E+000	-3.03261E-006	0.00000E+000	6.42174E-004	-3.27687E+002	7	...........
	261	262	3.22447E+000	-9.39853E-007	0.00000E+000	-3.03053E-006	0.00000E+000	6.41274E-004	-3.27687E+002	7	...........
	262	263	3.22451E+000	-9.39418E-007	0.00000E+000	-3.02916E-006	0.00000E+000	6.39107E-004	-3.27687E+002	7	...........
	263	264	3.22453E+000	-9.40019E-007	0.00000E+000	-3.03111E-006	0.00000E+000	6.38857E-004	-3.27687E+002	7	...........
	264	265	3.22456E+000	-9.39982E-007	0.00000E+000	-3.03103E-006	0.00000E+000	6.39190E-004	-3.27687E+002	7	...........
	265	266	3.22458E+000	-9.40291E-007	0.00000E+000	-3.03205E-006	0.00000E+000	6.39807E-004	-3.27687E+002	7	...........
	266	267	3.22461E+000	-9.39356E-007	0.00000E+000	-3.02906E-006	0.00000E+000	6.40174E-004	-3.27687E+002	7	...........
	267	268	3.22463E+000	-9.38927E-007	0.00000E+000	-3.02769E-006	0.00000E+000	6.41307E-004	-3.27687E+002	7	...........
	268	269	3.22465E+000	-9.38693E-007	0.00000E+000	-3.02696E-006	0.00000E+000	6.36840E-004	-3.27687E+002	7	...........
	269	270	3.22469E+000	-9.40351E-007	0.00000E+000	-3.03234E-006	0.00000E+000	6.39324E-004	-3.27687E+002	7	...........
	270	271	3.22471E+000	-9.40091E-007	0.00000E+000	-3.03152E-006	0.00000E+000	6.39224E-004	-3.27687E+002	7	...........
	271	272	3.22474E+000	-9.39092E-007	0.00000E+000	-3.02832E-006	0.00000E+000	6.39357E-004	-3.27687E+002	7	...........
	272	273	3.22477E+000	-9.39090E-007	0.00000E+000	-3.02835E-006	0.00000E+000	6.40274E-004	-3.27687E+002	7	...........
	273	274	3.22479E+000	-9.38676E-007	0.00000E+000	-3.02703E-006	0.00000E+000	6.40724E-004	-3.27687E+002	7	...........
	274	275	3.22482E+000	-9.38393E-007	0.00000E+000	-3.02614E-006	0.00000E+000	6.40340E-004	-3.27687E+002	7	...........
	275	276	3.22484E+000	-9.38852E-007	0.00000E+000	-3.02764E-006	0.00000E+000	6.41907E-004	-3.27687E+002	7	...........
	276	277	3.22487E+000	-9.38745E-007	0.00000E+000	-3.02733E-006	0.00000E+000	6.39524E-004	-3.27687E+002	7	...........
	277	278	3.22490E+000	-9.38622E-007	0.00000E+000	-3.02696E-006	0.00000E+000	6.43157E-004	-3.27687E+002	7	...........
	278	279	3.22492E+000	-9.38841E-007	0.00000E+000	-3.02769E-006	0.00000E+000	6.41557E-004	-3.27687E+002	7	...........
	279	280	3.22495E+000	-9.38916E-007	0.00000E+000	-3.02796E-006	0.00000E+000	6.43607E-004	-3.27687E+002	7	...........
	280	281	3.22497E+000	-9.38611E-007	0.00000E+000	-3.02700E-006	0.00000E+000	6.42340E-004	-3.27687E+002	7	...........
	281	282	3.22500E+000	-9.37548E-007	0.00000E+000	-3.02360E-006	0.00000E+000	6.43674E-004	-3.27687E+002	7	...........
	282	283	3.22504E+000	-9.37120E-007	0.00000E+000	-3.02225E-006	0.00000E+000	6.43390E-004	-3.27687E+002	7	...........
	283	284	3.22506E+000	-9.37364E-007	0.00000E+000	-3.02305E-006	0.00000E+000	6.43857E-004	-3.27687E+002	7	...........
	284	285	3.22510E+000	-9.37577E-007	0.00000E+000	-3.02378E-006	0.00000E+000	6.44824E-004	-3.27687E+002	7	...........
	285	286	3.22512E+000	-9.37551E-007	0.00000E+000	-3.02371E-006	0.00000E+000	6.45190E-004	-3.27687E+002	7	...........
	286	287	3.22516E+000	-9.37867E-007	0.00000E+000	-3.02477E-006	0.00000E+000	6.43224E-004	-3.27687E+002	7	...........
	287	288	3.22518E+000	-9.38154E-007	0.00000E+000	-3.02572E-006	0.00000E+000	6.46524E-004	-3.27687E+002	7	...........
	288	289	3.22521E+000	-9.36934E-007	0.00000E+000	-3.02181E-006	0.00000E+000	6.48640E-004	-3.27687E+002	7	...........
	289	290	3.22524E+000	-9.36497E-007	0.00000E+000	-3.02043E-006	0.00000E+000	6.47990E-004	-3.27687E+002	7	...........
	290	291	3.22528E+000	-9.36876E-007	0.00000E+000	-3.02169E-006	0.00000E+000	6.48540E-004	-3.27687E+002	7	...........
	291	292	3.22531E+000	-9.36603E-007	0.00000E+000	-3.02083E-006	0.00000E+000	6.47774E-004	-3.27687E+002	7	...........
	292	293	3.22534E+000	-9.37064E-007	0.00000E+000	-3.02235E-006	0.00000E+000	6.47924E-004	-3.27687E+002	7	...........
	293	294	3.22535E+000	-9.37080E-007	0.00000E+000	-3.02242E-006	0.00000E+000	6.45740E-004	-3.27687E+002	7	...........
	294	295	3.22538E+000	-9.37301E-007	0.00000E+000	-3.02315E-006	0.00000E+000	6.45440E-004	-3.27687E+002	7	...........
	295	296	3.22542E+000	-9.37329E-007	0.00000E+000	-3.02328E-006	0.00000E+000	6.48724E-004	-3.27687E+002	7	...........
	296	297	3.22544E+000	-9.36035E-007	0.00000E+000	-3.01913E-006	0.00000E+000	6.48840E-004	-3.27687E+002	7	...........
	297	298	3.22548E+000	-9.35605E-007	0.00000E+000	-3.01778E-006	0.00000E+000	6.48324E-004	-3.27687E+002	7	...........
	298	299	3.22550E+000	-9.35619E-007	0.00000E+000	-3.01784E-006	0.00000E+000	6.47924E-004	-3.27687E+002	7	...........
	299	300	3.22555E+000	-9.36114E-007	0.00000E+000	-3.01948E-006	0.00000E+000	6.49274E-004	-3.27687E+002	7	...........
	300	301	3.22558E+000	-9.36052E-007	0.00000E+000	-3.01931E-006	0.00000E+000	6.47224E-004	-3.27687E+002	7	...........
	301	302	3.22560E+000	-9.36039E-007	0.00000E+000	-3.01929E-006	0.00000E+000	6.44824E-004	-3.27687E+002	7	...........
	302	303	3.22564E+000	-9.35322E-007	0.00000E+000	-3.01701E-006	0.00000E+000	6.48224E-004	-3.27687E+002	7	...........
	303	304	3.22567E+000	-9.35403E-007	0.00000E+000	-3.01730E-006	0.00000E+000	6.48524E-004	-3.27687E+002	7	...........
	304	305	3.22570E+000	-9.35624E-007	0.00000E+000	-3.01804E-006	0.00000E+000	6.49307E-004	-3.27687E+002	7	...........
	305	306	3.22573E+000	-9.35602E-007	0.00000E+000	-3.01800E-006	0.00000E+000	6.48490E-004	-3.27687E+002	7	...........
	306	307	3.22575E+000	-9.35547E-007	0.00000E+000	-3.01784E-006	0.00000E+000	6.46790E-004	-3.27687E+002	7	...........
	307	308	3.22577E+000	-9.36069E-007	0.00000E+000	-3.01954E-006	0.00000E+000	6.46724E-004	-3.27687E+002	7	...........
	308	309	3.22579E+000	-9.35119E-007	0.00000E+000	-3.01650E-006	0.00000E+000	6.49157E-004	-3.27687E+002	7	...........
	309	310	3.22582E+000	-9.34834E-007	0.00000E+000	-3.01560E-006	0.00000E+000	6.47657E-004	-3.27687E+002	7	...........
	310	311	3.22584E+000	-9.34734E-007	0.00000E+000	-3.01530E-006	0.00000E+000	6.48307E-004	-3.27687E+002	7	...........
	311	312	3.22586E+000	-9.34216E-007	0.00000E+000	-3.01365E-006	0.00000E+000	6.48374E-004	-3.27687E+002	7	...........
	312	313	3.22588E+000	-9.33934E-007	0.00000E+000	-3.01276E-006	0.00000E+000	6.46724E-004	-3.27687E+002	7	...........
	313	314	3.22590E+000	-9.34623E-007	0.00000E+000	-3.01500E-006	0.00000E+000	6.46857E-004	-3.27687E+002	7	...........
	314	315	3.22592E+000	-9.35098E-007	0.00000E+000	-3.01655E-006	0.00000E+000	6.45540E-004	-3.27687E+002	7	...........
	315	316	3.22594E+000	-9.35062E-007	0.00000E+000	-3.01645E-006	0.00000E+000	6.47557E-004	-3.27687E+002	7	...........
	316	317	3.22595E+000	-9.35603E-007	0.00000E+000	-3.01821E-006	0.00000E+000	6.44524E-004	-3.27687E+002	7	...........
	317	318	3.22598E+000	-9.35235E-007	0.00000E+000	-3.01705E-006	0.00000E+000	6.46174E-004	-3.27687E+002	7	...........
	318	319	3.22600E+000	-9.35168E-007	0.00000E+000	-3.01685E-006	0.00000E+000	6.44574E-004	-3.27687E+002	7	...........
	319	320	3.22602E+000	-9.34682E-007	0.00000E+000	-3.01530E-006	0.00000E+000	6.43340E-004	-3.27687E+002	7	...........
	320	321	3.22602E+000	-9.34909E-007	0.00000E+000	-3.01604E-006	0.00000E+000	6.44824E-004	-3.27687E+002	7	...........
	321	322	3.22605E+000	-9.34932E-007	0.00000E+000	-3.01613E-006	0.00000E+000	6.46740E-004	-3.27687E+002	7	...........
	322	323	3.22606E+000	-9.35270E-007	0.00000E+000	-3.01724E-006	0.00000E+000	6.41957E-004	-3.27687E+002	7	...........
	323	324	3.22608E+000	-9.35078E-007	0.00000E+000	-3.01664E-006	0.00000E+000	6.44690E-004	-3.27687E+002	7	...........
	324	325	3.22609E+000	-9.35521E-007	0.00000E+000	-3.01808E-006	0.00000E+000	6.43607E-004	-3.27687E+002	7	...........
	325	326	3.22611E+000	-9.35165E-007	0.00000E+000	-3.01695E-006	0.00000E+000	6.44757E-004	-3.27687E+002	7	...........
	326	327	3.22614E+000	-9.35169E-007	0.00000E+000	-3.01698E-006	0.00000E+000	6.40707E-004	-3.27687E+002	7	...........
	327	328	3.22615E+000	-9.34504E-007	0.00000E+000	-3.01484E-006	0.00000E+000	6.45174E-004	-3.27687E+002	7	...........
	328	329	3.22617E+000	-9.35197E-007	0.00000E+000	-3.01710E-006	0.00000E+000	6.43740E-004	-3.27687E+002	7	...........
	329	330	3.22618E+000	-9.35124E-007	0.00000E+000	-3.01688E-006	0.00000E+000	6.44274E-004	-3.27687E+002	7	...........
	330	331	3.22620E+000	-9.35521E-007	0.00000E+000	-3.01818E-006	0.00000E+000	6.43407E-004	-3.27687E+002	7	...........
	331	332	3.22622E+000	-9.34828E-007	0.00000E+000	-3.01596E-006	0.00000E+000	6.42740E-004	-3.27687E+002	7	...........
	332	333	3.22623E+000	-9.34919E-007	0.00000E+000	-3.01627E-006	0.00000E+000	6.42874E-004	-3.27687E+002	7	...........
	333	334	3.22625E+000	-9.34597E-007	0.00000E+000	-3.01525E-006	0.00000E+000	6.43440E-004	-3.27687E+002	7	...........
	334	335	3.22627E+000	-9.35110E-007	0.00000E+000	-3.01692E-006	0.00000E+000	6.43107E-004	-3.27687E+002	7	...........
	335	336	3.22629E+000	-9.35240E-007	0.00000E+000	-3.01735E-006	0.00000E+000	6.42140E-004	-3.27687E+002	7	...........
	336	337	3.22630E+000	-9.35018E-007	0.00000E+000	-3.01665E-006	0.00000E+000	6.42874E-004	-3.27687E+002	7	...........
	337	338	3.22632E+000	-9.34471E-007	0.00000E+000	-3.01490E-006	0.00000E+000	6.43807E-004	-3.27687E+002	7	...........
	338	339	3.22634E+000	-9.35307E-007	0.00000E+000	-3.01762E-006	0.00000E+000	6.40624E-004	-3.27687E+002	7	...........
	339	340	3.22636E+000	-9.35221E-007	0.00000E+000	-3.01736E-006	0.00000E+000	6.43990E-004	-3.27687E+002	7	...........
	340	341	3.22638E+000	-9.34609E-007	0.00000E+000	-3.01540E-006	0.00000E+000	6.43290E-004	-3.27687E+002	7	...........
	341	342	3.22639E+000	-9.33891E-007	0.00000E+000	-3.01309E-006	0.00000E+000	6.45724E-004	-3.27687E+002	7	...........
	342	343	3.22641E+000	-9.34109E-007	0.00000E+000	-3.01382E-006	0.00000E+000	6.43774E-004	-3.27687E+002	7	...........
	343	344	3.22643E+000	-9.34472E-007	0.00000E+000	-3.01501E-006	0.00000E+000	6.44590E-004	-3.27687E+002	7	...........
	344	345	3.22645E+000	-9.34332E-007	0.00000E+000	-3.01457E-006	0.00000E+000	6.44324E-004	-3.27687E+002	7	...........
	345	346	3.22646E+000	-9.34692E-007	0.00000E+000	-3.01574E-006	0.00000E+000	6.47624E-004	-3.27687E+002	7	...........
	346	347	3.22649E+000	-9.33799E-007	0.00000E+000	-3.01289E-006	0.00000E+000	6.47207E-004	-3.27687E+002	7	...........
	347	348	3.22650E+000	-9.34474E-007	0.00000E+000	-3.01508E-006	0.00000E+000	6.43924E-004	-3.27687E+002	7	...........
	348	349	3.22653E+000	-9.34150E-007	0.00000E+000	-3.01406E-006	0.00000E+000	6.47974E-004	-3.27687E+002	7	...........
	349	350	3.22654E+000	-9.34650E-007	0.00000E+000	-3.01569E-006	0.00000E+000	6.44590E-004	-3.27687E+002	7	...........
	350	351	3.22655E+000	-9.34250E-007	0.00000E+000	-3.01441E-006	0.00000E+000	6.45157E-004	-3.27687E+002	7	...........
	351	352	3.22657E+000	-9.34578E-007	0.00000E+000	-3.01548E-006	0.00000E+000	6.45674E-004	-3.27687E+002	7	...........
	352	353	3.22659E+000	-9.34147E-007	0.00000E+000	-3.01411E-006	0.00000E+000	6.43424E-004	-3.27687E+002	7	...........
	353	354	3.22660E+000	-9.34916E-007	0.00000E+000	-3.01660E-006	0.00000E+000	6.44690E-004	-3.27687E+002	7	...........
	354	355	3.22661E+000	-9.34506E-007	0.00000E+000	-3.01529E-006	0.00000E+000	6.45107E-004	-3.27687E+002	7	...........
	355	356	3.22664E+000	-9.33352E-007	0.00000E+000	-3.01159E-006	0.00000E+000	6.44290E-004	-3.27687E+002	7	...........
	356	357	3.22665E+000	-9.32922E-007	0.00000E+000	-3.01021E-006	0.00000E+000	6.44540E-004	-3.27687E+002	7	...........
	357	358	3.22666E+000	-9.33241E-007	0.00000E+000	-3.01125E-006	0.00000E+000	6.44174E-004	-3.27687E+002	7	...........
	358	359	3.22668E+000	-9.33589E-007	0.00000E+000	-3.01239E-006	0.00000E+000	6.44374E-004	-3.27687E+002	7	...........
	359	360	3.22669E+000	-9.33420E-007	0.00000E+000	-3.01185E-006	0.00000E+000	6.45307E-004	-3.27687E+002	7	...........
	360	361	3.22671E+000	-9.33414E-007	0.00000E+000	-3.01185E-006	0.00000E+000	6.43757E-004	-3.27687E+002	7	...........
	361	362	3.22672E+000	-9.33195E-007	0.00000E+000	-3.01116E-006	0.00000E+000	6.46790E-004	-3.27687E+002	7	...........
	362	363	3.22673E+000	-9.32850E-007	0.00000E+000	-3.01005E-006	0.00000E+000	6.44624E-004	-3.27687E+002	7	...........
	363	364	3.22674E+000	-9.32851E-007	0.00000E+000	-3.01007E-006	0.00000E+000	6.44690E-004	-3.27687E+002	7	...........
	364	365	3.22677E+000	-9.33204E-007	0.00000E+000	-3.01123E-006	0.00000E+000	6.44290E-004	-3.27687E+002	7	...........
	365	366	3.22677E+000	-9.33229E-007	0.00000E+000	-3.01132E-006	0.00000E+000	6.44424E-004	-3.27687E+002	7	...........
	366	367	3.22679E+000	-9.33470E-007	0.00000E+000	-3.01211E-006	0.00000E+000	6.47174E-004	-3.27687E+002	7	...........
	367	368	3.22679E+000	-9.33445E-007	0.00000E+000	-3.01203E-006	0.00000E+000	6.48140E-004	-3.27687E+002	7	...........
	368	369	3.22681E+000	-9.33206E-007	0.00000E+000	-3.01128E-006	0.00000E+000	6.45190E-004	-3.27687E+002	7	...........
	369	370	3.22683E+000	-9.33149E-007	0.00000E+000	-3.01111E-006	0.00000E+000	6.45190E-004	-3.27687E+002	7	...........
	370	371	3.22685E+000	-9.32524E-007	0.00000E+000	-3.00912E-006	0.00000E+000	6.47474E-004	-3.27687E+002	7	...........
	371	372	3.22687E+000	-9.31886E-007	0.00000E+000	-3.00707E-006	0.00000E+000	6.44940E-004	-3.27687E+002	7	...........
	372	373	3.22688E+000	-9.32432E-007	0.00000E+000	-3.00884E-006	0.00000E+000	6.48690E-004	-3.27687E+002	7	...........
	373	374	3.22690E+000	-9.33061E-007	0.00000E+000	-3.01089E-006	0.00000E+000	6.48007E-004	-3.27687E+002	7	...........
	374	375	3.22691E+000	-9.32328E-007	0.00000E+000	-3.00854E-006	0.00000E+000	6.45790E-004	-3.27687E+002	7	...........
	375	376	3.22692E+000	-9.31817E-007	0.00000E+000	-3.00690E-006	0.00000E+000	6.46257E-004	-3.27687E+002	7	...........
	376	377	3.22693E+000	-9.31227E-007	0.00000E+000	-3.00501E-006	0.00000E+000	6.45840E-004	-3.27687E+002	7	...........
	377	378	3.22695E+000	-9.31385E-007	0.00000E+000	-3.00554E-006	0.00000E+000	6.47124E-004	-3.27687E+002	7	...........
	378	379	3.22698E+000	-9.31403E-007	0.00000E+000	-3.00562E-006	0.00000E+000	6.45324E-004	-3.27687E+002	7	...........
	379	380	3.22698E+000	-9.32011E-007	0.00000E+000	-3.00758E-006	0.00000E+000	6.43190E-004	-3.27687E+002	7	...........
	380	381	3.22700E+000	-9.32373E-007	0.00000E+000	-3.00876E-006	0.00000E+000	6.42107E-004	-3.27687E+002	7	...........
	381	382	3.22701E+000	-9.32668E-007	0.00000E+000	-3.00973E-006	0.00000E+000	6.43457E-004	-3.27687E+002	7	...........
	382	383	3.22703E+000	-9.31892E-007	0.00000E+000	-3.00724E-006	0.00000E+000	6.42857E-004	-3.27687E+002	7	...........
	383	384	3.22704E+000	-9.31819E-007	0.00000E+000	-3.00701E-006	0.00000E+000	6.44957E-004	-3.27687E+002	7	...........
	384	385	3.22706E+000	-9.31270E-007	0.00000E+000	-3.00527E-006	0.00000E+000	6.42924E-004	-3.27687E+002	7	...........
	385	386	3.22708E+000	-9.30203E-007	0.00000E+000	-3.00184E-006	0.00000E+000	6.41757E-004	-3.27687E+002	7	...........
	386	387	3.22711E+000	-9.30016E-007	0.00000E+000	-3.00126E-006	0.00000E+000	6.42224E-004	-3.27687E+002	7	...........
	387	388	3.22712E+000	-9.30847E-007	0.00000E+000	-3.00395E-006	0.00000E+000	6.43207E-004	-3.27687E+002	7	...........
	388	389	3.22713E+000	-9.31030E-007	0.00000E+000	-3.00456E-006	0.00000E+000	6.42840E-004	-3.27687E+002	7	...........
	389	390	3.22715E+000	-9.30637E-007	0.00000E+000	-3.00331E-006	0.00000E+000	6.41490E-004	-3.27687E+002	7	...........
	390	391	3.22717E+000	-9.30240E-007	0.00000E+000	-3.00204E-006	0.00000E+000	6.42090E-004	-3.27687E+002	7	...........
	391	392	3.22718E+000	-9.29695E-007	0.00000E+000	-3.00030E-006	0.00000E+000	6.42340E-004	-3.27687E+002	7	...........
	392	393	3.22721E+000	-9.30048E-007	0.00000E+000	-3.00146E-006	0.00000E+000	6.40690E-004	-3.27687E+002	7	...........
	393	394	3.22723E+000	-9.29965E-007	0.00000E+000	-3.00121E-006	0.00000E+000	6.38990E-004	-3.27687E+002	7	...........
	394	395	3.22724E+000	-9.30257E-007	0.00000E+000	-3.00216E-006	0.00000E+000	6.39757E-004	-3.27687E+002	7	...........
	395	396	3.22727E+000	-9.29729E-007	0.00000E+000	-3.00049E-006	0.00000E+000	6.38957E-004	-3.27687E+002	7	...........
	396	397	3.22728E+000	-9.30060E-007	0.00000E+000	-3.00157E-006	0.00000E+000	6.40440E-004	-3.27687E+002	7	...........
	397	398	3.22730E+000	-9.29810E-007	0.00000E+000	-3.00078E-006	0.00000E+000	6.39490E-004	-3.27687E+002	7	...........
	398	399	3.22732E+000	-9.29770E-007	0.00000E+000	-3.00066E-006	0.00000E+000	6.37990E-004	-3.27687E+002	7	...........
	399	400	3.22734E+000	-9.29648E-007	0.00000E+000	-3.00029E-006	0.00000E+000	6.35640E-004	-3.27687E+002	7	...........
	400	401	3.22737E+000	-9.29165E-007	0.00000E+000	-2.99876E-006	0.00000E+000	6.35707E-004	-3.27687E+002	7	...........
	401	402	3.22737E+000	-9.28918E-007	0.00000E+000	-2.99797E-006	0.00000E+000	6.35074E-004	-3.27687E+002	7	...........
	402	403	3.22741E+000	-9.29199E-007	0.00000E+000	-2.99890E-006	0.00000E+000	6.36807E-004	-3.27687E+002	7	...........
	403	404	3.22742E+000	-9.29799E-007	0.00000E+000	-3.00085E-006	0.00000E+000	6.38007E-004	-3.27687E+002	7	...........
	404	405	3.22745E+000	-9.29747E-007	0.00000E+000	-3.00071E-006	0.00000E+000	6.34240E-004	-3.27687E+002	7	...........
	405	406	3.22747E+000	-9.29443E-007	0.00000E+000	-2.99975E-006	0.00000E+000	6.31907E-004	-3.27687E+002	7	...........
	406	407	3.22748E+000	-9.29058E-007	0.00000E+000	-2.99852E-006	0.00000E+000	6.33857E-004	-3.27687E+002	7	...........
	407	408	3.22750E+000	-9.29061E-007	0.00000E+000	-2.99855E-006	0.00000E+000	6.35557E-004	-3.27687E+002	7	...........
	408	409	3.22751E+000	-9.28732E-007	0.00000E+000	-2.99750E-006	0.00000E+000	6.32207E-004	-3.27687E+002	7	...........
	409	410	3.22754E+000	-9.28665E-007	0.00000E+000	-2.99730E-006	0.00000E+000	6.35174E-004	-3.27687E+002	7	...........
	410	411	3.22756E+000	-9.29110E-007	0.00000E+000	-2.99876E-006	0.00000E+000	6.31807E-004	-3.27687E+002	7	...........
	411	412	3.22757E+000	-9.29012E-007	0.00000E+000	-2.99846E-006	0.00000E+000	6.33157E-004	-3.27687E+002	7	...........
	412	413	3.22759E+000	-9.28616E-007	0.00000E+000	-2.99719E-006	0.00000E+000	6.32774E-004	-3.27687E+002	7	...........
	413	414	3.22762E+000	-9.28915E-007	0.00000E+000	-2.99818E-006	0.00000E+000	6.30957E-004	-3.27687E+002	7	...........
	414	415	3.22764E+000	-9.28278E-007	0.00000E+000	-2.99614E-006	0.00000E+000	6.31057E-004	-3.27687E+002	7	...........
	415	416	3.22765E+000	-9.27593E-007	0.00000E+000	-2.99395E-006	0.00000E+000	6.32274E-004	-3.27687E+002	7	...........
	416	417	3.22768E+000	-9.26993E-007	0.00000E+000	-2.99204E-006	0.00000E+000	6.30974E-004	-3.27687E+002	7	...........
	417	418	3.22770E+000	-9.27608E-007	0.00000E+000	-2.99404E-006	0.00000E+000	6.30374E-004	-3.27687E+002	7	...........
	418	419	3.22771E+000	-9.28312E-007	0.00000E+000	-2.99632E-006	0.00000E+000	6.30974E-004	-3.27687E+002	7	...........
	419	420	3.22773E+000	-9.27274E-007	0.00000E+000	-2.99299E-006	0.00000E+000	6.33274E-004	-3.27687E+002	7	...........
	420	421	3.22776E+000	-9.27673E-007	0.00000E+000	-2.99430E-006	0.00000E+000	6.32274E-004	-3.27687E+002	7	...........
	421	422	3.22777E+000	-9.27625E-007	0.00000E+000	-2.99416E-006	0.00000E+000	6.32340E-004	-3.27687E+002	7	...........
	422	423	3.22779E+000	-9.26970E-007	0.00000E+000	-2.99206E-006	0.00000E+000	6.30474E-004	-3.27687E+002	7	...........
	423	424	3.22780E+000	-9.26691E-007	0.00000E+000	-2.99117E-006	0.00000E+000	6.30574E-004	-3.27687E+002	7	...........
	424	425	3.22783E+000	-9.27158E-007	0.00000E+000	-2.99271E-006	0.00000E+000	6.29307E-004	-3.27687E+002	7	...........
	425	426	3.22786E+000	-9.27123E-007	0.00000E+000	-2.99262E-006	0.00000E+000	6.27574E-004	-3.27687E+002	7	...........
	426	427	3.22787E+000	-9.27916E-007	0.00000E+000	-2.99519E-006	0.00000E+000	6.30257E-004	-3.27687E+002	7	...........
	427	428	3.22789E+000	-9.27193E-007	0.00000E+000	-2.99288E-006	0.00000E+000	6.30457E-004	-3.27687E+002	7	...........
	428	429	3.22791E+000	-9.27511E-007	0.00000E+000	-2.99392E-006	0.00000E+000	6.33607E-004	-3.27687E+002	7	...........
	429	430	3.22793E+000	-9.26963E-007	0.00000E+000	-2.99217E-006	0.00000E+000	6.31157E-004	-3.27687E+002	7	...........
	430	431	3.22795E+000	-9.26162E-007	0.00000E+000	-2.98961E-006	0.00000E+000	6.34124E-004	-3.27687E+002	7	...........
	431	432	3.22797E+000	-9.25255E-007	0.00000E+000	-2.98670E-006	0.00000E+000	6.31290E-004	-3.27687E+002	7	...........
	432	433	3.22799E+000	-9.25980E-007	0.00000E+000	-2.98906E-006	0.00000E+000	6.34424E-004	-3.27687E+002	7	...........
	433	434	3.22800E+000	-9.25579E-007	0.00000E+000	-2.98777E-006	0.00000E+000	6.33074E-004	-3.27687E+002	7	...........
	434	435	3.22802E+000	-9.25119E-007	0.00000E+000	-2.98630E-006	0.00000E+000	6.34990E-004	-3.27687E+002	7	...........
	435	436	3.22804E+000	-9.25116E-007	0.00000E+000	-2.98631E-006	0.00000E+000	6.34390E-004	-3.27687E+002	7	...........
	436	437	3.22806E+000	-9.25016E-007	0.00000E+000	-2.98601E-006	0.00000E+000	6.35090E-004	-3.27687E+002	7	...........
	437	438	3.22807E+000	-9.24633E-007	0.00000E+000	-2.98478E-006	0.00000E+000	6.32840E-004	-3.27687E+002	7	...........
	438	439	3.22809E+000	-9.24679E-007	0.00000E+000	-2.98495E-006	0.00000E+000	6.33540E-004	-3.27687E+002	7	...........
	439	440	3.22812E+000	-9.25033E-007	0.00000E+000	-2.98612E-006	0.00000E+000	6.33724E-004	-3.27687E+002	7	...........
	440	441	3.22811E+000	-9.24710E-007	0.00000E+000	-2.98507E-006	0.00000E+000	6.34707E-004	-3.27687E+002	7	...........
	441	442	3.22814E+000	-9.24669E-007	0.00000E+000	-2.98497E-006	0.00000E+000	6.32207E-004	-3.27687E+002	7	...........
	442	443	3.22816E+000	-9.24895E-007	0.00000E+000	-2.98571E-006	0.00000E+000	6.35907E-004	-3.27687E+002	7	...........
	443	444	3.22818E+000	-9.25774E-007	0.00000E+000	-2.98856E-006	0.00000E+000	6.34740E-004	-3.27687E+002	7	...........
	444	445	3.22818E+000	-9.25627E-007	0.00000E+000	-2.98809E-006	0.00000E+000	6.35657E-004	-3.27687E+002	7	...........
	445	446	3.22820E+000	-9.24713E-007	0.00000E+000	-2.98516E-006	0.00000E+000	6.35774E-004	-3.27687E+002	7	...........
	446	447	3.22821E+000	-9.23604E-007	0.00000E+000	-2.98159E-006	0.00000E+000	6.35190E-004	-3.27687E+002	7	...........
	447	448	3.22823E+000	-9.24419E-007	0.00000E+000	-2.98423E-006	0.00000E+000	6.33024E-004	-3.27687E+002	7	...........
	448	449	3.22825E+000	-9.24620E-007	0.00000E+000	-2.98490E-006	0.00000E+000	6.33074E-004	-3.27687E+002	7	...........
	449	450	3.22827E+000	-9.24597E-007	0.00000E+000	-2.98485E-006	0.00000E+000	6.35740E-004	-3.27687E+002	7	...........
	450	451	3.22828E+000	-9.24330E-007	0.00000E+000	-2.98400E-006	0.00000E+000	6.35940E-004	-3.27687E+002	7	...........
	451	452	3.22829E+000	-9.24466E-007	0.00000E+000	-2.98445E-006	0.00000E+000	6.36174E-004	-3.27687E+002	7	...........
	452	453	3.22831E+000	-9.24730E-007	0.00000E+000	-2.98531E-006	0.00000E+000	6.35640E-004	-3.27687E+002	7	...........
	453	454	3.22832E+000	-9.24476E-007	0.00000E+000	-2.98450E-006	0.00000E+000	6.34707E-004	-3.27687E+002	7	...........
	454	455	3.22834E+000	-9.24531E-007	0.00000E+000	-2.98470E-006	0.00000E+000	6.35674E-004	-3.27687E+002	7	...........
	455	456	3.22836E+000	-9.25130E-007	0.00000E+000	-2.98665E-006	0.00000E+000	6.39124E-004	-3.27687E+002	7	...........
	456	457	3.22837E+000	-9.25512E-007	0.00000E+000	-2.98790E-006	0.00000E+000	6.37824E-004	-3.27687E+002	7	...........
	457	458	3.22837E+000	-9.25686E-007	0.00000E+000	-2.98846E-006	0.00000E+000	6.38207E-004	-3.27687E+002	7	...........
	458	459	3.22839E+000	-9.26170E-007	0.00000E+000	-2.99004E-006	0.00000E+000	6.37424E-004	-3.27687E+002	7	...........
	459	460	3.22840E+000	-9.25277E-007	0.00000E+000	-2.98716E-006	0.00000E+000	6.35357E-004	-3.27687E+002	7	...........
	460	461	3.22842E+000	-9.24044E-007	0.00000E+000	-2.98320E-006	0.00000E+000	6.36474E-004	-3.27687E+002	7	...........
	461	462	3.22843E+000	-9.23258E-007	0.00000E+000	-2.98068E-006	0.00000E+000	6.37640E-004	-3.27687E+002	7	...........
	462	463	3.22843E+000	-9.24026E-007	0.00000E+000	-2.98316E-006	0.00000E+000	6.34207E-004	-3.27687E+002	7	...........
	463	464	3.22846E+000	-9.24244E-007	0.00000E+000	-2.98389E-006	0.00000E+000	6.36090E-004	-3.27687E+002	7	...........
	464	465	3.22847E+000	-9.23689E-007	0.00000E+000	-2.98210E-006	0.00000E+000	6.35674E-004	-3.27687E+002	7	...........
	465	466	3.22850E+000	-9.23712E-007	0.00000E+000	-2.98220E-006	0.00000E+000	6.34724E-004	-3.27687E+002	7	...........
	466	467	3.22850E+000	-9.22886E-007	0.00000E+000	-2.97954E-006	0.00000E+000	6.38807E-004	-3.27687E+002	7	...........
	467	468	3.22852E+000	-9.22647E-007	0.00000E+000	-2.97879E-006	0.00000E+000	6.35907E-004	-3.27687E+002	7	...........
	468	469	3.22852E+000	-9.22780E-007	0.00000E+000	-2.97921E-006	0.00000E+000	6.35674E-004	-3.27687E+002	7	...........
	469	470	3.22854E+000	-9.22987E-007	0.00000E+000	-2.97990E-006	0.00000E+000	6.32240E-004	-3.27687E+002	7	...........
	470	471	3.22856E+000	-9.22546E-007	0.00000E+000	-2.97850E-006	0.00000E+000	6.33474E-004	-3.27687E+002	7	...........
	471	472	3.22857E+000	-9.23084E-007	0.00000E+000	-2.98024E-006	0.00000E+000	6.33090E-004	-3.27687E+002	7	...........
	472	473	3.22858E+000	-9.23237E-007	0.00000E+000	-2.98075E-006	0.00000E+000	6.34540E-004	-3.27687E+002	7	...........
	473	474	3.22860E+000	-9.23012E-007	0.00000E+000	-2.98004E-006	0.00000E+000	6.33540E-004	-3.27687E+002	7	...........
	474	475	3.22861E+000	-9.22827E-007	0.00000E+000	-2.97945E-006	0.00000E+000	6.35840E-004	-3.27687E+002	7	...........
	475	476	3.22863E+000	-9.21646E-007	0.00000E+000	-2.97565E-006	0.00000E+000	6.34390E-004	-3.27687E+002	7	...........
	476	477	3.22864E+000	-9.21131E-007	0.00000E+000	-2.97400E-006	0.00000E+000	6.32374E-004	-3.27687E+002	7	...........
	477	478	3.22866E+000	-9.22032E-007	0.00000E+000	-2.97692E-006	0.00000E+000	6.33474E-004	-3.27687E+002	7	...........
	478	479	3.22866E+000	-9.22553E-007	0.00000E+000	-2.97861E-006	0.00000E+000	6.35574E-004	-3.27687E+002	7	...........
	479	480	3.22868E+000	-9.22064E-007	0.00000E+000	-2.97705E-006	0.00000E+000	6.34690E-004	-3.27687E+002	7	...........
	480	481	3.22870E+000	-9.22047E-007	0.00000E+000	-2.97701E-006	0.00000E+000	6.34857E-004	-3.27687E+002	7	...........
	481	482	3.22871E+000	-9.21867E-007	0.00000E+000	-2.97644E-006	0.00000E+000	6.35157E-004	-3.27687E+002	7	...........
	482	483	3.22873E+000	-9.21805E-007	0.00000E+000	-2.97626E-006	0.00000E+000	6.33840E-004	-3.27687E+002	7	...........
	483	484	3.22874E+000	-9.22084E-007	0.00000E+000	-2.97717E-006	0.00000E+000	6.31707E-004	-3.27687E+002	7	...........
	484	485	3.22876E+000	-9.22334E-007	0.00000E+000	-2.97799E-006	0.00000E+000	6.35924E-004	-3.27687E+002	7	...........
	485	486	3.22877E+000	-9.22666E-007	0.00000E+000	-2.97907E-006	0.00000E+000	6.34340E-004	-3.27687E+002	7	...........
	486	487	3.22879E+000	-9.22721E-007	0.00000E+000	-2.97927E-006	0.00000E+000	6.33957E-004	-3.27687E+002	7	...........
	487	488	3.22880E+000	-9.22701E-007	0.00000E+000	-2.97922E-006	0.00000E+000	6.33924E-004	-3.27687E+002	7	...........
	488	489	3.22881E+000	-9.22759E-007	0.00000E+000	-2.97942E-006	0.00000E+000	6.33524E-004	-3.27687E+002	7	...........
	489	490	3.22885E+000	-9.22388E-007	0.00000E+000	-2.97825E-006	0.00000E+000	6.34057E-004	-3.27687E+002	7	...........
	490	491	3.22885E+000	-9.22078E-007	0.00000E+000	-2.97725E-006	0.00000E+000	6.32224E-004	-3.27687E+002	7	...........
	491	492	3.22887E+000	-9.21563E-007	0.00000E+000	-2.97560E-006	0.00000E+000	6.31657E-004	-3.27687E+002	7	...........
	492	493	3.22888E+000	-9.22220E-007	0.00000E+000	-2.97774E-006	0.00000E+000	6.33090E-004	-3.27687E+002	7	...........
	493	494	3.22890E+000	-9.23105E-007	0.00000E+000	-2.98062E-006	0.00000E+000	6.31507E-004	-3.27687E+002	7	...........
	494	495	3.22892E+000	-9.22516E-007	0.00000E+000	-2.97873E-006	0.00000E+000	6.32040E-004	-3.27687E+002	7	...........
	495	496	3.22894E+000	-9.22348E-007	0.00000E+000	-2.97821E-006	0.00000E+000	6.30724E-004	-3.27687E+002	7	...........
	496	497	3.22895E+000	-9.22601E-007	0.00000E+000	-2.97903E-006	0.00000E+000	6.32990E-004	-3.27687E+002	7	...........
	497	498	3.22897E+000	-9.22738E-007	0.00000E+000	-2.97949E-006	0.00000E+000	6.32374E-004	-3.27687E+002	7	...........
	498	499	3.22898E+000	-9.22530E-007	0.00000E+000	-2.97883E-006	0.00000E+000	6.31640E-004	-3.27687E+002	7	...........
	499	500	3.22899E+000	-9.22235E-007	0.00000E+000	-2.97789E-006	0.00000E+000	6.29657E-004	-3.27687E+002	7	...........
	500	501	3.22901E+000	-9.22280E-007	0.00000E+000	-2.97805E-006	0.00000E+000	6.29157E-004	-3.27687E+002	7	...........
	501	502	3.22902E+000	-9.23086E-007	0.00000E+000	-2.98066E-006	0.00000E+000	6.30440E-004	-3.27687E+002	7	...........
	502	503	3.22904E+000	-9.22717E-007	0.00000E+000	-2.97949E-006	0.00000E+000	6.28774E-004	-3.27687E+002	7	...........
	503	504	3.22905E+000	-9.23272E-007	0.00000E+000	-2.98129E-006	0.00000E+000	6.29957E-004	-3.27687E+002	7	...........
	504	505	3.22906E+000	-9.23219E-007	0.00000E+000	-2.98113E-006	0.00000E+000	6.31357E-004	-3.27687E+002	7	...........
	505	506	3.22910E+000	-9.22529E-007	0.00000E+000	-2.97894E-006	0.00000E+000	6.30890E-004	-3.27687E+002	7	...........
	506	507	3.22910E+000	-9.21780E-007	0.00000E+000	-2.97652E-006	0.00000E+000	6.30040E-004	-3.27687E+002	7	...........
	507	508	3.22912E+000	-9.22161E-007	0.00000E+000	-2.97777E-006	0.00000E+000	6.31124E-004	-3.27687E+002	7	...........
	508	509	3.22914E+000	-9.22402E-007	0.00000E+000	-2.97857E-006	0.00000E+000	6.27857E-004	-3.27687E+002	7	...........
	509	510	3.22916E+000	-9.23223E-007	0.00000E+000	-2.98123E-006	0.00000E+000	6.28190E-004	-3.27687E+002	7	...........
	510	511	3.22917E+000	-9.22641E-007	0.00000E+000	-2.97937E-006	0.00000E+000	6.28424E-004	-3.27687E+002	7	...........
	511	512	3.22920E+000	-9.22135E-007	0.00000E+000	-2.97775E-006	0.00000E+000	6.29490E-004	-3.27687E+002	7	...........
	512	513	3.22921E+000	-9.21687E-007	0.00000E+000	-2.97632E-006	0.00000E+000	6.27557E-004	-3.27687E+002	7	...........
	513	514	3.22922E+000	-9.22549E-007	0.00000E+000	-2.97912E-006	0.00000E+000	6.27740E-004	-3.27687E+002	7	...........
	514	515	3.22924E+000	-9.22191E-007	0.00000E+000	-2.97798E-006	0.00000E+000	6.29357E-004	-3.27687E+002	7	...........
	515	516	3.22926E+000	-9.22370E-007	0.00000E+000	-2.97857E-006	0.00000E+000	6.28674E-004	-3.27687E+002	7	...........
	516	517	3.22927E+000	-9.22649E-007	0.00000E+000	-2.97948E-006	0.00000E+000	6.26757E-004	-3.27687E+002	7	...........
	517	518	3.22928E+000	-9.22187E-007	0.00000E+000	-2.97800E-006	0.00000E+000	6.26340E-004	-3.27687E+002	7	...........
	518	519	3.22931E+000	-9.21939E-007	0.00000E+000	-2.97722E-006	0.00000E+000	6.27607E-004	-3.27687E+002	7	...........
	519	520	3.22932E+000	-9.22829E-007	0.00000E+000	-2.98011E-006	0.00000E+000	6.27257E-004	-3.27687E+002	7	...........
	520	521	3.22934E+000	-9.21794E-007	0.00000E+000	-2.97678E-006	0.00000E+000	6.27240E-004	-3.27687E+002	7	...........
	521	522	3.22936E+000	-9.21422E-007	0.00000E+000	-2.97560E-006	0.00000E+000	6.26174E-004	-3.27687E+002	7	...........
	522	523	3.22936E+000	-9.21320E-007	0.00000E+000	-2.97528E-006	0.00000E+000	6.26390E-004	-3.27687E+002	7	...........
	523	524	3.22938E+000	-9.21838E-007	0.00000E+000	-2.97697E-006	0.00000E+000	6.26424E-004	-3.27687E+002	7	...........
	524	525	3.22940E+000	-9.22015E-007	0.00000E+000	-2.97755E-006	0.00000E+000	6.27974E-004	-3.27687E+002	7	...........
	525	526	3.22941E+000	-9.21977E-007	0.00000E+000	-2.97744E-006	0.00000E+000	6.25840E-004	-3.27687E+002	7	...........
	526	527	3.22944E+000	-9.21440E-007	0.00000E+000	-2.97573E-006	0.00000E+000	6.26607E-004	-3.27687E+002	7	...........
	527	528	3.22945E+000	-9.21684E-007	0.00000E+000	-2.97653E-006	0.00000E+000	6.24874E-004	-3.27687E+002	7	...........
	528	529	3.22948E+000	-9.22100E-007	0.00000E+000	-2.97790E-006	0.00000E+000	6.27174E-004	-3.27687E+002	7	...........
	529	530	3.22948E+000	-9.21905E-007	0.00000E+000	-2.97727E-006	0.00000E+000	6.28390E-004	-3.27687E+002	7	...........
	530	531	3.22949E+000	-9.21990E-007	0.00000E+000	-2.97756E-006	0.00000E+000	6.28207E-004	-3.27687E+002	7	...........
	531	532	3.22950E+000	-9.22071E-007	0.00000E+000	-2.97782E-006	0.00000E+000	6.27024E-004	-3.27687E+002	7	...........
	532	533	3.22951E+000	-9.22652E-007	0.00000E+000	-2.97972E-006	0.00000E+000	6.29357E-004	-3.27687E+002	7	...........
	533	534	3.22952E+000	-9.22645E-007	0.00000E+000	-2.97970E-006	0.00000E+000	6.28274E-004	-3.27687E+002	7	...........
	534	535	3.22954E+000	-9.22403E-007	0.00000E+000	-2.97894E-006	0.00000E+000	6.25107E-004	-3.27687E+002	7	...........
	535	536	3.22956E+000	-9.21664E-007	0.00000E+000	-2.97657E-006	0.00000E+000	6.28024E-004	-3.27687E+002	7	...........
	536	537	3.22958E+000	-9.21338E-007	0.00000E+000	-2.97554E-006	0.00000E+000	6.26274E-004	-3.27687E+002	7	...........
	537	538	3.22959E+000	-9.21108E-007	0.00000E+000	-2.97480E-006	0.00000E+000	6.27324E-004	-3.27687E+002	7	...........
	538	539	3.22961E+000	-9.22339E-007	0.00000E+000	-2.97880E-006	0.00000E+000	6.25574E-004	-3.27687E+002	7	...........
	539	540	3.22962E+000	-9.22331E-007	0.00000E+000	-2.97878E-006	0.00000E+000	6.25690E-004	-3.27687E+002	7	...........
	540	541	3.22964E+000	-9.21857E-007	0.00000E+000	-2.97726E-006	0.00000E+000	6.26124E-004	-3.27687E+002	7	...........
	541	542	3.22965E+000	-9.21466E-007	0.00000E+000	-2.97601E-006	0.00000E+000	6.28890E-004	-3.27687E+002	7	...........
	542	543	3.22967E+000	-9.21230E-007	0.00000E+000	-2.97526E-006	0.00000E+000	6.24290E-004	-3.27687E+002	7	...........
	543	544	3.22968E+000	-9.20914E-007	0.00000E+000	-2.97426E-006	0.00000E+000	6.26474E-004	-3.27687E+002	7	...........
	544	545	3.22970E+000	-9.20734E-007	0.00000E+000	-2.97369E-006	0.00000E+000	6.24057E-004	-3.27687E+002	7	...........
	545	546	3.22972E+000	-9.21132E-007	0.00000E+000	-2.97500E-006	0.00000E+000	6.26807E-004	-3.27687E+002	7	...........
	546	547	3.22972E+000	-9.20966E-007	0.00000E+000	-2.97446E-006	0.00000E+000	6.27907E-004	-3.27687E+002	7	...........
	547	548	3.22975E+000	-9.21603E-007	0.00000E+000	-2.97655E-006	0.00000E+000	6.25524E-004	-3.27687E+002	7	...........
	548	549	3.22975E+000	-9.21712E-007	0.00000E+000	-2.97690E-006	0.00000E+000	6.23574E-004	-3.27687E+002	7	...........
	549	550	3.22977E+000	-9.21504E-007	0.00000E+000	-2.97625E-006	0.00000E+000	6.24440E-004	-3.27687E+002	7	...........
	550	551	3.22979E+000	-9.20887E-007	0.00000E+000	-2.97427E-006	0.00000E+000	6.26957E-004	-3.27687E+002	7	...........
	551	552	3.22979E+000	-9.20306E-007	0.00000E+000	-2.97240E-006	0.00000E+000	6.26224E-004	-3.27687E+002	7	...........
	552	553	3.22981E+000	-9.19900E-007	0.00000E+000	-2.97110E-006	0.00000E+000	6.28107E-004	-3.27687E+002	7	...........
	553	554	3.22982E+000	-9.20925E-007	0.00000E+000	-2.97443E-006	0.00000E+000	6.24840E-004	-3.27687E+002	7	...........
	554	555	3.22985E+000	-9.20604E-007	0.00000E+000	-2.97341E-006	0.00000E+000	6.26057E-004	-3.27687E+002	7	...........
	555	556	3.22985E+000	-9.20478E-007	0.00000E+000	-2.97300E-006	0.00000E+000	6.26874E-004	-3.27687E+002	7	...........
	556	557	3.22986E+000	-9.21156E-007	0.00000E+000	-2.97520E-006	0.00000E+000	6.26107E-004	-3.27687E+002	7	...........
	557	558	3.22987E+000	-9.20683E-007	0.00000E+000	-2.97369E-006	0.00000E+000	6.26107E-004	-3.27687E+002	7	...........
	558	559	3.22988E+000	-9.20650E-007	0.00000E+000	-2.97359E-006	0.00000E+000	6.26524E-004	-3.27687E+002	7	...........
	559	560	3.22990E+000	-9.21085E-007	0.00000E+000	-2.97501E-006	0.00000E+000	6.27374E-004	-3.27687E+002	7	...........
	560	561	3.22991E+000	-9.20459E-007	0.00000E+000	-2.97300E-006	0.00000E+000	6.25707E-004	-3.27687E+002	7	...........
	561	562	3.22991E+000	-9.20675E-007	0.00000E+000	-2.97369E-006	0.00000E+000	6.27374E-004	-3.27687E+002	7	...........
	562	563	3.22993E+000	-9.20769E-007	0.00000E+000	-2.97402E-006	0.00000E+000	6.25290E-004	-3.27687E+002	7	...........
	563	564	3.22994E+000	-9.20842E-007	0.00000E+000	-2.97426E-006	0.00000E+000	6.25024E-004	-3.27687E+002	7	...........
	564	565	3.22995E+000	-9.20461E-007	0.00000E+000	-2.97305E-006	0.00000E+000	6.25457E-004	-3.27687E+002	7	...........
	565	566	3.22996E+000	-9.19852E-007	0.00000E+000	-2.97108E-006	0.00000E+000	6.26440E-004	-3.27687E+002	7	...........
	566	567	3.22998E+000	-9.19315E-007	0.00000E+000	-2.96937E-006	0.00000E+000	6.25174E-004	-3.27687E+002	7	...........
	567	568	3.22999E+000	-9.19273E-007	0.00000E+000	-2.96924E-006	0.00000E+000	6.27457E-004	-3.27687E+002	7	...........
	568	569	3.23000E+000	-9.20230E-007	0.00000E+000	-2.97234E-006	0.00000E+000	6.24374E-004	-3.27687E+002	7	...........
	569	570	3.23000E+000	-9.20259E-007	0.00000E+000	-2.97244E-006	0.00000E+000	6.25174E-004	-3.27687E+002	7	...........
	570	571	3.23001E+000	-9.19845E-007	0.00000E+000	-2.97111E-006	0.00000E+000	6.25090E-004	-3.27687E+002	7	...........
	571	572	3.23003E+000	-9.19905E-007	0.00000E+000	-2.97132E-006	0.00000E+000	6.25407E-004	-3.27687E+002	7	...........
	572	573	3.23004E+000	-9.20182E-007	0.00000E+000	-2.97223E-006	0.00000E+000	6.24707E-004	-3.27687E+002	7	...........
	573	574	3.23005E+000	-9.19518E-007	0.00000E+000	-2.97009E-006	0.00000E+000	6.23324E-004	-3.27687E+002	7	...........
	574	575	3.23007E+000	-9.19766E-007	0.00000E+000	-2.97091E-006	0.00000E+000	6.22907E-004	-3.27687E+002	7	...........
	575	576	3.23007E+000	-9.19692E-007	0.00000E+000	-2.97067E-006	0.00000E+000	6.27090E-004	-3.27687E+002	7	...........
	576	577	3.23009E+000	-9.19393E-007	0.00000E+000	-2.96972E-006	0.00000E+000	6.26490E-004	-3.27687E+002	7	...........
	577	578	3.23011E+000	-9.20476E-007	0.00000E+000	-2.97324E-006	0.00000E+000	6.25974E-004	-3.27687E+002	7	...........
	578	579	3.23011E+000	-9.19822E-007	0.00000E+000	-2.97113E-006	0.00000E+000	6.23207E-004	-3.27687E+002	7	...........
	579	580	3.23013E+000	-9.19696E-007	0.00000E+000	-2.97074E-006	0.00000E+000	6.24657E-004	-3.27687E+002	7	...........
	580	581	3.23014E+000	-9.19825E-007	0.00000E+000	-2.97116E-006	0.00000E+000	6.24357E-004	-3.27687E+002	7	...........
	581	582	3.23015E+000	-9.19092E-007	0.00000E+000	-2.96880E-006	0.00000E+000	6.24007E-004	-3.27687E+002	7	...........
	582	583	3.23016E+000	-9.18355E-007	0.00000E+000	-2.96644E-006	0.00000E+000	6.24590E-004	-3.27687E+002	7	...........
	583	584	3.23017E+000	-9.19267E-007	0.00000E+000	-2.96939E-006	0.00000E+000	6.23574E-004	-3.27687E+002	7	...........
	584	585	3.23019E+000	-9.19364E-007	0.00000E+000	-2.96972E-006	0.00000E+000	6.23124E-004	-3.27687E+002	7	...........
	585	586	3.23019E+000	-9.19304E-007	0.00000E+000	-2.96953E-006	0.00000E+000	6.23724E-004	-3.27687E+002	7	...........
	586	587	3.23020E+000	-9.19005E-007	0.00000E+000	-2.96857E-006	0.00000E+000	6.23007E-004	-3.27687E+002	7	...........
	587	588	3.23022E+000	-9.18972E-007	0.00000E+000	-2.96848E-006	0.00000E+000	6.24674E-004	-3.27687E+002	7	...........
	588	589	3.23024E+000	-9.19597E-007	0.00000E+000	-2.97052E-006	0.00000E+000	6.23290E-004	-3.27687E+002	7	...........
	589	590	3.23025E+000	-9.19690E-007	0.00000E+000	-2.97083E-006	0.00000E+000	6.22490E-004	-3.27687E+002	7	...........
	590	591	3.23026E+000	-9.20319E-007	0.00000E+000	-2.97287E-006	0.00000E+000	6.26807E-004	-3.27687E+002	7	...........
	591	592	3.23027E+000	-9.19371E-007	0.00000E+000	-2.96982E-006	0.00000E+000	6.24057E-004	-3.27687E+002	7	...........
	592	593	3.23029E+000	-9.19419E-007	0.00000E+000	-2.96999E-006	0.00000E+000	6.22057E-004	-3.27687E+002	7	...........
	593	594	3.23029E+000	-9.19914E-007	0.00000E+000	-2.97159E-006	0.00000E+000	6.22157E-004	-3.27687E+002	7	...........
	594	595	3.23030E+000	-9.19725E-007	0.00000E+000	-2.97099E-006	0.00000E+000	6.23607E-004	-3.27687E+002	7	...........
	595	596	3.23030E+000	-9.19753E-007	0.00000E+000	-2.97108E-006	0.00000E+000	6.23174E-004	-3.27687E+002	7	...........
	596	597	3.23032E+000	-9.18953E-007	0.00000E+000	-2.96851E-006	0.00000E+000	6.23590E-004	-3.27687E+002	7	...........
	597	598	3.23034E+000	-9.18461E-007	0.00000E+000	-2.96694E-006	0.00000E+000	6.23890E-004	-3.27687E+002	7	...........
	598	599	3.23036E+000	-9.19373E-007	0.00000E+000	-2.96990E-006	0.00000E+000	6.24774E-004	-3.27687E+002	7	...........
	599	600	3.23037E+000	-9.19007E-007	0.00000E+000	-2.96873E-006	0.00000E+000	6.24474E-004	-3.27687E+002	7	...........
