EXPLAIN
TAG	PWR800_READVOLTAGE
TITLE	LABEL	PWR Read Voltage	Test Identifier
DATE	LABEL	30.3.2024	Date
TIME	LABEL	10:57:04	Time
NOTES	NOTES	1	Notes...
	
PSTAT	PSTAT	REF600-12055	Potentiostat
CAPACITY	QUANT	1.00000E+000	Capacity (A-hr)
CELLTYPE	SELECTOR	1	Cell Type
WORKINGCONNECTION	SELECTOR	0	Working Connection
MAXTIME	VARIABLEANDUNITS	6.00000E+002	s	6.00000E+002	second(s)	Max Time
SAMPLETIME	QUANT	1.00000E+000	Sample Period (s)
STOPAT1	MULTIPARAM	0	0.00000E+000	Stop At 1	None	N/A
STOPAT2	MULTIPARAM	0	0.00000E+000	Stop At 2	None	N/A
AESBHCSELECTOR	TOGGLE	F	Save Both Half Cells
EOC	QUANT	3.749099	Open Circuit (V)
SEQUENCER	TOGGLE	TRUE	Run as Sequence
PSTATMODEL	IQUANT	4	Pstat Model
PSTATSECTION	LABEL	REF600-12055	Pstat Section
PSTATSERIALNO	LABEL	12055	Pstat Serial Number
CTRLMODE	IQUANT	0	Control Mode
ELECTROMETER	IQUANT	0	RE=0 or CS=1
IESTAB	IQUANT	0	I/E Stability
CASPEED	IQUANT	4	Control Amp Speed
CONVENTION	IQUANT	1	Current Convention
ICHRANGE	IQUANT	2	Ich Range
ICHRANGEMODE	TOGGLE	T	Ich Auto Range
ICHOFFSETENABLE	TOGGLE	F	Ich Offset Enable
ICHOFFSET	QUANT	0	Ich Offset (V)
ICHFILTER	IQUANT	1	Ich Filter
VCHRANGE	IQUANT	3	Vch Range
VCHRANGEMODE	TOGGLE	T	Vch Auto Range
VCHOFFSETENABLE	TOGGLE	F	Vch Offset Enable
VCHOFFSET	QUANT	0	Vch Offset (V)
VCHFILTER	IQUANT	1	Vch Filter
ACHRANGE	IQUANT	2	Ach Range
ACHOFFSETENABLE	TOGGLE	F	Ach Offset Enable
ACHOFFSET	QUANT	0	Ach Offset (V)
ACHFILTER	IQUANT	1	Ach Filter
IERANGELOWERLIMIT	IQUANT	7	I/E Range Lower Limit
IERANGEMODE	TOGGLE	F	I/E AutoRange
IERANGE	IQUANT	11	I/E Range
POSFEEDENABLE	TOGGLE	F	Positive Feedback IR Comp
POSFEEDRESISTANCE	QUANT	0	Positive Feedback Resistance (ohm)
ACHSELECT	IQUANT	4	Ach Select
SENSECABLEID	IQUANT	14	Sense Cable ID
PWRCABLEID	IQUANT	14	Power Cable ID
DCCALDATE	LABEL	2/12/2024	DC Calibration Date
ACCALDATE	LABEL	2/12/2024	AC Calibration Date
THERMOSELECT	IQUANT	1	Thermo Select
FRAMEWORKVERSION	LABEL	7.10.3	Framework Version
INSTRUMENTVERSION	LABEL	4.91	Instrument Version
COMMVERSION	LABEL	2.24	Communications Version
CPUPLDVERSION	LABEL	0.00	CPU PLD Version
CTRLPLDVERSION	LABEL	0.00	CTRL PLD Version
PSTATPLDVERSION	LABEL	0.00	PSTAT PLD Version
CURVE	TABLE	600
	Pt	T	Vf	Im	Vu	Pwr	Sig	Ach	Temp	IERange	Over
	#	s	V	A	V	W	V	V	deg C	#	bits
	0	1	3.65480E+000	-9.94741E-007	0.00000E+000	-3.63558E-006	0.00000E+000	8.97824E-004	-3.27687E+002	7	...........
	1	2	3.65501E+000	-9.95518E-007	0.00000E+000	-3.63863E-006	0.00000E+000	8.94240E-004	-3.27687E+002	7	...........
	2	3	3.65513E+000	-9.95486E-007	0.00000E+000	-3.63863E-006	0.00000E+000	8.97524E-004	-3.27687E+002	7	...........
	3	4	3.65523E+000	-9.95349E-007	0.00000E+000	-3.63823E-006	0.00000E+000	8.99457E-004	-3.27687E+002	7	...........
	4	5	3.65533E+000	-9.95840E-007	0.00000E+000	-3.64013E-006	0.00000E+000	9.00324E-004	-3.27687E+002	7	...........
	5	6	3.65542E+000	-9.95544E-007	0.00000E+000	-3.63913E-006	0.00000E+000	9.00540E-004	-3.27687E+002	7	...........
	6	7	3.65552E+000	-9.94779E-007	0.00000E+000	-3.63644E-006	0.00000E+000	9.00890E-004	-3.27687E+002	7	...........
	7	8	3.65562E+000	-9.95476E-007	0.00000E+000	-3.63909E-006	0.00000E+000	8.98607E-004	-3.27687E+002	7	...........
	8	9	3.65572E+000	-9.95860E-007	0.00000E+000	-3.64058E-006	0.00000E+000	8.99840E-004	-3.27687E+002	7	...........
	9	10	3.65583E+000	-9.96477E-007	0.00000E+000	-3.64295E-006	0.00000E+000	8.99424E-004	-3.27687E+002	7	...........
	10	11	3.65591E+000	-9.96407E-007	0.00000E+000	-3.64277E-006	0.00000E+000	8.98740E-004	-3.27687E+002	7	...........
	11	12	3.65601E+000	-9.95784E-007	0.00000E+000	-3.64060E-006	0.00000E+000	8.96440E-004	-3.27687E+002	7	...........
	12	13	3.65610E+000	-9.95926E-007	0.00000E+000	-3.64120E-006	0.00000E+000	8.97024E-004	-3.27687E+002	7	...........
	13	14	3.65619E+000	-9.96257E-007	0.00000E+000	-3.64250E-006	0.00000E+000	8.96574E-004	-3.27687E+002	7	...........
	14	15	3.65625E+000	-9.96823E-007	0.00000E+000	-3.64463E-006	0.00000E+000	8.94524E-004	-3.27687E+002	7	...........
	15	16	3.65632E+000	-9.96808E-007	0.00000E+000	-3.64465E-006	0.00000E+000	8.94707E-004	-3.27687E+002	7	...........
	16	17	3.65638E+000	-9.97067E-007	0.00000E+000	-3.64565E-006	0.00000E+000	8.93390E-004	-3.27687E+002	7	...........
	17	18	3.65643E+000	-9.97443E-007	0.00000E+000	-3.64708E-006	0.00000E+000	8.94624E-004	-3.27687E+002	7	...........
	18	19	3.65648E+000	-9.97064E-007	0.00000E+000	-3.64574E-006	0.00000E+000	8.93374E-004	-3.27687E+002	7	...........
	19	20	3.65651E+000	-9.97447E-007	0.00000E+000	-3.64717E-006	0.00000E+000	8.94340E-004	-3.27687E+002	7	...........
	20	21	3.65655E+000	-9.97568E-007	0.00000E+000	-3.64766E-006	0.00000E+000	7.22140E-004	-3.27687E+002	7	...........
	21	22	3.65659E+000	-9.96495E-007	0.00000E+000	-3.64378E-006	0.00000E+000	6.46090E-004	-3.27687E+002	7	...........
	22	23	3.65663E+000	-9.96780E-007	0.00000E+000	-3.64485E-006	0.00000E+000	6.45157E-004	-3.27687E+002	7	...........
	23	24	3.65666E+000	-9.98181E-007	0.00000E+000	-3.65001E-006	0.00000E+000	6.46574E-004	-3.27687E+002	7	...........
	24	25	3.65670E+000	-9.98405E-007	0.00000E+000	-3.65087E-006	0.00000E+000	6.46907E-004	-3.27687E+002	7	...........
	25	26	3.65673E+000	-9.98120E-007	0.00000E+000	-3.64986E-006	0.00000E+000	6.47540E-004	-3.27687E+002	7	...........
	26	27	3.65677E+000	-9.98094E-007	0.00000E+000	-3.64981E-006	0.00000E+000	6.48557E-004	-3.27687E+002	7	...........
	27	28	3.65681E+000	-9.97990E-007	0.00000E+000	-3.64946E-006	0.00000E+000	6.50974E-004	-3.27687E+002	7	...........
	28	29	3.65686E+000	-9.98241E-007	0.00000E+000	-3.65043E-006	0.00000E+000	6.48007E-004	-3.27687E+002	7	...........
	29	30	3.65690E+000	-9.98094E-007	0.00000E+000	-3.64993E-006	0.00000E+000	6.49874E-004	-3.27687E+002	7	...........
	30	31	3.65693E+000	-9.98161E-007	0.00000E+000	-3.65021E-006	0.00000E+000	6.53024E-004	-3.27687E+002	7	...........
	31	32	3.65696E+000	-9.98853E-007	0.00000E+000	-3.65277E-006	0.00000E+000	6.50540E-004	-3.27687E+002	7	...........
	32	33	3.65700E+000	-9.98790E-007	0.00000E+000	-3.65257E-006	0.00000E+000	6.52907E-004	-3.27687E+002	7	...........
	33	34	3.65704E+000	-9.98558E-007	0.00000E+000	-3.65177E-006	0.00000E+000	6.53440E-004	-3.27687E+002	7	...........
	34	35	3.65708E+000	-9.98778E-007	0.00000E+000	-3.65261E-006	0.00000E+000	6.54074E-004	-3.27687E+002	7	...........
	35	36	3.65711E+000	-9.98985E-007	0.00000E+000	-3.65340E-006	0.00000E+000	6.53874E-004	-3.27687E+002	7	...........
	36	37	3.65715E+000	-9.98710E-007	0.00000E+000	-3.65243E-006	0.00000E+000	6.52624E-004	-3.27687E+002	7	...........
	37	38	3.65719E+000	-9.98661E-007	0.00000E+000	-3.65229E-006	0.00000E+000	6.55240E-004	-3.27687E+002	7	...........
	38	39	3.65722E+000	-9.99447E-007	0.00000E+000	-3.65520E-006	0.00000E+000	6.51440E-004	-3.27687E+002	7	...........
	39	40	3.65726E+000	-9.99333E-007	0.00000E+000	-3.65483E-006	0.00000E+000	6.54607E-004	-3.27687E+002	7	...........
	40	41	3.65731E+000	-9.99514E-007	0.00000E+000	-3.65553E-006	0.00000E+000	6.54657E-004	-3.27687E+002	7	...........
	41	42	3.65734E+000	-9.99129E-007	0.00000E+000	-3.65415E-006	0.00000E+000	6.51790E-004	-3.27687E+002	7	...........
	42	43	3.65738E+000	-9.98906E-007	0.00000E+000	-3.65338E-006	0.00000E+000	6.52024E-004	-3.27687E+002	7	...........
	43	44	3.65742E+000	-9.98860E-007	0.00000E+000	-3.65325E-006	0.00000E+000	6.50757E-004	-3.27687E+002	7	...........
	44	45	3.65745E+000	-9.99222E-007	0.00000E+000	-3.65461E-006	0.00000E+000	6.50124E-004	-3.27687E+002	7	...........
	45	46	3.65751E+000	-9.99595E-007	0.00000E+000	-3.65603E-006	0.00000E+000	6.48740E-004	-3.27687E+002	7	...........
	46	47	3.65754E+000	-1.00030E-006	0.00000E+000	-3.65865E-006	0.00000E+000	6.47574E-004	-3.27687E+002	7	...........
	47	48	3.65758E+000	-1.00026E-006	0.00000E+000	-3.65853E-006	0.00000E+000	6.49624E-004	-3.27687E+002	7	...........
	48	49	3.65762E+000	-9.99968E-007	0.00000E+000	-3.65750E-006	0.00000E+000	6.45807E-004	-3.27687E+002	7	...........
	49	50	3.65766E+000	-9.99694E-007	0.00000E+000	-3.65654E-006	0.00000E+000	6.44390E-004	-3.27687E+002	7	...........
	50	51	3.65770E+000	-1.00004E-006	0.00000E+000	-3.65785E-006	0.00000E+000	6.42724E-004	-3.27687E+002	7	...........
	51	52	3.65774E+000	-1.00003E-006	0.00000E+000	-3.65783E-006	0.00000E+000	6.44690E-004	-3.27687E+002	7	...........
	52	53	3.65777E+000	-9.98939E-007	0.00000E+000	-3.65389E-006	0.00000E+000	6.43390E-004	-3.27687E+002	7	...........
	53	54	3.65781E+000	-1.00018E-006	0.00000E+000	-3.65846E-006	0.00000E+000	6.42607E-004	-3.27687E+002	7	...........
	54	55	3.65785E+000	-1.00045E-006	0.00000E+000	-3.65951E-006	0.00000E+000	6.39574E-004	-3.27687E+002	7	...........
	55	56	3.65790E+000	-1.00040E-006	0.00000E+000	-3.65935E-006	0.00000E+000	6.42290E-004	-3.27687E+002	7	...........
	56	57	3.65792E+000	-9.99993E-007	0.00000E+000	-3.65790E-006	0.00000E+000	6.36874E-004	-3.27687E+002	7	...........
	57	58	3.65795E+000	-9.99641E-007	0.00000E+000	-3.65664E-006	0.00000E+000	6.37857E-004	-3.27687E+002	7	...........
	58	59	3.65797E+000	-9.99847E-007	0.00000E+000	-3.65741E-006	0.00000E+000	6.37007E-004	-3.27687E+002	7	...........
	59	60	3.65801E+000	-1.00016E-006	0.00000E+000	-3.65858E-006	0.00000E+000	6.36490E-004	-3.27687E+002	7	...........
	60	61	3.65804E+000	-1.00018E-006	0.00000E+000	-3.65869E-006	0.00000E+000	6.37907E-004	-3.27687E+002	7	...........
	61	62	3.65806E+000	-1.00049E-006	0.00000E+000	-3.65984E-006	0.00000E+000	6.35474E-004	-3.27687E+002	7	...........
	62	63	3.65808E+000	-1.00052E-006	0.00000E+000	-3.66000E-006	0.00000E+000	6.36007E-004	-3.27687E+002	7	...........
	63	64	3.65811E+000	-1.00029E-006	0.00000E+000	-3.65919E-006	0.00000E+000	6.34090E-004	-3.27687E+002	7	...........
	64	65	3.65814E+000	-1.00062E-006	0.00000E+000	-3.66041E-006	0.00000E+000	6.34874E-004	-3.27687E+002	7	...........
	65	66	3.65817E+000	-1.00018E-006	0.00000E+000	-3.65884E-006	0.00000E+000	6.36224E-004	-3.27687E+002	7	...........
	66	67	3.65819E+000	-9.99874E-007	0.00000E+000	-3.65773E-006	0.00000E+000	6.35924E-004	-3.27687E+002	7	...........
	67	68	3.65822E+000	-9.98098E-007	0.00000E+000	-3.65126E-006	0.00000E+000	6.35557E-004	-3.27687E+002	7	...........
	68	69	3.65824E+000	-9.98808E-007	0.00000E+000	-3.65387E-006	0.00000E+000	6.36090E-004	-3.27687E+002	7	...........
	69	70	3.65826E+000	-9.99476E-007	0.00000E+000	-3.65635E-006	0.00000E+000	6.33424E-004	-3.27687E+002	7	...........
	70	71	3.65828E+000	-9.99536E-007	0.00000E+000	-3.65658E-006	0.00000E+000	6.37407E-004	-3.27687E+002	7	...........
	71	72	3.65831E+000	-9.99621E-007	0.00000E+000	-3.65692E-006	0.00000E+000	6.36924E-004	-3.27687E+002	7	...........
	72	73	3.65832E+000	-9.99245E-007	0.00000E+000	-3.65556E-006	0.00000E+000	6.34340E-004	-3.27687E+002	7	...........
	73	74	3.65834E+000	-9.99421E-007	0.00000E+000	-3.65623E-006	0.00000E+000	6.35890E-004	-3.27687E+002	7	...........
	74	75	3.65837E+000	-9.99341E-007	0.00000E+000	-3.65596E-006	0.00000E+000	6.36124E-004	-3.27687E+002	7	...........
	75	76	3.65839E+000	-9.99433E-007	0.00000E+000	-3.65631E-006	0.00000E+000	6.37757E-004	-3.27687E+002	7	...........
	76	77	3.65840E+000	-9.99435E-007	0.00000E+000	-3.65634E-006	0.00000E+000	6.40157E-004	-3.27687E+002	7	...........
	77	78	3.65842E+000	-9.99935E-007	0.00000E+000	-3.65819E-006	0.00000E+000	6.39207E-004	-3.27687E+002	7	...........
	78	79	3.65843E+000	-9.99835E-007	0.00000E+000	-3.65783E-006	0.00000E+000	6.40490E-004	-3.27687E+002	7	...........
	79	80	3.65845E+000	-9.99882E-007	0.00000E+000	-3.65802E-006	0.00000E+000	6.38724E-004	-3.27687E+002	7	...........
	80	81	3.65847E+000	-9.99667E-007	0.00000E+000	-3.65725E-006	0.00000E+000	6.39624E-004	-3.27687E+002	7	...........
	81	82	3.65849E+000	-9.99408E-007	0.00000E+000	-3.65633E-006	0.00000E+000	6.41907E-004	-3.27687E+002	7	...........
	82	83	3.65851E+000	-9.98472E-007	0.00000E+000	-3.65292E-006	0.00000E+000	6.40524E-004	-3.27687E+002	7	...........
	83	84	3.65853E+000	-9.98657E-007	0.00000E+000	-3.65361E-006	0.00000E+000	6.41840E-004	-3.27687E+002	7	...........
	84	85	3.65855E+000	-9.99687E-007	0.00000E+000	-3.65740E-006	0.00000E+000	6.42174E-004	-3.27687E+002	7	...........
	85	86	3.65857E+000	-9.99924E-007	0.00000E+000	-3.65829E-006	0.00000E+000	6.43240E-004	-3.27687E+002	7	...........
	86	87	3.65858E+000	-9.98865E-007	0.00000E+000	-3.65443E-006	0.00000E+000	6.42124E-004	-3.27687E+002	7	...........
	87	88	3.65860E+000	-9.98587E-007	0.00000E+000	-3.65343E-006	0.00000E+000	6.45407E-004	-3.27687E+002	7	...........
	88	89	3.65862E+000	-9.98624E-007	0.00000E+000	-3.65359E-006	0.00000E+000	6.45557E-004	-3.27687E+002	7	...........
	89	90	3.65864E+000	-9.98636E-007	0.00000E+000	-3.65365E-006	0.00000E+000	6.46190E-004	-3.27687E+002	7	...........
	90	91	3.65866E+000	-9.98947E-007	0.00000E+000	-3.65481E-006	0.00000E+000	6.45774E-004	-3.27687E+002	7	...........
	91	92	3.65868E+000	-9.99103E-007	0.00000E+000	-3.65540E-006	0.00000E+000	6.46157E-004	-3.27687E+002	7	...........
	92	93	3.65869E+000	-9.99344E-007	0.00000E+000	-3.65629E-006	0.00000E+000	6.46407E-004	-3.27687E+002	7	...........
	93	94	3.65871E+000	-9.99601E-007	0.00000E+000	-3.65726E-006	0.00000E+000	6.47357E-004	-3.27687E+002	7	...........
	94	95	3.65873E+000	-9.99333E-007	0.00000E+000	-3.65629E-006	0.00000E+000	6.47490E-004	-3.27687E+002	7	...........
	95	96	3.65875E+000	-9.99588E-007	0.00000E+000	-3.65724E-006	0.00000E+000	6.46674E-004	-3.27687E+002	7	...........
	96	97	3.65878E+000	-9.99571E-007	0.00000E+000	-3.65721E-006	0.00000E+000	6.47857E-004	-3.27687E+002	7	...........
	97	98	3.65878E+000	-9.99240E-007	0.00000E+000	-3.65600E-006	0.00000E+000	6.48140E-004	-3.27687E+002	7	...........
	98	99	3.65880E+000	-9.98677E-007	0.00000E+000	-3.65396E-006	0.00000E+000	6.47790E-004	-3.27687E+002	7	...........
	99	100	3.65882E+000	-9.99259E-007	0.00000E+000	-3.65611E-006	0.00000E+000	6.49424E-004	-3.27687E+002	7	...........
	100	101	3.65886E+000	-9.99224E-007	0.00000E+000	-3.65602E-006	0.00000E+000	6.49790E-004	-3.27687E+002	7	...........
	101	102	3.65888E+000	-9.99275E-007	0.00000E+000	-3.65623E-006	0.00000E+000	6.51124E-004	-3.27687E+002	7	...........
	102	103	3.65890E+000	-9.99305E-007	0.00000E+000	-3.65636E-006	0.00000E+000	6.50190E-004	-3.27687E+002	7	...........
	103	104	3.65892E+000	-9.99143E-007	0.00000E+000	-3.65579E-006	0.00000E+000	6.50040E-004	-3.27687E+002	7	...........
	104	105	3.65894E+000	-9.98964E-007	0.00000E+000	-3.65515E-006	0.00000E+000	6.48190E-004	-3.27687E+002	7	...........
	105	106	3.65897E+000	-9.99153E-007	0.00000E+000	-3.65587E-006	0.00000E+000	6.49824E-004	-3.27687E+002	7	...........
	106	107	3.65899E+000	-9.99429E-007	0.00000E+000	-3.65690E-006	0.00000E+000	6.48240E-004	-3.27687E+002	7	...........
	107	108	3.65901E+000	-9.99512E-007	0.00000E+000	-3.65722E-006	0.00000E+000	6.46990E-004	-3.27687E+002	7	...........
	108	109	3.65903E+000	-9.99654E-007	0.00000E+000	-3.65777E-006	0.00000E+000	6.49824E-004	-3.27687E+002	7	...........
	109	110	3.65905E+000	-9.99947E-007	0.00000E+000	-3.65886E-006	0.00000E+000	6.47357E-004	-3.27687E+002	7	...........
	110	111	3.65907E+000	-9.99783E-007	0.00000E+000	-3.65828E-006	0.00000E+000	6.50340E-004	-3.27687E+002	7	...........
	111	112	3.65909E+000	-9.99807E-007	0.00000E+000	-3.65838E-006	0.00000E+000	6.48107E-004	-3.27687E+002	7	...........
	112	113	3.65911E+000	-9.99322E-007	0.00000E+000	-3.65663E-006	0.00000E+000	6.50524E-004	-3.27687E+002	7	...........
	113	114	3.65915E+000	-9.98366E-007	0.00000E+000	-3.65317E-006	0.00000E+000	6.50290E-004	-3.27687E+002	7	...........
	114	115	3.65915E+000	-9.98910E-007	0.00000E+000	-3.65517E-006	0.00000E+000	6.50024E-004	-3.27687E+002	7	...........
	115	116	3.65917E+000	-9.99151E-007	0.00000E+000	-3.65606E-006	0.00000E+000	6.50574E-004	-3.27687E+002	7	...........
	116	117	3.65920E+000	-9.99135E-007	0.00000E+000	-3.65604E-006	0.00000E+000	6.48407E-004	-3.27687E+002	7	...........
	117	118	3.65922E+000	-9.99378E-007	0.00000E+000	-3.65694E-006	0.00000E+000	6.46924E-004	-3.27687E+002	7	...........
	118	119	3.65924E+000	-9.98995E-007	0.00000E+000	-3.65556E-006	0.00000E+000	6.48674E-004	-3.27687E+002	7	...........
	119	120	3.65925E+000	-9.98512E-007	0.00000E+000	-3.65380E-006	0.00000E+000	6.48140E-004	-3.27687E+002	7	...........
	120	121	3.65927E+000	-9.98783E-007	0.00000E+000	-3.65482E-006	0.00000E+000	6.47690E-004	-3.27687E+002	7	...........
	121	122	3.65929E+000	-9.99001E-007	0.00000E+000	-3.65564E-006	0.00000E+000	6.46857E-004	-3.27687E+002	7	...........
	122	123	3.65931E+000	-9.98958E-007	0.00000E+000	-3.65550E-006	0.00000E+000	6.48740E-004	-3.27687E+002	7	...........
	123	124	3.65933E+000	-9.99198E-007	0.00000E+000	-3.65639E-006	0.00000E+000	6.49790E-004	-3.27687E+002	7	...........
	124	125	3.65935E+000	-9.99063E-007	0.00000E+000	-3.65593E-006	0.00000E+000	6.49124E-004	-3.27687E+002	7	...........
	125	126	3.65937E+000	-9.99174E-007	0.00000E+000	-3.65635E-006	0.00000E+000	6.47524E-004	-3.27687E+002	7	...........
	126	127	3.65939E+000	-9.98997E-007	0.00000E+000	-3.65572E-006	0.00000E+000	6.46857E-004	-3.27687E+002	7	...........
	127	128	3.65941E+000	-9.98804E-007	0.00000E+000	-3.65503E-006	0.00000E+000	6.47374E-004	-3.27687E+002	7	...........
	128	129	3.65943E+000	-9.98189E-007	0.00000E+000	-3.65280E-006	0.00000E+000	6.47724E-004	-3.27687E+002	7	...........
	129	130	3.65944E+000	-9.98040E-007	0.00000E+000	-3.65227E-006	0.00000E+000	6.48807E-004	-3.27687E+002	7	...........
	130	131	3.65946E+000	-9.98431E-007	0.00000E+000	-3.65372E-006	0.00000E+000	6.48374E-004	-3.27687E+002	7	...........
	131	132	3.65948E+000	-9.98898E-007	0.00000E+000	-3.65544E-006	0.00000E+000	6.46274E-004	-3.27687E+002	7	...........
	132	133	3.65948E+000	-9.98916E-007	0.00000E+000	-3.65551E-006	0.00000E+000	6.47540E-004	-3.27687E+002	7	...........
	133	134	3.65949E+000	-9.98638E-007	0.00000E+000	-3.65451E-006	0.00000E+000	6.49974E-004	-3.27687E+002	7	...........
	134	135	3.65951E+000	-9.98417E-007	0.00000E+000	-3.65372E-006	0.00000E+000	6.50824E-004	-3.27687E+002	7	...........
	135	136	3.65953E+000	-9.98504E-007	0.00000E+000	-3.65406E-006	0.00000E+000	6.48140E-004	-3.27687E+002	7	...........
	136	137	3.65954E+000	-9.98793E-007	0.00000E+000	-3.65513E-006	0.00000E+000	6.48057E-004	-3.27687E+002	7	...........
	137	138	3.65956E+000	-9.98646E-007	0.00000E+000	-3.65460E-006	0.00000E+000	6.49240E-004	-3.27687E+002	7	...........
	138	139	3.65956E+000	-9.99327E-007	0.00000E+000	-3.65710E-006	0.00000E+000	6.47474E-004	-3.27687E+002	7	...........
	139	140	3.65957E+000	-9.99677E-007	0.00000E+000	-3.65839E-006	0.00000E+000	6.47724E-004	-3.27687E+002	7	...........
	140	141	3.65959E+000	-9.99397E-007	0.00000E+000	-3.65738E-006	0.00000E+000	6.48207E-004	-3.27687E+002	7	...........
	141	142	3.65959E+000	-9.99027E-007	0.00000E+000	-3.65603E-006	0.00000E+000	6.48657E-004	-3.27687E+002	7	...........
	142	143	3.65960E+000	-9.99292E-007	0.00000E+000	-3.65701E-006	0.00000E+000	6.50657E-004	-3.27687E+002	7	...........
	143	144	3.65961E+000	-9.98986E-007	0.00000E+000	-3.65590E-006	0.00000E+000	6.48007E-004	-3.27687E+002	7	...........
	144	145	3.65963E+000	-9.97883E-007	0.00000E+000	-3.65188E-006	0.00000E+000	6.49024E-004	-3.27687E+002	7	...........
	145	146	3.65963E+000	-9.98674E-007	0.00000E+000	-3.65478E-006	0.00000E+000	6.47524E-004	-3.27687E+002	7	...........
	146	147	3.65964E+000	-9.98865E-007	0.00000E+000	-3.65548E-006	0.00000E+000	6.47890E-004	-3.27687E+002	7	...........
	147	148	3.65965E+000	-9.98976E-007	0.00000E+000	-3.65590E-006	0.00000E+000	6.51257E-004	-3.27687E+002	7	...........
	148	149	3.65965E+000	-9.99058E-007	0.00000E+000	-3.65621E-006	0.00000E+000	6.48057E-004	-3.27687E+002	7	...........
	149	150	3.65966E+000	-9.98880E-007	0.00000E+000	-3.65556E-006	0.00000E+000	6.48824E-004	-3.27687E+002	7	...........
	150	151	3.65966E+000	-9.98703E-007	0.00000E+000	-3.65492E-006	0.00000E+000	6.47374E-004	-3.27687E+002	7	...........
	151	152	3.65968E+000	-9.98529E-007	0.00000E+000	-3.65430E-006	0.00000E+000	6.48974E-004	-3.27687E+002	7	...........
	152	153	3.65969E+000	-9.99212E-007	0.00000E+000	-3.65680E-006	0.00000E+000	6.48374E-004	-3.27687E+002	7	...........
	153	154	3.65969E+000	-9.99415E-007	0.00000E+000	-3.65755E-006	0.00000E+000	6.48390E-004	-3.27687E+002	7	...........
	154	155	3.65970E+000	-9.99886E-007	0.00000E+000	-3.65928E-006	0.00000E+000	6.50640E-004	-3.27687E+002	7	...........
	155	156	3.65970E+000	-1.00007E-006	0.00000E+000	-3.65996E-006	0.00000E+000	6.48740E-004	-3.27687E+002	7	...........
	156	157	3.65971E+000	-1.00013E-006	0.00000E+000	-3.66017E-006	0.00000E+000	6.48140E-004	-3.27687E+002	7	...........
	157	158	3.65971E+000	-9.99601E-007	0.00000E+000	-3.65826E-006	0.00000E+000	6.48040E-004	-3.27687E+002	7	...........
	158	159	3.65972E+000	-9.99384E-007	0.00000E+000	-3.65747E-006	0.00000E+000	6.49474E-004	-3.27687E+002	7	...........
	159	160	3.65973E+000	-9.98589E-007	0.00000E+000	-3.65456E-006	0.00000E+000	6.50840E-004	-3.27687E+002	7	...........
	160	161	3.65973E+000	-9.98699E-007	0.00000E+000	-3.65497E-006	0.00000E+000	6.51374E-004	-3.27687E+002	7	...........
	161	162	3.65974E+000	-9.98400E-007	0.00000E+000	-3.65388E-006	0.00000E+000	6.50807E-004	-3.27687E+002	7	...........
	162	163	3.65974E+000	-9.98791E-007	0.00000E+000	-3.65532E-006	0.00000E+000	6.51724E-004	-3.27687E+002	7	...........
	163	164	3.65975E+000	-9.99122E-007	0.00000E+000	-3.65654E-006	0.00000E+000	6.49340E-004	-3.27687E+002	7	...........
	164	165	3.65975E+000	-9.99150E-007	0.00000E+000	-3.65664E-006	0.00000E+000	6.51190E-004	-3.27687E+002	7	...........
	165	166	3.65976E+000	-9.99023E-007	0.00000E+000	-3.65619E-006	0.00000E+000	6.53157E-004	-3.27687E+002	7	...........
	166	167	3.65977E+000	-9.99064E-007	0.00000E+000	-3.65634E-006	0.00000E+000	6.52190E-004	-3.27687E+002	7	...........
	167	168	3.65977E+000	-9.99096E-007	0.00000E+000	-3.65646E-006	0.00000E+000	6.52024E-004	-3.27687E+002	7	...........
	168	169	3.65977E+000	-9.98823E-007	0.00000E+000	-3.65546E-006	0.00000E+000	6.50824E-004	-3.27687E+002	7	...........
	169	170	3.65978E+000	-9.99086E-007	0.00000E+000	-3.65644E-006	0.00000E+000	6.52724E-004	-3.27687E+002	7	...........
	170	171	3.65978E+000	-9.99355E-007	0.00000E+000	-3.65742E-006	0.00000E+000	6.52857E-004	-3.27687E+002	7	...........
	171	172	3.65979E+000	-9.99030E-007	0.00000E+000	-3.65624E-006	0.00000E+000	6.52124E-004	-3.27687E+002	7	...........
	172	173	3.65979E+000	-9.98566E-007	0.00000E+000	-3.65455E-006	0.00000E+000	6.52507E-004	-3.27687E+002	7	...........
	173	174	3.65979E+000	-9.98939E-007	0.00000E+000	-3.65591E-006	0.00000E+000	6.53624E-004	-3.27687E+002	7	...........
	174	175	3.65980E+000	-9.98649E-007	0.00000E+000	-3.65486E-006	0.00000E+000	6.53674E-004	-3.27687E+002	7	...........
	175	176	3.65981E+000	-9.97661E-007	0.00000E+000	-3.65125E-006	0.00000E+000	6.51924E-004	-3.27687E+002	7	...........
	176	177	3.65981E+000	-9.98581E-007	0.00000E+000	-3.65462E-006	0.00000E+000	6.53890E-004	-3.27687E+002	7	...........
	177	178	3.65982E+000	-9.98940E-007	0.00000E+000	-3.65594E-006	0.00000E+000	6.52124E-004	-3.27687E+002	7	...........
	178	179	3.65982E+000	-9.98892E-007	0.00000E+000	-3.65577E-006	0.00000E+000	6.53524E-004	-3.27687E+002	7	...........
	179	180	3.65983E+000	-9.98890E-007	0.00000E+000	-3.65577E-006	0.00000E+000	6.55824E-004	-3.27687E+002	7	...........
	180	181	3.65983E+000	-9.98575E-007	0.00000E+000	-3.65462E-006	0.00000E+000	6.52590E-004	-3.27687E+002	7	...........
	181	182	3.65983E+000	-9.98403E-007	0.00000E+000	-3.65399E-006	0.00000E+000	6.54740E-004	-3.27687E+002	7	...........
	182	183	3.65984E+000	-9.98738E-007	0.00000E+000	-3.65522E-006	0.00000E+000	6.55057E-004	-3.27687E+002	7	...........
	183	184	3.65984E+000	-9.98659E-007	0.00000E+000	-3.65494E-006	0.00000E+000	6.56590E-004	-3.27687E+002	7	...........
	184	185	3.65985E+000	-9.98877E-007	0.00000E+000	-3.65574E-006	0.00000E+000	6.56457E-004	-3.27687E+002	7	...........
	185	186	3.65985E+000	-9.99029E-007	0.00000E+000	-3.65630E-006	0.00000E+000	6.54357E-004	-3.27687E+002	7	...........
	186	187	3.65986E+000	-9.99667E-007	0.00000E+000	-3.65864E-006	0.00000E+000	6.56557E-004	-3.27687E+002	7	...........
	187	188	3.65985E+000	-9.99109E-007	0.00000E+000	-3.65659E-006	0.00000E+000	6.58257E-004	-3.27687E+002	7	...........
	188	189	3.65987E+000	-9.99391E-007	0.00000E+000	-3.65764E-006	0.00000E+000	6.61057E-004	-3.27687E+002	7	...........
	189	190	3.65987E+000	-9.98889E-007	0.00000E+000	-3.65580E-006	0.00000E+000	6.57890E-004	-3.27687E+002	7	...........
	190	191	3.65987E+000	-9.97698E-007	0.00000E+000	-3.65145E-006	0.00000E+000	6.59740E-004	-3.27687E+002	7	...........
	191	192	3.65988E+000	-9.98268E-007	0.00000E+000	-3.65354E-006	0.00000E+000	6.57307E-004	-3.27687E+002	7	...........
	192	193	3.65988E+000	-9.98683E-007	0.00000E+000	-3.65506E-006	0.00000E+000	6.59840E-004	-3.27687E+002	7	...........
	193	194	3.65989E+000	-9.98459E-007	0.00000E+000	-3.65425E-006	0.00000E+000	6.58724E-004	-3.27687E+002	7	...........
	194	195	3.65990E+000	-9.98364E-007	0.00000E+000	-3.65391E-006	0.00000E+000	6.58757E-004	-3.27687E+002	7	...........
	195	196	3.65990E+000	-9.98363E-007	0.00000E+000	-3.65391E-006	0.00000E+000	6.57874E-004	-3.27687E+002	7	...........
	196	197	3.65991E+000	-9.98283E-007	0.00000E+000	-3.65362E-006	0.00000E+000	6.60674E-004	-3.27687E+002	7	...........
	197	198	3.65991E+000	-9.98055E-007	0.00000E+000	-3.65279E-006	0.00000E+000	6.60690E-004	-3.27687E+002	7	...........
	198	199	3.65992E+000	-9.98297E-007	0.00000E+000	-3.65368E-006	0.00000E+000	6.62557E-004	-3.27687E+002	7	...........
	199	200	3.65992E+000	-9.97840E-007	0.00000E+000	-3.65202E-006	0.00000E+000	6.59457E-004	-3.27687E+002	7	...........
	200	201	3.65992E+000	-9.98491E-007	0.00000E+000	-3.65440E-006	0.00000E+000	6.58674E-004	-3.27687E+002	7	...........
	201	202	3.65993E+000	-9.98635E-007	0.00000E+000	-3.65493E-006	0.00000E+000	6.59257E-004	-3.27687E+002	7	...........
	202	203	3.65993E+000	-9.98829E-007	0.00000E+000	-3.65565E-006	0.00000E+000	6.61040E-004	-3.27687E+002	7	...........
	203	204	3.65994E+000	-9.98894E-007	0.00000E+000	-3.65589E-006	0.00000E+000	6.60624E-004	-3.27687E+002	7	...........
	204	205	3.65994E+000	-9.98812E-007	0.00000E+000	-3.65560E-006	0.00000E+000	6.60674E-004	-3.27687E+002	7	...........
	205	206	3.65995E+000	-9.98155E-007	0.00000E+000	-3.65320E-006	0.00000E+000	6.62224E-004	-3.27687E+002	7	...........
	206	207	3.65996E+000	-9.97862E-007	0.00000E+000	-3.65213E-006	0.00000E+000	6.62024E-004	-3.27687E+002	7	...........
	207	208	3.65996E+000	-9.98608E-007	0.00000E+000	-3.65487E-006	0.00000E+000	6.63557E-004	-3.27687E+002	7	...........
	208	209	3.65997E+000	-9.98334E-007	0.00000E+000	-3.65387E-006	0.00000E+000	6.61924E-004	-3.27687E+002	7	...........
	209	210	3.65997E+000	-9.98295E-007	0.00000E+000	-3.65373E-006	0.00000E+000	6.63057E-004	-3.27687E+002	7	...........
	210	211	3.65998E+000	-9.98472E-007	0.00000E+000	-3.65439E-006	0.00000E+000	6.63590E-004	-3.27687E+002	7	...........
	211	212	3.65998E+000	-9.98268E-007	0.00000E+000	-3.65365E-006	0.00000E+000	6.63440E-004	-3.27687E+002	7	...........
	212	213	3.65999E+000	-9.98595E-007	0.00000E+000	-3.65485E-006	0.00000E+000	6.62657E-004	-3.27687E+002	7	...........
	213	214	3.66000E+000	-9.98555E-007	0.00000E+000	-3.65471E-006	0.00000E+000	6.61874E-004	-3.27687E+002	7	...........
	214	215	3.66000E+000	-9.98634E-007	0.00000E+000	-3.65500E-006	0.00000E+000	6.63707E-004	-3.27687E+002	7	...........
	215	216	3.66001E+000	-9.98810E-007	0.00000E+000	-3.65566E-006	0.00000E+000	6.65307E-004	-3.27687E+002	7	...........
	216	217	3.66001E+000	-9.98877E-007	0.00000E+000	-3.65590E-006	0.00000E+000	6.63757E-004	-3.27687E+002	7	...........
	217	218	3.66001E+000	-9.99100E-007	0.00000E+000	-3.65672E-006	0.00000E+000	6.65374E-004	-3.27687E+002	7	...........
	218	219	3.66002E+000	-9.99084E-007	0.00000E+000	-3.65667E-006	0.00000E+000	6.64757E-004	-3.27687E+002	7	...........
	219	220	3.66003E+000	-9.98980E-007	0.00000E+000	-3.65630E-006	0.00000E+000	6.65107E-004	-3.27687E+002	7	...........
	220	221	3.66003E+000	-9.98787E-007	0.00000E+000	-3.65559E-006	0.00000E+000	6.67140E-004	-3.27687E+002	7	...........
	221	222	3.66003E+000	-9.97891E-007	0.00000E+000	-3.65231E-006	0.00000E+000	6.65224E-004	-3.27687E+002	7	...........
	222	223	3.66004E+000	-9.98235E-007	0.00000E+000	-3.65358E-006	0.00000E+000	6.66107E-004	-3.27687E+002	7	...........
	223	224	3.66004E+000	-9.98685E-007	0.00000E+000	-3.65523E-006	0.00000E+000	6.66107E-004	-3.27687E+002	7	...........
	224	225	3.66006E+000	-9.98926E-007	0.00000E+000	-3.65613E-006	0.00000E+000	6.65157E-004	-3.27687E+002	7	...........
	225	226	3.66007E+000	-9.98639E-007	0.00000E+000	-3.65509E-006	0.00000E+000	6.67057E-004	-3.27687E+002	7	...........
	226	227	3.66007E+000	-9.98410E-007	0.00000E+000	-3.65425E-006	0.00000E+000	6.66124E-004	-3.27687E+002	7	...........
	227	228	3.66008E+000	-9.98306E-007	0.00000E+000	-3.65388E-006	0.00000E+000	6.65907E-004	-3.27687E+002	7	...........
	228	229	3.66009E+000	-9.98401E-007	0.00000E+000	-3.65423E-006	0.00000E+000	6.67724E-004	-3.27687E+002	7	...........
	229	230	3.66010E+000	-9.98959E-007	0.00000E+000	-3.65629E-006	0.00000E+000	6.66940E-004	-3.27687E+002	7	...........
	230	231	3.66010E+000	-9.99291E-007	0.00000E+000	-3.65751E-006	0.00000E+000	6.65557E-004	-3.27687E+002	7	...........
	231	232	3.66011E+000	-9.99388E-007	0.00000E+000	-3.65787E-006	0.00000E+000	6.63324E-004	-3.27687E+002	7	...........
	232	233	3.66011E+000	-9.99603E-007	0.00000E+000	-3.65866E-006	0.00000E+000	6.65074E-004	-3.27687E+002	7	...........
	233	234	3.66012E+000	-1.00007E-006	0.00000E+000	-3.66037E-006	0.00000E+000	6.65457E-004	-3.27687E+002	7	...........
	234	235	3.66013E+000	-9.99697E-007	0.00000E+000	-3.65902E-006	0.00000E+000	6.65907E-004	-3.27687E+002	7	...........
	235	236	3.66014E+000	-9.99975E-007	0.00000E+000	-3.66004E-006	0.00000E+000	6.64440E-004	-3.27687E+002	7	...........
	236	237	3.66014E+000	-1.00004E-006	0.00000E+000	-3.66028E-006	0.00000E+000	6.68390E-004	-3.27687E+002	7	...........
	237	238	3.66016E+000	-9.99292E-007	0.00000E+000	-3.65757E-006	0.00000E+000	6.67307E-004	-3.27687E+002	7	...........
	238	239	3.66016E+000	-1.00011E-006	0.00000E+000	-3.66056E-006	0.00000E+000	6.66657E-004	-3.27687E+002	7	...........
	239	240	3.66015E+000	-1.00034E-006	0.00000E+000	-3.66141E-006	0.00000E+000	6.66640E-004	-3.27687E+002	7	...........
	240	241	3.66017E+000	-9.99828E-007	0.00000E+000	-3.65954E-006	0.00000E+000	6.65857E-004	-3.27687E+002	7	...........
	241	242	3.66017E+000	-1.00022E-006	0.00000E+000	-3.66096E-006	0.00000E+000	6.68240E-004	-3.27687E+002	7	...........
	242	243	3.66018E+000	-1.00009E-006	0.00000E+000	-3.66050E-006	0.00000E+000	6.66807E-004	-3.27687E+002	7	...........
	243	244	3.66019E+000	-9.99566E-007	0.00000E+000	-3.65860E-006	0.00000E+000	6.67007E-004	-3.27687E+002	7	...........
	244	245	3.66021E+000	-1.00009E-006	0.00000E+000	-3.66054E-006	0.00000E+000	6.66074E-004	-3.27687E+002	7	...........
	245	246	3.66021E+000	-1.00048E-006	0.00000E+000	-3.66196E-006	0.00000E+000	6.67224E-004	-3.27687E+002	7	...........
	246	247	3.66023E+000	-1.00046E-006	0.00000E+000	-3.66189E-006	0.00000E+000	6.68107E-004	-3.27687E+002	7	...........
	247	248	3.66022E+000	-1.00031E-006	0.00000E+000	-3.66134E-006	0.00000E+000	6.66440E-004	-3.27687E+002	7	...........
	248	249	3.66023E+000	-9.99874E-007	0.00000E+000	-3.65977E-006	0.00000E+000	6.66724E-004	-3.27687E+002	7	...........
	249	250	3.66023E+000	-1.00020E-006	0.00000E+000	-3.66097E-006	0.00000E+000	6.66557E-004	-3.27687E+002	7	...........
	250	251	3.66024E+000	-1.00004E-006	0.00000E+000	-3.66037E-006	0.00000E+000	6.64757E-004	-3.27687E+002	7	...........
	251	252	3.66025E+000	-1.00012E-006	0.00000E+000	-3.66068E-006	0.00000E+000	6.67007E-004	-3.27687E+002	7	...........
	252	253	3.66027E+000	-9.99697E-007	0.00000E+000	-3.65916E-006	0.00000E+000	6.68224E-004	-3.27687E+002	7	...........
	253	254	3.66027E+000	-1.00003E-006	0.00000E+000	-3.66037E-006	0.00000E+000	6.62574E-004	-3.27687E+002	7	...........
	254	255	3.66027E+000	-1.00032E-006	0.00000E+000	-3.66144E-006	0.00000E+000	6.64990E-004	-3.27687E+002	7	...........
	255	256	3.66028E+000	-1.00045E-006	0.00000E+000	-3.66194E-006	0.00000E+000	6.64824E-004	-3.27687E+002	7	...........
	256	257	3.66029E+000	-1.00005E-006	0.00000E+000	-3.66048E-006	0.00000E+000	6.66307E-004	-3.27687E+002	7	...........
	257	258	3.66030E+000	-9.99616E-007	0.00000E+000	-3.65890E-006	0.00000E+000	6.67074E-004	-3.27687E+002	7	...........
	258	259	3.66032E+000	-9.99184E-007	0.00000E+000	-3.65733E-006	0.00000E+000	6.65307E-004	-3.27687E+002	7	...........
	259	260	3.66033E+000	-9.99275E-007	0.00000E+000	-3.65767E-006	0.00000E+000	6.66690E-004	-3.27687E+002	7	...........
	260	261	3.66033E+000	-9.99870E-007	0.00000E+000	-3.65985E-006	0.00000E+000	6.65790E-004	-3.27687E+002	7	...........
	261	262	3.66034E+000	-1.00007E-006	0.00000E+000	-3.66059E-006	0.00000E+000	6.65240E-004	-3.27687E+002	7	...........
	262	263	3.66035E+000	-9.99849E-007	0.00000E+000	-3.65979E-006	0.00000E+000	6.68024E-004	-3.27687E+002	7	...........
	263	264	3.66036E+000	-9.99971E-007	0.00000E+000	-3.66025E-006	0.00000E+000	6.67440E-004	-3.27687E+002	7	...........
	264	265	3.66035E+000	-1.00024E-006	0.00000E+000	-3.66122E-006	0.00000E+000	6.66440E-004	-3.27687E+002	7	...........
	265	266	3.66036E+000	-9.99888E-007	0.00000E+000	-3.65995E-006	0.00000E+000	6.66707E-004	-3.27687E+002	7	...........
	266	267	3.66038E+000	-9.99789E-007	0.00000E+000	-3.65961E-006	0.00000E+000	6.66407E-004	-3.27687E+002	7	...........
	267	268	3.66040E+000	-9.99507E-007	0.00000E+000	-3.65859E-006	0.00000E+000	6.64840E-004	-3.27687E+002	7	...........
	268	269	3.66041E+000	-9.98438E-007	0.00000E+000	-3.65469E-006	0.00000E+000	6.66557E-004	-3.27687E+002	7	...........
	269	270	3.66041E+000	-9.99801E-007	0.00000E+000	-3.65968E-006	0.00000E+000	6.65174E-004	-3.27687E+002	7	...........
	270	271	3.66042E+000	-1.00004E-006	0.00000E+000	-3.66055E-006	0.00000E+000	6.66157E-004	-3.27687E+002	7	...........
	271	272	3.66043E+000	-9.99805E-007	0.00000E+000	-3.65971E-006	0.00000E+000	6.65357E-004	-3.27687E+002	7	...........
	272	273	3.66044E+000	-9.99796E-007	0.00000E+000	-3.65970E-006	0.00000E+000	6.62190E-004	-3.27687E+002	7	...........
	273	274	3.66045E+000	-9.99530E-007	0.00000E+000	-3.65873E-006	0.00000E+000	6.65324E-004	-3.27687E+002	7	...........
	274	275	3.66046E+000	-9.99890E-007	0.00000E+000	-3.66005E-006	0.00000E+000	6.66007E-004	-3.27687E+002	7	...........
	275	276	3.66047E+000	-9.99906E-007	0.00000E+000	-3.66013E-006	0.00000E+000	6.64190E-004	-3.27687E+002	7	...........
	276	277	3.66047E+000	-9.99741E-007	0.00000E+000	-3.65952E-006	0.00000E+000	6.64524E-004	-3.27687E+002	7	...........
	277	278	3.66048E+000	-1.00048E-006	0.00000E+000	-3.66224E-006	0.00000E+000	6.65390E-004	-3.27687E+002	7	...........
	278	279	3.66048E+000	-1.00036E-006	0.00000E+000	-3.66181E-006	0.00000E+000	6.64840E-004	-3.27687E+002	7	...........
	279	280	3.66049E+000	-1.00059E-006	0.00000E+000	-3.66266E-006	0.00000E+000	6.66907E-004	-3.27687E+002	7	...........
	280	281	3.66050E+000	-1.00099E-006	0.00000E+000	-3.66414E-006	0.00000E+000	6.66890E-004	-3.27687E+002	7	...........
	281	282	3.66051E+000	-1.00078E-006	0.00000E+000	-3.66336E-006	0.00000E+000	6.65874E-004	-3.27687E+002	7	...........
	282	283	3.66051E+000	-1.00025E-006	0.00000E+000	-3.66141E-006	0.00000E+000	6.67224E-004	-3.27687E+002	7	...........
	283	284	3.66052E+000	-9.99668E-007	0.00000E+000	-3.65931E-006	0.00000E+000	6.64924E-004	-3.27687E+002	7	...........
	284	285	3.66054E+000	-9.99377E-007	0.00000E+000	-3.65826E-006	0.00000E+000	6.66507E-004	-3.27687E+002	7	...........
	285	286	3.66055E+000	-1.00003E-006	0.00000E+000	-3.66066E-006	0.00000E+000	6.66874E-004	-3.27687E+002	7	...........
	286	287	3.66054E+000	-1.00010E-006	0.00000E+000	-3.66090E-006	0.00000E+000	6.66074E-004	-3.27687E+002	7	...........
	287	288	3.66057E+000	-9.99751E-007	0.00000E+000	-3.65966E-006	0.00000E+000	6.64174E-004	-3.27687E+002	7	...........
	288	289	3.66058E+000	-9.99652E-007	0.00000E+000	-3.65930E-006	0.00000E+000	6.66057E-004	-3.27687E+002	7	...........
	289	290	3.66060E+000	-9.99430E-007	0.00000E+000	-3.65851E-006	0.00000E+000	6.65340E-004	-3.27687E+002	7	...........
	290	291	3.66060E+000	-9.99797E-007	0.00000E+000	-3.65985E-006	0.00000E+000	6.65274E-004	-3.27687E+002	7	...........
	291	292	3.66060E+000	-9.99939E-007	0.00000E+000	-3.66038E-006	0.00000E+000	6.67440E-004	-3.27687E+002	7	...........
	292	293	3.66061E+000	-9.99790E-007	0.00000E+000	-3.65984E-006	0.00000E+000	6.64674E-004	-3.27687E+002	7	...........
	293	294	3.66062E+000	-1.00020E-006	0.00000E+000	-3.66134E-006	0.00000E+000	6.67174E-004	-3.27687E+002	7	...........
	294	295	3.66063E+000	-1.00031E-006	0.00000E+000	-3.66176E-006	0.00000E+000	6.64124E-004	-3.27687E+002	7	...........
	295	296	3.66064E+000	-1.00058E-006	0.00000E+000	-3.66276E-006	0.00000E+000	6.65874E-004	-3.27687E+002	7	...........
	296	297	3.66064E+000	-1.00053E-006	0.00000E+000	-3.66257E-006	0.00000E+000	6.64807E-004	-3.27687E+002	7	...........
	297	298	3.66065E+000	-1.00012E-006	0.00000E+000	-3.66108E-006	0.00000E+000	6.65224E-004	-3.27687E+002	7	...........
	298	299	3.66067E+000	-9.99894E-007	0.00000E+000	-3.66029E-006	0.00000E+000	6.64974E-004	-3.27687E+002	7	...........
	299	300	3.66069E+000	-9.99383E-007	0.00000E+000	-3.65843E-006	0.00000E+000	6.64040E-004	-3.27687E+002	7	...........
	300	301	3.66069E+000	-9.99641E-007	0.00000E+000	-3.65938E-006	0.00000E+000	6.63840E-004	-3.27687E+002	7	...........
	301	302	3.66070E+000	-9.99999E-007	0.00000E+000	-3.66070E-006	0.00000E+000	6.63557E-004	-3.27687E+002	7	...........
	302	303	3.66071E+000	-9.99898E-007	0.00000E+000	-3.66034E-006	0.00000E+000	6.64807E-004	-3.27687E+002	7	...........
	303	304	3.66071E+000	-1.00011E-006	0.00000E+000	-3.66110E-006	0.00000E+000	6.62590E-004	-3.27687E+002	7	...........
	304	305	3.66073E+000	-9.99189E-007	0.00000E+000	-3.65776E-006	0.00000E+000	6.63657E-004	-3.27687E+002	7	...........
	305	306	3.66073E+000	-9.99214E-007	0.00000E+000	-3.65785E-006	0.00000E+000	6.63207E-004	-3.27687E+002	7	...........
	306	307	3.66073E+000	-9.99354E-007	0.00000E+000	-3.65837E-006	0.00000E+000	6.64274E-004	-3.27687E+002	7	...........
	307	308	3.66075E+000	-9.99541E-007	0.00000E+000	-3.65907E-006	0.00000E+000	6.63307E-004	-3.27687E+002	7	...........
	308	309	3.66075E+000	-9.99738E-007	0.00000E+000	-3.65979E-006	0.00000E+000	6.61974E-004	-3.27687E+002	7	...........
	309	310	3.66077E+000	-9.99748E-007	0.00000E+000	-3.65985E-006	0.00000E+000	6.63107E-004	-3.27687E+002	7	...........
	310	311	3.66078E+000	-1.00005E-006	0.00000E+000	-3.66098E-006	0.00000E+000	6.61324E-004	-3.27687E+002	7	...........
	311	312	3.66078E+000	-1.00002E-006	0.00000E+000	-3.66083E-006	0.00000E+000	6.63957E-004	-3.27687E+002	7	...........
	312	313	3.66077E+000	-1.00004E-006	0.00000E+000	-3.66091E-006	0.00000E+000	6.64057E-004	-3.27687E+002	7	...........
	313	314	3.66080E+000	-9.99932E-007	0.00000E+000	-3.66055E-006	0.00000E+000	6.64124E-004	-3.27687E+002	7	...........
	314	315	3.66081E+000	-9.99938E-007	0.00000E+000	-3.66058E-006	0.00000E+000	6.62090E-004	-3.27687E+002	7	...........
	315	316	3.66081E+000	-9.98837E-007	0.00000E+000	-3.65656E-006	0.00000E+000	6.64607E-004	-3.27687E+002	7	...........
	316	317	3.66082E+000	-9.99883E-007	0.00000E+000	-3.66039E-006	0.00000E+000	6.63674E-004	-3.27687E+002	7	...........
	317	318	3.66083E+000	-1.00029E-006	0.00000E+000	-3.66188E-006	0.00000E+000	6.64890E-004	-3.27687E+002	7	...........
	318	319	3.66084E+000	-1.00065E-006	0.00000E+000	-3.66322E-006	0.00000E+000	6.64540E-004	-3.27687E+002	7	...........
	319	320	3.66085E+000	-1.00020E-006	0.00000E+000	-3.66159E-006	0.00000E+000	6.63857E-004	-3.27687E+002	7	...........
	320	321	3.66085E+000	-1.00013E-006	0.00000E+000	-3.66133E-006	0.00000E+000	6.64974E-004	-3.27687E+002	7	...........
	321	322	3.66088E+000	-9.99810E-007	0.00000E+000	-3.66018E-006	0.00000E+000	6.63174E-004	-3.27687E+002	7	...........
	322	323	3.66088E+000	-9.99450E-007	0.00000E+000	-3.65886E-006	0.00000E+000	6.63324E-004	-3.27687E+002	7	...........
	323	324	3.66088E+000	-9.99632E-007	0.00000E+000	-3.65953E-006	0.00000E+000	6.63024E-004	-3.27687E+002	7	...........
	324	325	3.66089E+000	-9.99778E-007	0.00000E+000	-3.66007E-006	0.00000E+000	6.62607E-004	-3.27687E+002	7	...........
	325	326	3.66091E+000	-1.00010E-006	0.00000E+000	-3.66126E-006	0.00000E+000	6.63574E-004	-3.27687E+002	7	...........
	326	327	3.66091E+000	-1.00045E-006	0.00000E+000	-3.66255E-006	0.00000E+000	6.62640E-004	-3.27687E+002	7	...........
	327	328	3.66091E+000	-1.00056E-006	0.00000E+000	-3.66298E-006	0.00000E+000	6.62024E-004	-3.27687E+002	7	...........
	328	329	3.66091E+000	-1.00042E-006	0.00000E+000	-3.66245E-006	0.00000E+000	6.61990E-004	-3.27687E+002	7	...........
	329	330	3.66093E+000	-9.99934E-007	0.00000E+000	-3.66069E-006	0.00000E+000	6.62190E-004	-3.27687E+002	7	...........
	330	331	3.66093E+000	-9.99875E-007	0.00000E+000	-3.66047E-006	0.00000E+000	6.61607E-004	-3.27687E+002	7	...........
	331	332	3.66094E+000	-9.98313E-007	0.00000E+000	-3.65477E-006	0.00000E+000	6.61040E-004	-3.27687E+002	7	...........
	332	333	3.66095E+000	-9.99477E-007	0.00000E+000	-3.65903E-006	0.00000E+000	6.60924E-004	-3.27687E+002	7	...........
	333	334	3.66096E+000	-1.00033E-006	0.00000E+000	-3.66217E-006	0.00000E+000	6.61074E-004	-3.27687E+002	7	...........
	334	335	3.66097E+000	-9.99999E-007	0.00000E+000	-3.66096E-006	0.00000E+000	6.63357E-004	-3.27687E+002	7	...........
	335	336	3.66097E+000	-1.00009E-006	0.00000E+000	-3.66131E-006	0.00000E+000	6.62357E-004	-3.27687E+002	7	...........
	336	337	3.66097E+000	-9.99560E-007	0.00000E+000	-3.65936E-006	0.00000E+000	6.61940E-004	-3.27687E+002	7	...........
	337	338	3.66098E+000	-9.99675E-007	0.00000E+000	-3.65979E-006	0.00000E+000	6.61207E-004	-3.27687E+002	7	...........
	338	339	3.66098E+000	-9.99676E-007	0.00000E+000	-3.65980E-006	0.00000E+000	6.61624E-004	-3.27687E+002	7	...........
	339	340	3.66099E+000	-9.99724E-007	0.00000E+000	-3.65998E-006	0.00000E+000	6.62174E-004	-3.27687E+002	7	...........
	340	341	3.66100E+000	-9.99961E-007	0.00000E+000	-3.66086E-006	0.00000E+000	6.62474E-004	-3.27687E+002	7	...........
	341	342	3.66101E+000	-1.00010E-006	0.00000E+000	-3.66136E-006	0.00000E+000	6.60057E-004	-3.27687E+002	7	...........
	342	343	3.66103E+000	-1.00030E-006	0.00000E+000	-3.66212E-006	0.00000E+000	6.61990E-004	-3.27687E+002	7	...........
	343	344	3.66101E+000	-1.00050E-006	0.00000E+000	-3.66283E-006	0.00000E+000	6.61774E-004	-3.27687E+002	7	...........
	344	345	3.66102E+000	-9.99883E-007	0.00000E+000	-3.66060E-006	0.00000E+000	6.60407E-004	-3.27687E+002	7	...........
	345	346	3.66104E+000	-9.99953E-007	0.00000E+000	-3.66087E-006	0.00000E+000	6.60540E-004	-3.27687E+002	7	...........
	346	347	3.66105E+000	-9.99527E-007	0.00000E+000	-3.65932E-006	0.00000E+000	6.59424E-004	-3.27687E+002	7	...........
	347	348	3.66107E+000	-9.98791E-007	0.00000E+000	-3.65664E-006	0.00000E+000	6.60974E-004	-3.27687E+002	7	...........
	348	349	3.66108E+000	-9.99875E-007	0.00000E+000	-3.66062E-006	0.00000E+000	6.60757E-004	-3.27687E+002	7	...........
	349	350	3.66108E+000	-9.99717E-007	0.00000E+000	-3.66004E-006	0.00000E+000	6.60390E-004	-3.27687E+002	7	...........
	350	351	3.66109E+000	-9.99307E-007	0.00000E+000	-3.65855E-006	0.00000E+000	6.61174E-004	-3.27687E+002	7	...........
	351	352	3.66110E+000	-9.98827E-007	0.00000E+000	-3.65680E-006	0.00000E+000	6.59674E-004	-3.27687E+002	7	...........
	352	353	3.66111E+000	-9.98972E-007	0.00000E+000	-3.65735E-006	0.00000E+000	6.59074E-004	-3.27687E+002	7	...........
	353	354	3.66110E+000	-9.99464E-007	0.00000E+000	-3.65914E-006	0.00000E+000	6.59374E-004	-3.27687E+002	7	...........
	354	355	3.66112E+000	-9.99624E-007	0.00000E+000	-3.65974E-006	0.00000E+000	6.60324E-004	-3.27687E+002	7	...........
	355	356	3.66111E+000	-9.99287E-007	0.00000E+000	-3.65851E-006	0.00000E+000	6.59274E-004	-3.27687E+002	7	...........
	356	357	3.66111E+000	-9.99482E-007	0.00000E+000	-3.65922E-006	0.00000E+000	6.59407E-004	-3.27687E+002	7	...........
	357	358	3.66113E+000	-9.99690E-007	0.00000E+000	-3.65999E-006	0.00000E+000	6.60007E-004	-3.27687E+002	7	...........
	358	359	3.66113E+000	-9.99389E-007	0.00000E+000	-3.65889E-006	0.00000E+000	6.61174E-004	-3.27687E+002	7	...........
	359	360	3.66113E+000	-9.99177E-007	0.00000E+000	-3.65812E-006	0.00000E+000	6.60190E-004	-3.27687E+002	7	...........
	360	361	3.66115E+000	-9.99088E-007	0.00000E+000	-3.65781E-006	0.00000E+000	6.61657E-004	-3.27687E+002	7	...........
	361	362	3.66115E+000	-9.99291E-007	0.00000E+000	-3.65855E-006	0.00000E+000	6.63024E-004	-3.27687E+002	7	...........
	362	363	3.66116E+000	-9.99005E-007	0.00000E+000	-3.65752E-006	0.00000E+000	6.61224E-004	-3.27687E+002	7	...........
	363	364	3.66117E+000	-9.98851E-007	0.00000E+000	-3.65696E-006	0.00000E+000	6.61357E-004	-3.27687E+002	7	...........
	364	365	3.66118E+000	-9.99875E-007	0.00000E+000	-3.66072E-006	0.00000E+000	6.58774E-004	-3.27687E+002	7	...........
	365	366	3.66118E+000	-9.99406E-007	0.00000E+000	-3.65901E-006	0.00000E+000	6.61407E-004	-3.27687E+002	7	...........
	366	367	3.66119E+000	-9.99448E-007	0.00000E+000	-3.65917E-006	0.00000E+000	6.59007E-004	-3.27687E+002	7	...........
	367	368	3.66119E+000	-9.99641E-007	0.00000E+000	-3.65988E-006	0.00000E+000	6.60724E-004	-3.27687E+002	7	...........
	368	369	3.66120E+000	-9.99854E-007	0.00000E+000	-3.66066E-006	0.00000E+000	6.59657E-004	-3.27687E+002	7	...........
	369	370	3.66118E+000	-9.99992E-007	0.00000E+000	-3.66115E-006	0.00000E+000	6.61740E-004	-3.27687E+002	7	...........
	370	371	3.66120E+000	-1.00025E-006	0.00000E+000	-3.66211E-006	0.00000E+000	6.62640E-004	-3.27687E+002	7	...........
	371	372	3.66120E+000	-1.00018E-006	0.00000E+000	-3.66184E-006	0.00000E+000	6.60090E-004	-3.27687E+002	7	...........
	372	373	3.66121E+000	-1.00025E-006	0.00000E+000	-3.66214E-006	0.00000E+000	6.60457E-004	-3.27687E+002	7	...........
	373	374	3.66121E+000	-1.00062E-006	0.00000E+000	-3.66349E-006	0.00000E+000	6.62657E-004	-3.27687E+002	7	...........
	374	375	3.66122E+000	-1.00102E-006	0.00000E+000	-3.66494E-006	0.00000E+000	6.63707E-004	-3.27687E+002	7	...........
	375	376	3.66122E+000	-1.00074E-006	0.00000E+000	-3.66393E-006	0.00000E+000	6.62407E-004	-3.27687E+002	7	...........
	376	377	3.66123E+000	-1.00019E-006	0.00000E+000	-3.66193E-006	0.00000E+000	6.61174E-004	-3.27687E+002	7	...........
	377	378	3.66125E+000	-1.00063E-006	0.00000E+000	-3.66356E-006	0.00000E+000	6.62040E-004	-3.27687E+002	7	...........
	378	379	3.66124E+000	-1.00050E-006	0.00000E+000	-3.66307E-006	0.00000E+000	6.61957E-004	-3.27687E+002	7	...........
	379	380	3.66125E+000	-1.00007E-006	0.00000E+000	-3.66150E-006	0.00000E+000	6.60974E-004	-3.27687E+002	7	...........
	380	381	3.66125E+000	-1.00086E-006	0.00000E+000	-3.66441E-006	0.00000E+000	6.61424E-004	-3.27687E+002	7	...........
	381	382	3.66125E+000	-1.00103E-006	0.00000E+000	-3.66503E-006	0.00000E+000	6.61957E-004	-3.27687E+002	7	...........
	382	383	3.66127E+000	-1.00116E-006	0.00000E+000	-3.66551E-006	0.00000E+000	6.61607E-004	-3.27687E+002	7	...........
	383	384	3.66127E+000	-1.00084E-006	0.00000E+000	-3.66433E-006	0.00000E+000	6.61324E-004	-3.27687E+002	7	...........
	384	385	3.66127E+000	-1.00088E-006	0.00000E+000	-3.66450E-006	0.00000E+000	6.60774E-004	-3.27687E+002	7	...........
	385	386	3.66127E+000	-1.00014E-006	0.00000E+000	-3.66178E-006	0.00000E+000	6.62774E-004	-3.27687E+002	7	...........
	386	387	3.66127E+000	-1.00035E-006	0.00000E+000	-3.66257E-006	0.00000E+000	6.60307E-004	-3.27687E+002	7	...........
	387	388	3.66128E+000	-1.00065E-006	0.00000E+000	-3.66366E-006	0.00000E+000	6.59974E-004	-3.27687E+002	7	...........
	388	389	3.66128E+000	-1.00085E-006	0.00000E+000	-3.66439E-006	0.00000E+000	6.61274E-004	-3.27687E+002	7	...........
	389	390	3.66129E+000	-1.00141E-006	0.00000E+000	-3.66646E-006	0.00000E+000	6.61057E-004	-3.27687E+002	7	...........
	390	391	3.66130E+000	-1.00160E-006	0.00000E+000	-3.66715E-006	0.00000E+000	6.61974E-004	-3.27687E+002	7	...........
	391	392	3.66130E+000	-1.00150E-006	0.00000E+000	-3.66679E-006	0.00000E+000	6.63807E-004	-3.27687E+002	7	...........
	392	393	3.66131E+000	-1.00146E-006	0.00000E+000	-3.66664E-006	0.00000E+000	6.60674E-004	-3.27687E+002	7	...........
	393	394	3.66131E+000	-1.00134E-006	0.00000E+000	-3.66621E-006	0.00000E+000	6.60740E-004	-3.27687E+002	7	...........
	394	395	3.66132E+000	-1.00074E-006	0.00000E+000	-3.66401E-006	0.00000E+000	6.60624E-004	-3.27687E+002	7	...........
	395	396	3.66132E+000	-1.00098E-006	0.00000E+000	-3.66490E-006	0.00000E+000	6.62707E-004	-3.27687E+002	7	...........
	396	397	3.66131E+000	-1.00147E-006	0.00000E+000	-3.66670E-006	0.00000E+000	6.60424E-004	-3.27687E+002	7	...........
	397	398	3.66132E+000	-1.00157E-006	0.00000E+000	-3.66708E-006	0.00000E+000	6.61090E-004	-3.27687E+002	7	...........
	398	399	3.66133E+000	-1.00104E-006	0.00000E+000	-3.66515E-006	0.00000E+000	6.62340E-004	-3.27687E+002	7	...........
	399	400	3.66134E+000	-1.00051E-006	0.00000E+000	-3.66320E-006	0.00000E+000	6.61207E-004	-3.27687E+002	7	...........
	400	401	3.66135E+000	-1.00027E-006	0.00000E+000	-3.66234E-006	0.00000E+000	6.61407E-004	-3.27687E+002	7	...........
	401	402	3.66134E+000	-1.00107E-006	0.00000E+000	-3.66527E-006	0.00000E+000	6.59907E-004	-3.27687E+002	7	...........
	402	403	3.66134E+000	-1.00116E-006	0.00000E+000	-3.66557E-006	0.00000E+000	6.61257E-004	-3.27687E+002	7	...........
	403	404	3.66135E+000	-1.00176E-006	0.00000E+000	-3.66781E-006	0.00000E+000	6.60724E-004	-3.27687E+002	7	...........
	404	405	3.66135E+000	-1.00184E-006	0.00000E+000	-3.66807E-006	0.00000E+000	6.61990E-004	-3.27687E+002	7	...........
	405	406	3.66136E+000	-1.00173E-006	0.00000E+000	-3.66770E-006	0.00000E+000	6.61574E-004	-3.27687E+002	7	...........
	406	407	3.66137E+000	-1.00207E-006	0.00000E+000	-3.66896E-006	0.00000E+000	6.64724E-004	-3.27687E+002	7	...........
	407	408	3.66137E+000	-1.00220E-006	0.00000E+000	-3.66942E-006	0.00000E+000	6.63024E-004	-3.27687E+002	7	...........
	408	409	3.66136E+000	-1.00188E-006	0.00000E+000	-3.66823E-006	0.00000E+000	6.61207E-004	-3.27687E+002	7	...........
	409	410	3.66137E+000	-1.00205E-006	0.00000E+000	-3.66888E-006	0.00000E+000	6.61157E-004	-3.27687E+002	7	...........
	410	411	3.66138E+000	-1.00153E-006	0.00000E+000	-3.66700E-006	0.00000E+000	6.61290E-004	-3.27687E+002	7	...........
	411	412	3.66138E+000	-1.00176E-006	0.00000E+000	-3.66781E-006	0.00000E+000	6.61440E-004	-3.27687E+002	7	...........
	412	413	3.66138E+000	-1.00234E-006	0.00000E+000	-3.66995E-006	0.00000E+000	6.58807E-004	-3.27687E+002	7	...........
	413	414	3.66139E+000	-1.00240E-006	0.00000E+000	-3.67016E-006	0.00000E+000	6.61174E-004	-3.27687E+002	7	...........
	414	415	3.66139E+000	-1.00222E-006	0.00000E+000	-3.66951E-006	0.00000E+000	6.61440E-004	-3.27687E+002	7	...........
	415	416	3.66139E+000	-1.00199E-006	0.00000E+000	-3.66869E-006	0.00000E+000	6.57424E-004	-3.27687E+002	7	...........
	416	417	3.66139E+000	-1.00164E-006	0.00000E+000	-3.66741E-006	0.00000E+000	6.59774E-004	-3.27687E+002	7	...........
	417	418	3.66141E+000	-1.00189E-006	0.00000E+000	-3.66834E-006	0.00000E+000	6.59574E-004	-3.27687E+002	7	...........
	418	419	3.66140E+000	-1.00171E-006	0.00000E+000	-3.66767E-006	0.00000E+000	6.62924E-004	-3.27687E+002	7	...........
	419	420	3.66141E+000	-1.00211E-006	0.00000E+000	-3.66914E-006	0.00000E+000	6.60657E-004	-3.27687E+002	7	...........
	420	421	3.66141E+000	-1.00227E-006	0.00000E+000	-3.66971E-006	0.00000E+000	6.62740E-004	-3.27687E+002	7	...........
	421	422	3.66142E+000	-1.00253E-006	0.00000E+000	-3.67068E-006	0.00000E+000	6.61974E-004	-3.27687E+002	7	...........
	422	423	3.66142E+000	-1.00249E-006	0.00000E+000	-3.67054E-006	0.00000E+000	6.60874E-004	-3.27687E+002	7	...........
	423	424	3.66143E+000	-1.00217E-006	0.00000E+000	-3.66939E-006	0.00000E+000	6.63140E-004	-3.27687E+002	7	...........
	424	425	3.66143E+000	-1.00270E-006	0.00000E+000	-3.67130E-006	0.00000E+000	6.63774E-004	-3.27687E+002	7	...........
	425	426	3.66143E+000	-1.00229E-006	0.00000E+000	-3.66983E-006	0.00000E+000	6.61407E-004	-3.27687E+002	7	...........
	426	427	3.66144E+000	-1.00159E-006	0.00000E+000	-3.66725E-006	0.00000E+000	6.63924E-004	-3.27687E+002	7	...........
	427	428	3.66145E+000	-1.00165E-006	0.00000E+000	-3.66749E-006	0.00000E+000	6.67607E-004	-3.27687E+002	7	...........
	428	429	3.66145E+000	-1.00261E-006	0.00000E+000	-3.67102E-006	0.00000E+000	6.63940E-004	-3.27687E+002	7	...........
	429	430	3.66145E+000	-1.00229E-006	0.00000E+000	-3.66985E-006	0.00000E+000	6.63307E-004	-3.27687E+002	7	...........
	430	431	3.66145E+000	-1.00226E-006	0.00000E+000	-3.66971E-006	0.00000E+000	6.65157E-004	-3.27687E+002	7	...........
	431	432	3.66145E+000	-1.00242E-006	0.00000E+000	-3.67032E-006	0.00000E+000	6.62474E-004	-3.27687E+002	7	...........
	432	433	3.66146E+000	-1.00210E-006	0.00000E+000	-3.66914E-006	0.00000E+000	6.63174E-004	-3.27687E+002	7	...........
	433	434	3.66146E+000	-1.00220E-006	0.00000E+000	-3.66952E-006	0.00000E+000	6.64390E-004	-3.27687E+002	7	...........
	434	435	3.66146E+000	-1.00241E-006	0.00000E+000	-3.67030E-006	0.00000E+000	6.62357E-004	-3.27687E+002	7	...........
	435	436	3.66147E+000	-1.00294E-006	0.00000E+000	-3.67223E-006	0.00000E+000	6.65440E-004	-3.27687E+002	7	...........
	436	437	3.66147E+000	-1.00300E-006	0.00000E+000	-3.67246E-006	0.00000E+000	6.62990E-004	-3.27687E+002	7	...........
	437	438	3.66148E+000	-1.00261E-006	0.00000E+000	-3.67103E-006	0.00000E+000	6.62307E-004	-3.27687E+002	7	...........
	438	439	3.66148E+000	-1.00285E-006	0.00000E+000	-3.67194E-006	0.00000E+000	6.64207E-004	-3.27687E+002	7	...........
	439	440	3.66149E+000	-1.00273E-006	0.00000E+000	-3.67147E-006	0.00000E+000	6.64157E-004	-3.27687E+002	7	...........
	440	441	3.66149E+000	-1.00238E-006	0.00000E+000	-3.67019E-006	0.00000E+000	6.65740E-004	-3.27687E+002	7	...........
	441	442	3.66148E+000	-1.00217E-006	0.00000E+000	-3.66943E-006	0.00000E+000	6.65157E-004	-3.27687E+002	7	...........
	442	443	3.66149E+000	-1.00131E-006	0.00000E+000	-3.66630E-006	0.00000E+000	6.64907E-004	-3.27687E+002	7	...........
	443	444	3.66150E+000	-1.00212E-006	0.00000E+000	-3.66925E-006	0.00000E+000	6.65357E-004	-3.27687E+002	7	...........
	444	445	3.66150E+000	-1.00221E-006	0.00000E+000	-3.66960E-006	0.00000E+000	6.64474E-004	-3.27687E+002	7	...........
	445	446	3.66149E+000	-1.00222E-006	0.00000E+000	-3.66961E-006	0.00000E+000	6.63240E-004	-3.27687E+002	7	...........
	446	447	3.66150E+000	-1.00233E-006	0.00000E+000	-3.67002E-006	0.00000E+000	6.64074E-004	-3.27687E+002	7	...........
	447	448	3.66151E+000	-1.00216E-006	0.00000E+000	-3.66943E-006	0.00000E+000	6.63290E-004	-3.27687E+002	7	...........
	448	449	3.66151E+000	-1.00218E-006	0.00000E+000	-3.66949E-006	0.00000E+000	6.64257E-004	-3.27687E+002	7	...........
	449	450	3.66152E+000	-1.00228E-006	0.00000E+000	-3.66987E-006	0.00000E+000	6.65457E-004	-3.27687E+002	7	...........
	450	451	3.66153E+000	-1.00271E-006	0.00000E+000	-3.67147E-006	0.00000E+000	6.66474E-004	-3.27687E+002	7	...........
	451	452	3.66153E+000	-1.00276E-006	0.00000E+000	-3.67164E-006	0.00000E+000	6.64224E-004	-3.27687E+002	7	...........
	452	453	3.66152E+000	-1.00355E-006	0.00000E+000	-3.67451E-006	0.00000E+000	6.63824E-004	-3.27687E+002	7	...........
	453	454	3.66153E+000	-1.00305E-006	0.00000E+000	-3.67268E-006	0.00000E+000	6.67207E-004	-3.27687E+002	7	...........
	454	455	3.66152E+000	-1.00348E-006	0.00000E+000	-3.67428E-006	0.00000E+000	6.66874E-004	-3.27687E+002	7	...........
	455	456	3.66152E+000	-1.00321E-006	0.00000E+000	-3.67329E-006	0.00000E+000	6.66224E-004	-3.27687E+002	7	...........
	456	457	3.66154E+000	-1.00298E-006	0.00000E+000	-3.67244E-006	0.00000E+000	6.65540E-004	-3.27687E+002	7	...........
	457	458	3.66154E+000	-1.00285E-006	0.00000E+000	-3.67199E-006	0.00000E+000	6.65457E-004	-3.27687E+002	7	...........
	458	459	3.66154E+000	-1.00205E-006	0.00000E+000	-3.66903E-006	0.00000E+000	6.67890E-004	-3.27687E+002	7	...........
	459	460	3.66155E+000	-1.00333E-006	0.00000E+000	-3.67375E-006	0.00000E+000	6.66774E-004	-3.27687E+002	7	...........
	460	461	3.66154E+000	-1.00350E-006	0.00000E+000	-3.67436E-006	0.00000E+000	6.64174E-004	-3.27687E+002	7	...........
	461	462	3.66156E+000	-1.00326E-006	0.00000E+000	-3.67350E-006	0.00000E+000	6.65807E-004	-3.27687E+002	7	...........
	462	463	3.66156E+000	-1.00409E-006	0.00000E+000	-3.67655E-006	0.00000E+000	6.65040E-004	-3.27687E+002	7	...........
	463	464	3.66157E+000	-1.00335E-006	0.00000E+000	-3.67384E-006	0.00000E+000	6.68540E-004	-3.27687E+002	7	...........
	464	465	3.66156E+000	-1.00337E-006	0.00000E+000	-3.67391E-006	0.00000E+000	6.66590E-004	-3.27687E+002	7	...........
	465	466	3.66157E+000	-1.00338E-006	0.00000E+000	-3.67394E-006	0.00000E+000	6.65457E-004	-3.27687E+002	7	...........
	466	467	3.66157E+000	-1.00335E-006	0.00000E+000	-3.67382E-006	0.00000E+000	6.65890E-004	-3.27687E+002	7	...........
	467	468	3.66158E+000	-1.00387E-006	0.00000E+000	-3.67573E-006	0.00000E+000	6.66590E-004	-3.27687E+002	7	...........
	468	469	3.66158E+000	-1.00406E-006	0.00000E+000	-3.67645E-006	0.00000E+000	6.68940E-004	-3.27687E+002	7	...........
	469	470	3.66158E+000	-1.00429E-006	0.00000E+000	-3.67730E-006	0.00000E+000	6.65724E-004	-3.27687E+002	7	...........
	470	471	3.66159E+000	-1.00444E-006	0.00000E+000	-3.67785E-006	0.00000E+000	6.68290E-004	-3.27687E+002	7	...........
	471	472	3.66159E+000	-1.00480E-006	0.00000E+000	-3.67917E-006	0.00000E+000	6.67574E-004	-3.27687E+002	7	...........
	472	473	3.66159E+000	-1.00400E-006	0.00000E+000	-3.67625E-006	0.00000E+000	6.69424E-004	-3.27687E+002	7	...........
	473	474	3.66159E+000	-1.00375E-006	0.00000E+000	-3.67531E-006	0.00000E+000	6.70524E-004	-3.27687E+002	7	...........
	474	475	3.66160E+000	-1.00295E-006	0.00000E+000	-3.67241E-006	0.00000E+000	6.67624E-004	-3.27687E+002	7	...........
	475	476	3.66160E+000	-1.00436E-006	0.00000E+000	-3.67755E-006	0.00000E+000	6.66090E-004	-3.27687E+002	7	...........
	476	477	3.66161E+000	-1.00450E-006	0.00000E+000	-3.67809E-006	0.00000E+000	6.68007E-004	-3.27687E+002	7	...........
	477	478	3.66161E+000	-1.00414E-006	0.00000E+000	-3.67675E-006	0.00000E+000	6.66774E-004	-3.27687E+002	7	...........
	478	479	3.66161E+000	-1.00392E-006	0.00000E+000	-3.67596E-006	0.00000E+000	6.66440E-004	-3.27687E+002	7	...........
	479	480	3.66162E+000	-1.00356E-006	0.00000E+000	-3.67463E-006	0.00000E+000	6.66657E-004	-3.27687E+002	7	...........
	480	481	3.66161E+000	-1.00375E-006	0.00000E+000	-3.67534E-006	0.00000E+000	6.66174E-004	-3.27687E+002	7	...........
	481	482	3.66162E+000	-1.00452E-006	0.00000E+000	-3.67816E-006	0.00000E+000	6.65940E-004	-3.27687E+002	7	...........
	482	483	3.66163E+000	-1.00469E-006	0.00000E+000	-3.67879E-006	0.00000E+000	6.68624E-004	-3.27687E+002	7	...........
	483	484	3.66163E+000	-1.00522E-006	0.00000E+000	-3.68073E-006	0.00000E+000	6.68657E-004	-3.27687E+002	7	...........
	484	485	3.66163E+000	-1.00546E-006	0.00000E+000	-3.68162E-006	0.00000E+000	6.68574E-004	-3.27687E+002	7	...........
	485	486	3.66163E+000	-1.00546E-006	0.00000E+000	-3.68161E-006	0.00000E+000	6.69457E-004	-3.27687E+002	7	...........
	486	487	3.66164E+000	-1.00555E-006	0.00000E+000	-3.68197E-006	0.00000E+000	6.70624E-004	-3.27687E+002	7	...........
	487	488	3.66165E+000	-1.00541E-006	0.00000E+000	-3.68144E-006	0.00000E+000	6.70790E-004	-3.27687E+002	7	...........
	488	489	3.66165E+000	-1.00503E-006	0.00000E+000	-3.68008E-006	0.00000E+000	6.70424E-004	-3.27687E+002	7	...........
	489	490	3.66165E+000	-1.00440E-006	0.00000E+000	-3.67774E-006	0.00000E+000	6.70324E-004	-3.27687E+002	7	...........
	490	491	3.66166E+000	-1.00400E-006	0.00000E+000	-3.67631E-006	0.00000E+000	6.71190E-004	-3.27687E+002	7	...........
	491	492	3.66166E+000	-1.00480E-006	0.00000E+000	-3.67925E-006	0.00000E+000	6.68457E-004	-3.27687E+002	7	...........
	492	493	3.66166E+000	-1.00508E-006	0.00000E+000	-3.68027E-006	0.00000E+000	6.68140E-004	-3.27687E+002	7	...........
	493	494	3.66166E+000	-1.00504E-006	0.00000E+000	-3.68013E-006	0.00000E+000	6.70057E-004	-3.27687E+002	7	...........
	494	495	3.66166E+000	-1.00487E-006	0.00000E+000	-3.67951E-006	0.00000E+000	6.69440E-004	-3.27687E+002	7	...........
	495	496	3.66167E+000	-1.00420E-006	0.00000E+000	-3.67704E-006	0.00000E+000	6.69707E-004	-3.27687E+002	7	...........
	496	497	3.66167E+000	-1.00438E-006	0.00000E+000	-3.67772E-006	0.00000E+000	6.68524E-004	-3.27687E+002	7	...........
	497	498	3.66167E+000	-1.00423E-006	0.00000E+000	-3.67718E-006	0.00000E+000	6.71274E-004	-3.27687E+002	7	...........
	498	499	3.66167E+000	-1.00450E-006	0.00000E+000	-3.67814E-006	0.00000E+000	6.72157E-004	-3.27687E+002	7	...........
	499	500	3.66168E+000	-1.00447E-006	0.00000E+000	-3.67806E-006	0.00000E+000	6.70074E-004	-3.27687E+002	7	...........
	500	501	3.66167E+000	-1.00439E-006	0.00000E+000	-3.67776E-006	0.00000E+000	6.68724E-004	-3.27687E+002	7	...........
	501	502	3.66168E+000	-1.00478E-006	0.00000E+000	-3.67919E-006	0.00000E+000	6.70574E-004	-3.27687E+002	7	...........
	502	503	3.66169E+000	-1.00499E-006	0.00000E+000	-3.67996E-006	0.00000E+000	6.72324E-004	-3.27687E+002	7	...........
	503	504	3.66169E+000	-1.00495E-006	0.00000E+000	-3.67981E-006	0.00000E+000	6.72990E-004	-3.27687E+002	7	...........
	504	505	3.66170E+000	-1.00455E-006	0.00000E+000	-3.67837E-006	0.00000E+000	6.72257E-004	-3.27687E+002	7	...........
	505	506	3.66170E+000	-1.00407E-006	0.00000E+000	-3.67659E-006	0.00000E+000	6.72657E-004	-3.27687E+002	7	...........
	506	507	3.66170E+000	-1.00347E-006	0.00000E+000	-3.67441E-006	0.00000E+000	6.72040E-004	-3.27687E+002	7	...........
	507	508	3.66170E+000	-1.00444E-006	0.00000E+000	-3.67795E-006	0.00000E+000	6.69440E-004	-3.27687E+002	7	...........
	508	509	3.66171E+000	-1.00439E-006	0.00000E+000	-3.67777E-006	0.00000E+000	6.73174E-004	-3.27687E+002	7	...........
	509	510	3.66170E+000	-1.00412E-006	0.00000E+000	-3.67679E-006	0.00000E+000	6.70974E-004	-3.27687E+002	7	...........
	510	511	3.66171E+000	-1.00443E-006	0.00000E+000	-3.67791E-006	0.00000E+000	6.70857E-004	-3.27687E+002	7	...........
	511	512	3.66171E+000	-1.00414E-006	0.00000E+000	-3.67686E-006	0.00000E+000	6.70357E-004	-3.27687E+002	7	...........
	512	513	3.66172E+000	-1.00434E-006	0.00000E+000	-3.67762E-006	0.00000E+000	6.71057E-004	-3.27687E+002	7	...........
	513	514	3.66170E+000	-1.00458E-006	0.00000E+000	-3.67846E-006	0.00000E+000	6.69907E-004	-3.27687E+002	7	...........
	514	515	3.66172E+000	-1.00440E-006	0.00000E+000	-3.67783E-006	0.00000E+000	6.72357E-004	-3.27687E+002	7	...........
	515	516	3.66172E+000	-1.00466E-006	0.00000E+000	-3.67878E-006	0.00000E+000	6.71390E-004	-3.27687E+002	7	...........
	516	517	3.66172E+000	-1.00474E-006	0.00000E+000	-3.67909E-006	0.00000E+000	6.71840E-004	-3.27687E+002	7	...........
	517	518	3.66172E+000	-1.00502E-006	0.00000E+000	-3.68010E-006	0.00000E+000	6.72207E-004	-3.27687E+002	7	...........
	518	519	3.66173E+000	-1.00493E-006	0.00000E+000	-3.67978E-006	0.00000E+000	6.69407E-004	-3.27687E+002	7	...........
	519	520	3.66173E+000	-1.00481E-006	0.00000E+000	-3.67933E-006	0.00000E+000	6.71557E-004	-3.27687E+002	7	...........
	520	521	3.66173E+000	-1.00482E-006	0.00000E+000	-3.67939E-006	0.00000E+000	6.71190E-004	-3.27687E+002	7	...........
	521	522	3.66174E+000	-1.00353E-006	0.00000E+000	-3.67468E-006	0.00000E+000	6.73340E-004	-3.27687E+002	7	...........
	522	523	3.66175E+000	-1.00332E-006	0.00000E+000	-3.67390E-006	0.00000E+000	6.74307E-004	-3.27687E+002	7	...........
	523	524	3.66174E+000	-1.00434E-006	0.00000E+000	-3.67762E-006	0.00000E+000	6.72624E-004	-3.27687E+002	7	...........
	524	525	3.66174E+000	-1.00389E-006	0.00000E+000	-3.67598E-006	0.00000E+000	6.72207E-004	-3.27687E+002	7	...........
	525	526	3.66175E+000	-1.00392E-006	0.00000E+000	-3.67611E-006	0.00000E+000	6.71440E-004	-3.27687E+002	7	...........
	526	527	3.66175E+000	-1.00376E-006	0.00000E+000	-3.67553E-006	0.00000E+000	6.72840E-004	-3.27687E+002	7	...........
	527	528	3.66175E+000	-1.00403E-006	0.00000E+000	-3.67651E-006	0.00000E+000	6.74657E-004	-3.27687E+002	7	...........
	528	529	3.66175E+000	-1.00412E-006	0.00000E+000	-3.67685E-006	0.00000E+000	6.72107E-004	-3.27687E+002	7	...........
	529	530	3.66176E+000	-1.00392E-006	0.00000E+000	-3.67609E-006	0.00000E+000	6.74307E-004	-3.27687E+002	7	...........
	530	531	3.66177E+000	-1.00439E-006	0.00000E+000	-3.67783E-006	0.00000E+000	6.73607E-004	-3.27687E+002	7	...........
	531	532	3.66177E+000	-1.00385E-006	0.00000E+000	-3.67586E-006	0.00000E+000	6.74574E-004	-3.27687E+002	7	...........
	532	533	3.66177E+000	-1.00385E-006	0.00000E+000	-3.67588E-006	0.00000E+000	6.75507E-004	-3.27687E+002	7	...........
	533	534	3.66178E+000	-1.00398E-006	0.00000E+000	-3.67636E-006	0.00000E+000	6.75074E-004	-3.27687E+002	7	...........
	534	535	3.66178E+000	-1.00439E-006	0.00000E+000	-3.67786E-006	0.00000E+000	6.75174E-004	-3.27687E+002	7	...........
	535	536	3.66178E+000	-1.00432E-006	0.00000E+000	-3.67760E-006	0.00000E+000	6.75440E-004	-3.27687E+002	7	...........
	536	537	3.66177E+000	-1.00384E-006	0.00000E+000	-3.67584E-006	0.00000E+000	6.73707E-004	-3.27687E+002	7	...........
	537	538	3.66178E+000	-1.00332E-006	0.00000E+000	-3.67395E-006	0.00000E+000	6.73207E-004	-3.27687E+002	7	...........
	538	539	3.66178E+000	-1.00323E-006	0.00000E+000	-3.67361E-006	0.00000E+000	6.73524E-004	-3.27687E+002	7	...........
	539	540	3.66179E+000	-1.00360E-006	0.00000E+000	-3.67495E-006	0.00000E+000	6.73757E-004	-3.27687E+002	7	...........
	540	541	3.66180E+000	-1.00394E-006	0.00000E+000	-3.67625E-006	0.00000E+000	6.74674E-004	-3.27687E+002	7	...........
	541	542	3.66181E+000	-1.00431E-006	0.00000E+000	-3.67757E-006	0.00000E+000	6.74307E-004	-3.27687E+002	7	...........
	542	543	3.66180E+000	-1.00394E-006	0.00000E+000	-3.67623E-006	0.00000E+000	6.73557E-004	-3.27687E+002	7	...........
	543	544	3.66181E+000	-1.00353E-006	0.00000E+000	-3.67474E-006	0.00000E+000	6.71640E-004	-3.27687E+002	7	...........
	544	545	3.66181E+000	-1.00341E-006	0.00000E+000	-3.67431E-006	0.00000E+000	6.72590E-004	-3.27687E+002	7	...........
	545	546	3.66181E+000	-1.00348E-006	0.00000E+000	-3.67455E-006	0.00000E+000	6.73157E-004	-3.27687E+002	7	...........
	546	547	3.66182E+000	-1.00322E-006	0.00000E+000	-3.67362E-006	0.00000E+000	6.73040E-004	-3.27687E+002	7	...........
	547	548	3.66181E+000	-1.00338E-006	0.00000E+000	-3.67418E-006	0.00000E+000	6.74540E-004	-3.27687E+002	7	...........
	548	549	3.66181E+000	-1.00396E-006	0.00000E+000	-3.67632E-006	0.00000E+000	6.73740E-004	-3.27687E+002	7	...........
	549	550	3.66182E+000	-1.00350E-006	0.00000E+000	-3.67465E-006	0.00000E+000	6.72707E-004	-3.27687E+002	7	...........
	550	551	3.66183E+000	-1.00373E-006	0.00000E+000	-3.67549E-006	0.00000E+000	6.73457E-004	-3.27687E+002	7	...........
	551	552	3.66183E+000	-1.00343E-006	0.00000E+000	-3.67441E-006	0.00000E+000	6.74024E-004	-3.27687E+002	7	...........
	552	553	3.66183E+000	-1.00338E-006	0.00000E+000	-3.67419E-006	0.00000E+000	6.73057E-004	-3.27687E+002	7	...........
	553	554	3.66183E+000	-1.00274E-006	0.00000E+000	-3.67184E-006	0.00000E+000	6.76640E-004	-3.27687E+002	7	...........
	554	555	3.66183E+000	-1.00267E-006	0.00000E+000	-3.67162E-006	0.00000E+000	6.74507E-004	-3.27687E+002	7	...........
	555	556	3.66184E+000	-1.00362E-006	0.00000E+000	-3.67508E-006	0.00000E+000	6.73857E-004	-3.27687E+002	7	...........
	556	557	3.66184E+000	-1.00351E-006	0.00000E+000	-3.67471E-006	0.00000E+000	6.76074E-004	-3.27687E+002	7	...........
	557	558	3.66184E+000	-1.00372E-006	0.00000E+000	-3.67545E-006	0.00000E+000	6.75974E-004	-3.27687E+002	7	...........
	558	559	3.66186E+000	-1.00308E-006	0.00000E+000	-3.67315E-006	0.00000E+000	6.77174E-004	-3.27687E+002	7	...........
	559	560	3.66185E+000	-1.00289E-006	0.00000E+000	-3.67242E-006	0.00000E+000	6.75674E-004	-3.27687E+002	7	...........
	560	561	3.66186E+000	-1.00295E-006	0.00000E+000	-3.67267E-006	0.00000E+000	6.73407E-004	-3.27687E+002	7	...........
	561	562	3.66187E+000	-1.00335E-006	0.00000E+000	-3.67414E-006	0.00000E+000	6.75807E-004	-3.27687E+002	7	...........
	562	563	3.66186E+000	-1.00367E-006	0.00000E+000	-3.67529E-006	0.00000E+000	6.75590E-004	-3.27687E+002	7	...........
	563	564	3.66188E+000	-1.00392E-006	0.00000E+000	-3.67624E-006	0.00000E+000	6.76674E-004	-3.27687E+002	7	...........
	564	565	3.66188E+000	-1.00406E-006	0.00000E+000	-3.67675E-006	0.00000E+000	6.76274E-004	-3.27687E+002	7	...........
	565	566	3.66188E+000	-1.00398E-006	0.00000E+000	-3.67645E-006	0.00000E+000	6.75207E-004	-3.27687E+002	7	...........
	566	567	3.66188E+000	-1.00400E-006	0.00000E+000	-3.67652E-006	0.00000E+000	6.76357E-004	-3.27687E+002	7	...........
	567	568	3.66188E+000	-1.00392E-006	0.00000E+000	-3.67623E-006	0.00000E+000	6.74857E-004	-3.27687E+002	7	...........
	568	569	3.66189E+000	-1.00355E-006	0.00000E+000	-3.67490E-006	0.00000E+000	6.74140E-004	-3.27687E+002	7	...........
	569	570	3.66189E+000	-1.00303E-006	0.00000E+000	-3.67297E-006	0.00000E+000	6.75540E-004	-3.27687E+002	7	...........
	570	571	3.66190E+000	-1.00293E-006	0.00000E+000	-3.67264E-006	0.00000E+000	6.76007E-004	-3.27687E+002	7	...........
	571	572	3.66190E+000	-1.00395E-006	0.00000E+000	-3.67638E-006	0.00000E+000	6.76940E-004	-3.27687E+002	7	...........
	572	573	3.66190E+000	-1.00386E-006	0.00000E+000	-3.67604E-006	0.00000E+000	6.76224E-004	-3.27687E+002	7	...........
	573	574	3.66190E+000	-1.00341E-006	0.00000E+000	-3.67438E-006	0.00000E+000	6.75990E-004	-3.27687E+002	7	...........
	574	575	3.66190E+000	-1.00340E-006	0.00000E+000	-3.67435E-006	0.00000E+000	6.76824E-004	-3.27687E+002	7	...........
	575	576	3.66191E+000	-1.00293E-006	0.00000E+000	-3.67262E-006	0.00000E+000	6.75874E-004	-3.27687E+002	7	...........
	576	577	3.66191E+000	-1.00289E-006	0.00000E+000	-3.67251E-006	0.00000E+000	6.78740E-004	-3.27687E+002	7	...........
	577	578	3.66191E+000	-1.00372E-006	0.00000E+000	-3.67555E-006	0.00000E+000	6.77607E-004	-3.27687E+002	7	...........
	578	579	3.66191E+000	-1.00385E-006	0.00000E+000	-3.67601E-006	0.00000E+000	6.78390E-004	-3.27687E+002	7	...........
	579	580	3.66191E+000	-1.00387E-006	0.00000E+000	-3.67607E-006	0.00000E+000	6.78707E-004	-3.27687E+002	7	...........
	580	581	3.66192E+000	-1.00405E-006	0.00000E+000	-3.67676E-006	0.00000E+000	6.78990E-004	-3.27687E+002	7	...........
	581	582	3.66191E+000	-1.00481E-006	0.00000E+000	-3.67951E-006	0.00000E+000	6.74757E-004	-3.27687E+002	7	...........
	582	583	3.66192E+000	-1.00417E-006	0.00000E+000	-3.67721E-006	0.00000E+000	6.75274E-004	-3.27687E+002	7	...........
	583	584	3.66192E+000	-1.00428E-006	0.00000E+000	-3.67761E-006	0.00000E+000	6.77874E-004	-3.27687E+002	7	...........
	584	585	3.66193E+000	-1.00361E-006	0.00000E+000	-3.67516E-006	0.00000E+000	6.76024E-004	-3.27687E+002	7	...........
	585	586	3.66192E+000	-1.00300E-006	0.00000E+000	-3.67289E-006	0.00000E+000	6.79207E-004	-3.27687E+002	7	...........
	586	587	3.66193E+000	-1.00299E-006	0.00000E+000	-3.67286E-006	0.00000E+000	6.77774E-004	-3.27687E+002	7	...........
	587	588	3.66193E+000	-1.00375E-006	0.00000E+000	-3.67565E-006	0.00000E+000	6.77424E-004	-3.27687E+002	7	...........
	588	589	3.66193E+000	-1.00368E-006	0.00000E+000	-3.67542E-006	0.00000E+000	6.78074E-004	-3.27687E+002	7	...........
	589	590	3.66194E+000	-1.00412E-006	0.00000E+000	-3.67704E-006	0.00000E+000	6.76940E-004	-3.27687E+002	7	...........
	590	591	3.66195E+000	-1.00420E-006	0.00000E+000	-3.67733E-006	0.00000E+000	6.75774E-004	-3.27687E+002	7	...........
	591	592	3.66194E+000	-1.00341E-006	0.00000E+000	-3.67443E-006	0.00000E+000	6.77707E-004	-3.27687E+002	7	...........
	592	593	3.66194E+000	-1.00369E-006	0.00000E+000	-3.67545E-006	0.00000E+000	6.78007E-004	-3.27687E+002	7	...........
	593	594	3.66194E+000	-1.00362E-006	0.00000E+000	-3.67521E-006	0.00000E+000	6.78007E-004	-3.27687E+002	7	...........
	594	595	3.66194E+000	-1.00389E-006	0.00000E+000	-3.67619E-006	0.00000E+000	6.76890E-004	-3.27687E+002	7	...........
	595	596	3.66194E+000	-1.00373E-006	0.00000E+000	-3.67562E-006	0.00000E+000	6.76040E-004	-3.27687E+002	7	...........
	596	597	3.66195E+000	-1.00432E-006	0.00000E+000	-3.67778E-006	0.00000E+000	6.76690E-004	-3.27687E+002	7	...........
	597	598	3.66196E+000	-1.00407E-006	0.00000E+000	-3.67685E-006	0.00000E+000	6.75707E-004	-3.27687E+002	7	...........
	598	599	3.66196E+000	-1.00451E-006	0.00000E+000	-3.67847E-006	0.00000E+000	6.78407E-004	-3.27687E+002	7	...........
	599	600	3.66196E+000	-1.00439E-006	0.00000E+000	-3.67804E-006	0.00000E+000	6.77657E-004	-3.27687E+002	7	...........
