EXPLAIN
TAG	PWR800_READVOLTAGE
TITLE	LABEL	PWR Read Voltage	Test Identifier
DATE	LABEL	30.3.2024	Date
TIME	LABEL	9:32:35	Time
NOTES	NOTES	1	Notes...
	
PSTAT	PSTAT	REF600-12055	Potentiostat
CAPACITY	QUANT	1.00000E+000	Capacity (A-hr)
CELLTYPE	SELECTOR	1	Cell Type
WORKINGCONNECTION	SELECTOR	0	Working Connection
MAXTIME	VARIABLEANDUNITS	6.00000E+002	s	6.00000E+002	second(s)	Max Time
SAMPLETIME	QUANT	1.00000E+000	Sample Period (s)
STOPAT1	MULTIPARAM	0	0.00000E+000	Stop At 1	None	N/A
STOPAT2	MULTIPARAM	0	0.00000E+000	Stop At 2	None	N/A
AESBHCSELECTOR	TOGGLE	F	Save Both Half Cells
EOC	QUANT	3.857408	Open Circuit (V)
SEQUENCER	TOGGLE	TRUE	Run as Sequence
PSTATMODEL	IQUANT	4	Pstat Model
PSTATSECTION	LABEL	REF600-12055	Pstat Section
PSTATSERIALNO	LABEL	12055	Pstat Serial Number
CTRLMODE	IQUANT	0	Control Mode
ELECTROMETER	IQUANT	0	RE=0 or CS=1
IESTAB	IQUANT	0	I/E Stability
CASPEED	IQUANT	4	Control Amp Speed
CONVENTION	IQUANT	1	Current Convention
ICHRANGE	IQUANT	2	Ich Range
ICHRANGEMODE	TOGGLE	T	Ich Auto Range
ICHOFFSETENABLE	TOGGLE	F	Ich Offset Enable
ICHOFFSET	QUANT	0	Ich Offset (V)
ICHFILTER	IQUANT	1	Ich Filter
VCHRANGE	IQUANT	3	Vch Range
VCHRANGEMODE	TOGGLE	T	Vch Auto Range
VCHOFFSETENABLE	TOGGLE	F	Vch Offset Enable
VCHOFFSET	QUANT	0	Vch Offset (V)
VCHFILTER	IQUANT	1	Vch Filter
ACHRANGE	IQUANT	2	Ach Range
ACHOFFSETENABLE	TOGGLE	F	Ach Offset Enable
ACHOFFSET	QUANT	0	Ach Offset (V)
ACHFILTER	IQUANT	1	Ach Filter
IERANGELOWERLIMIT	IQUANT	7	I/E Range Lower Limit
IERANGEMODE	TOGGLE	F	I/E AutoRange
IERANGE	IQUANT	11	I/E Range
POSFEEDENABLE	TOGGLE	F	Positive Feedback IR Comp
POSFEEDRESISTANCE	QUANT	0	Positive Feedback Resistance (ohm)
ACHSELECT	IQUANT	4	Ach Select
SENSECABLEID	IQUANT	14	Sense Cable ID
PWRCABLEID	IQUANT	14	Power Cable ID
DCCALDATE	LABEL	2/12/2024	DC Calibration Date
ACCALDATE	LABEL	2/12/2024	AC Calibration Date
THERMOSELECT	IQUANT	1	Thermo Select
FRAMEWORKVERSION	LABEL	7.10.3	Framework Version
INSTRUMENTVERSION	LABEL	4.91	Instrument Version
COMMVERSION	LABEL	2.24	Communications Version
CPUPLDVERSION	LABEL	0.00	CPU PLD Version
CTRLPLDVERSION	LABEL	0.00	CTRL PLD Version
PSTATPLDVERSION	LABEL	0.00	PSTAT PLD Version
CURVE	TABLE	600
	Pt	T	Vf	Im	Vu	Pwr	Sig	Ach	Temp	IERange	Over
	#	s	V	A	V	W	V	V	deg C	#	bits
	0	1	3.74196E+000	-1.81372E-006	0.00000E+000	-6.78687E-006	0.00000E+000	9.19640E-004	-3.27687E+002	7	...........
	1	2	3.74219E+000	-1.81265E-006	0.00000E+000	-6.78329E-006	0.00000E+000	9.17457E-004	-3.27687E+002	7	...........
	2	3	3.74237E+000	-1.81218E-006	0.00000E+000	-6.78184E-006	0.00000E+000	9.15440E-004	-3.27687E+002	7	...........
	3	4	3.74251E+000	-1.81079E-006	0.00000E+000	-6.77688E-006	0.00000E+000	9.15907E-004	-3.27687E+002	7	...........
	4	5	3.74263E+000	-1.81024E-006	0.00000E+000	-6.77506E-006	0.00000E+000	9.13424E-004	-3.27687E+002	7	...........
	5	6	3.74273E+000	-1.80987E-006	0.00000E+000	-6.77387E-006	0.00000E+000	9.13040E-004	-3.27687E+002	7	...........
	6	7	3.74281E+000	-1.80949E-006	0.00000E+000	-6.77258E-006	0.00000E+000	9.15590E-004	-3.27687E+002	7	...........
	7	8	3.74288E+000	-1.80910E-006	0.00000E+000	-6.77124E-006	0.00000E+000	9.14340E-004	-3.27687E+002	7	...........
	8	9	3.74293E+000	-1.80905E-006	0.00000E+000	-6.77116E-006	0.00000E+000	9.15907E-004	-3.27687E+002	7	...........
	9	10	3.74297E+000	-1.80845E-006	0.00000E+000	-6.76897E-006	0.00000E+000	9.16690E-004	-3.27687E+002	7	...........
	10	11	3.74301E+000	-1.80811E-006	0.00000E+000	-6.76779E-006	0.00000E+000	9.18957E-004	-3.27687E+002	7	...........
	11	12	3.74304E+000	-1.80792E-006	0.00000E+000	-6.76711E-006	0.00000E+000	9.18890E-004	-3.27687E+002	7	...........
	12	13	3.74307E+000	-1.80721E-006	0.00000E+000	-6.76452E-006	0.00000E+000	9.16624E-004	-3.27687E+002	7	...........
	13	14	3.74310E+000	-1.80688E-006	0.00000E+000	-6.76332E-006	0.00000E+000	9.18340E-004	-3.27687E+002	7	...........
	14	15	3.74313E+000	-1.80525E-006	0.00000E+000	-6.75728E-006	0.00000E+000	9.19374E-004	-3.27687E+002	7	...........
	15	16	3.74316E+000	-1.80469E-006	0.00000E+000	-6.75527E-006	0.00000E+000	9.21174E-004	-3.27687E+002	7	...........
	16	17	3.74320E+000	-1.80489E-006	0.00000E+000	-6.75607E-006	0.00000E+000	9.21024E-004	-3.27687E+002	7	...........
	17	18	3.74324E+000	-1.80442E-006	0.00000E+000	-6.75436E-006	0.00000E+000	9.22807E-004	-3.27687E+002	7	...........
	18	19	3.74328E+000	-1.80407E-006	0.00000E+000	-6.75315E-006	0.00000E+000	9.23107E-004	-3.27687E+002	7	...........
	19	20	3.74331E+000	-1.80350E-006	0.00000E+000	-6.75107E-006	0.00000E+000	9.24407E-004	-3.27687E+002	7	...........
	20	21	3.74336E+000	-1.80292E-006	0.00000E+000	-6.74896E-006	0.00000E+000	7.57257E-004	-3.27687E+002	7	...........
	21	22	3.74341E+000	-1.80207E-006	0.00000E+000	-6.74590E-006	0.00000E+000	6.80490E-004	-3.27687E+002	7	...........
	22	23	3.74346E+000	-1.80159E-006	0.00000E+000	-6.74418E-006	0.00000E+000	6.80257E-004	-3.27687E+002	7	...........
	23	24	3.74352E+000	-1.80144E-006	0.00000E+000	-6.74374E-006	0.00000E+000	6.80374E-004	-3.27687E+002	7	...........
	24	25	3.74358E+000	-1.80097E-006	0.00000E+000	-6.74206E-006	0.00000E+000	6.78507E-004	-3.27687E+002	7	...........
	25	26	3.74364E+000	-1.80059E-006	0.00000E+000	-6.74075E-006	0.00000E+000	6.79190E-004	-3.27687E+002	7	...........
	26	27	3.74371E+000	-1.80029E-006	0.00000E+000	-6.73976E-006	0.00000E+000	6.78174E-004	-3.27687E+002	7	...........
	27	28	3.74378E+000	-1.79993E-006	0.00000E+000	-6.73854E-006	0.00000E+000	6.75507E-004	-3.27687E+002	7	...........
	28	29	3.74385E+000	-1.79945E-006	0.00000E+000	-6.73686E-006	0.00000E+000	6.76807E-004	-3.27687E+002	7	...........
	29	30	3.74390E+000	-1.79868E-006	0.00000E+000	-6.73407E-006	0.00000E+000	6.78974E-004	-3.27687E+002	7	...........
	30	31	3.74396E+000	-1.79758E-006	0.00000E+000	-6.73007E-006	0.00000E+000	6.77540E-004	-3.27687E+002	7	...........
	31	32	3.74404E+000	-1.79789E-006	0.00000E+000	-6.73139E-006	0.00000E+000	6.72874E-004	-3.27687E+002	7	...........
	32	33	3.74410E+000	-1.79781E-006	0.00000E+000	-6.73116E-006	0.00000E+000	6.74324E-004	-3.27687E+002	7	...........
	33	34	3.74418E+000	-1.79708E-006	0.00000E+000	-6.72857E-006	0.00000E+000	6.72874E-004	-3.27687E+002	7	...........
	34	35	3.74422E+000	-1.79653E-006	0.00000E+000	-6.72662E-006	0.00000E+000	6.72674E-004	-3.27687E+002	7	...........
	35	36	3.74429E+000	-1.79610E-006	0.00000E+000	-6.72512E-006	0.00000E+000	6.72690E-004	-3.27687E+002	7	...........
	36	37	3.74434E+000	-1.79592E-006	0.00000E+000	-6.72455E-006	0.00000E+000	6.74024E-004	-3.27687E+002	7	...........
	37	38	3.74438E+000	-1.79590E-006	0.00000E+000	-6.72453E-006	0.00000E+000	6.71474E-004	-3.27687E+002	7	...........
	38	39	3.74445E+000	-1.79542E-006	0.00000E+000	-6.72284E-006	0.00000E+000	6.72640E-004	-3.27687E+002	7	...........
	39	40	3.74448E+000	-1.79561E-006	0.00000E+000	-6.72363E-006	0.00000E+000	6.74357E-004	-3.27687E+002	7	...........
	40	41	3.74454E+000	-1.79542E-006	0.00000E+000	-6.72304E-006	0.00000E+000	6.71040E-004	-3.27687E+002	7	...........
	41	42	3.74458E+000	-1.79512E-006	0.00000E+000	-6.72196E-006	0.00000E+000	6.71207E-004	-3.27687E+002	7	...........
	42	43	3.74462E+000	-1.79471E-006	0.00000E+000	-6.72050E-006	0.00000E+000	6.71740E-004	-3.27687E+002	7	...........
	43	44	3.74467E+000	-1.79409E-006	0.00000E+000	-6.71827E-006	0.00000E+000	6.72974E-004	-3.27687E+002	7	...........
	44	45	3.74470E+000	-1.79354E-006	0.00000E+000	-6.71626E-006	0.00000E+000	6.74590E-004	-3.27687E+002	7	...........
	45	46	3.74474E+000	-1.79274E-006	0.00000E+000	-6.71335E-006	0.00000E+000	6.72907E-004	-3.27687E+002	7	...........
	46	47	3.74477E+000	-1.79259E-006	0.00000E+000	-6.71283E-006	0.00000E+000	6.74324E-004	-3.27687E+002	7	...........
	47	48	3.74481E+000	-1.79288E-006	0.00000E+000	-6.71399E-006	0.00000E+000	6.74407E-004	-3.27687E+002	7	...........
	48	49	3.74484E+000	-1.79286E-006	0.00000E+000	-6.71396E-006	0.00000E+000	6.73257E-004	-3.27687E+002	7	...........
	49	50	3.74487E+000	-1.79236E-006	0.00000E+000	-6.71218E-006	0.00000E+000	6.77307E-004	-3.27687E+002	7	...........
	50	51	3.74490E+000	-1.79179E-006	0.00000E+000	-6.71007E-006	0.00000E+000	6.78940E-004	-3.27687E+002	7	...........
	51	52	3.74494E+000	-1.79176E-006	0.00000E+000	-6.71003E-006	0.00000E+000	6.75574E-004	-3.27687E+002	7	...........
	52	53	3.74496E+000	-1.79152E-006	0.00000E+000	-6.70918E-006	0.00000E+000	6.79524E-004	-3.27687E+002	7	...........
	53	54	3.74500E+000	-1.79106E-006	0.00000E+000	-6.70751E-006	0.00000E+000	6.78790E-004	-3.27687E+002	7	...........
	54	55	3.74504E+000	-1.79082E-006	0.00000E+000	-6.70669E-006	0.00000E+000	6.78974E-004	-3.27687E+002	7	...........
	55	56	3.74505E+000	-1.79081E-006	0.00000E+000	-6.70668E-006	0.00000E+000	6.80357E-004	-3.27687E+002	7	...........
	56	57	3.74510E+000	-1.79043E-006	0.00000E+000	-6.70532E-006	0.00000E+000	6.81090E-004	-3.27687E+002	7	...........
	57	58	3.74513E+000	-1.78993E-006	0.00000E+000	-6.70350E-006	0.00000E+000	6.83074E-004	-3.27687E+002	7	...........
	58	59	3.74515E+000	-1.79009E-006	0.00000E+000	-6.70414E-006	0.00000E+000	6.81157E-004	-3.27687E+002	7	...........
	59	60	3.74520E+000	-1.78972E-006	0.00000E+000	-6.70284E-006	0.00000E+000	6.80190E-004	-3.27687E+002	7	...........
	60	61	3.74522E+000	-1.78866E-006	0.00000E+000	-6.69890E-006	0.00000E+000	6.81157E-004	-3.27687E+002	7	...........
	61	62	3.74525E+000	-1.78836E-006	0.00000E+000	-6.69785E-006	0.00000E+000	6.80307E-004	-3.27687E+002	7	...........
	62	63	3.74529E+000	-1.78878E-006	0.00000E+000	-6.69950E-006	0.00000E+000	6.80474E-004	-3.27687E+002	7	...........
	63	64	3.74531E+000	-1.78881E-006	0.00000E+000	-6.69966E-006	0.00000E+000	6.82224E-004	-3.27687E+002	7	...........
	64	65	3.74534E+000	-1.78846E-006	0.00000E+000	-6.69841E-006	0.00000E+000	6.80590E-004	-3.27687E+002	7	...........
	65	66	3.74536E+000	-1.78823E-006	0.00000E+000	-6.69758E-006	0.00000E+000	6.78674E-004	-3.27687E+002	7	...........
	66	67	3.74539E+000	-1.78816E-006	0.00000E+000	-6.69735E-006	0.00000E+000	6.78057E-004	-3.27687E+002	7	...........
	67	68	3.74542E+000	-1.78757E-006	0.00000E+000	-6.69518E-006	0.00000E+000	6.78474E-004	-3.27687E+002	7	...........
	68	69	3.74543E+000	-1.78755E-006	0.00000E+000	-6.69514E-006	0.00000E+000	6.79157E-004	-3.27687E+002	7	...........
	69	70	3.74548E+000	-1.78769E-006	0.00000E+000	-6.69574E-006	0.00000E+000	6.78440E-004	-3.27687E+002	7	...........
	70	71	3.74550E+000	-1.78748E-006	0.00000E+000	-6.69499E-006	0.00000E+000	6.79390E-004	-3.27687E+002	7	...........
	71	72	3.74553E+000	-1.78729E-006	0.00000E+000	-6.69436E-006	0.00000E+000	6.78424E-004	-3.27687E+002	7	...........
	72	73	3.74556E+000	-1.78752E-006	0.00000E+000	-6.69524E-006	0.00000E+000	6.80690E-004	-3.27687E+002	7	...........
	73	74	3.74558E+000	-1.78672E-006	0.00000E+000	-6.69230E-006	0.00000E+000	6.79857E-004	-3.27687E+002	7	...........
	74	75	3.74562E+000	-1.78716E-006	0.00000E+000	-6.69400E-006	0.00000E+000	6.77290E-004	-3.27687E+002	7	...........
	75	76	3.74564E+000	-1.78682E-006	0.00000E+000	-6.69277E-006	0.00000E+000	6.80640E-004	-3.27687E+002	7	...........
	76	77	3.74565E+000	-1.78554E-006	0.00000E+000	-6.68801E-006	0.00000E+000	6.75940E-004	-3.27687E+002	7	...........
	77	78	3.74568E+000	-1.78546E-006	0.00000E+000	-6.68777E-006	0.00000E+000	6.75240E-004	-3.27687E+002	7	...........
	78	79	3.74570E+000	-1.78621E-006	0.00000E+000	-6.69060E-006	0.00000E+000	6.78757E-004	-3.27687E+002	7	...........
	79	80	3.74573E+000	-1.78603E-006	0.00000E+000	-6.68998E-006	0.00000E+000	6.75174E-004	-3.27687E+002	7	...........
	80	81	3.74576E+000	-1.78494E-006	0.00000E+000	-6.68597E-006	0.00000E+000	6.75540E-004	-3.27687E+002	7	...........
	81	82	3.74578E+000	-1.78492E-006	0.00000E+000	-6.68592E-006	0.00000E+000	6.73324E-004	-3.27687E+002	7	...........
	82	83	3.74580E+000	-1.78435E-006	0.00000E+000	-6.68381E-006	0.00000E+000	6.77357E-004	-3.27687E+002	7	...........
	83	84	3.74581E+000	-1.78393E-006	0.00000E+000	-6.68226E-006	0.00000E+000	6.73724E-004	-3.27687E+002	7	...........
	84	85	3.74584E+000	-1.78426E-006	0.00000E+000	-6.68357E-006	0.00000E+000	6.74907E-004	-3.27687E+002	7	...........
	85	86	3.74585E+000	-1.78458E-006	0.00000E+000	-6.68479E-006	0.00000E+000	6.74457E-004	-3.27687E+002	7	...........
	86	87	3.74588E+000	-1.78389E-006	0.00000E+000	-6.68223E-006	0.00000E+000	6.74107E-004	-3.27687E+002	7	...........
	87	88	3.74590E+000	-1.78407E-006	0.00000E+000	-6.68295E-006	0.00000E+000	6.73690E-004	-3.27687E+002	7	...........
	88	89	3.74593E+000	-1.78386E-006	0.00000E+000	-6.68220E-006	0.00000E+000	6.74690E-004	-3.27687E+002	7	...........
	89	90	3.74594E+000	-1.78349E-006	0.00000E+000	-6.68085E-006	0.00000E+000	6.72290E-004	-3.27687E+002	7	...........
	90	91	3.74595E+000	-1.78310E-006	0.00000E+000	-6.67940E-006	0.00000E+000	6.74757E-004	-3.27687E+002	7	...........
	91	92	3.74597E+000	-1.78258E-006	0.00000E+000	-6.67749E-006	0.00000E+000	6.72190E-004	-3.27687E+002	7	...........
	92	93	3.74599E+000	-1.78169E-006	0.00000E+000	-6.67418E-006	0.00000E+000	6.71174E-004	-3.27687E+002	7	...........
	93	94	3.74600E+000	-1.78240E-006	0.00000E+000	-6.67686E-006	0.00000E+000	6.71857E-004	-3.27687E+002	7	...........
	94	95	3.74602E+000	-1.78223E-006	0.00000E+000	-6.67628E-006	0.00000E+000	6.69507E-004	-3.27687E+002	7	...........
	95	96	3.74603E+000	-1.78213E-006	0.00000E+000	-6.67593E-006	0.00000E+000	6.71207E-004	-3.27687E+002	7	...........
	96	97	3.74605E+000	-1.78197E-006	0.00000E+000	-6.67535E-006	0.00000E+000	6.71374E-004	-3.27687E+002	7	...........
	97	98	3.74608E+000	-1.78214E-006	0.00000E+000	-6.67605E-006	0.00000E+000	6.71840E-004	-3.27687E+002	7	...........
	98	99	3.74609E+000	-1.78169E-006	0.00000E+000	-6.67437E-006	0.00000E+000	6.71607E-004	-3.27687E+002	7	...........
	99	100	3.74610E+000	-1.78165E-006	0.00000E+000	-6.67424E-006	0.00000E+000	6.71090E-004	-3.27687E+002	7	...........
	100	101	3.74612E+000	-1.78203E-006	0.00000E+000	-6.67570E-006	0.00000E+000	6.68807E-004	-3.27687E+002	7	...........
	101	102	3.74613E+000	-1.78196E-006	0.00000E+000	-6.67546E-006	0.00000E+000	6.69824E-004	-3.27687E+002	7	...........
	102	103	3.74615E+000	-1.78165E-006	0.00000E+000	-6.67432E-006	0.00000E+000	6.71007E-004	-3.27687E+002	7	...........
	103	104	3.74617E+000	-1.78166E-006	0.00000E+000	-6.67440E-006	0.00000E+000	6.72890E-004	-3.27687E+002	7	...........
	104	105	3.74617E+000	-1.78156E-006	0.00000E+000	-6.67403E-006	0.00000E+000	6.68640E-004	-3.27687E+002	7	...........
	105	106	3.74619E+000	-1.78144E-006	0.00000E+000	-6.67361E-006	0.00000E+000	6.71107E-004	-3.27687E+002	7	...........
	106	107	3.74620E+000	-1.78133E-006	0.00000E+000	-6.67321E-006	0.00000E+000	6.70190E-004	-3.27687E+002	7	...........
	107	108	3.74621E+000	-1.78004E-006	0.00000E+000	-6.66840E-006	0.00000E+000	6.71424E-004	-3.27687E+002	7	...........
	108	109	3.74623E+000	-1.78037E-006	0.00000E+000	-6.66968E-006	0.00000E+000	6.72840E-004	-3.27687E+002	7	...........
	109	110	3.74624E+000	-1.78105E-006	0.00000E+000	-6.67226E-006	0.00000E+000	6.72707E-004	-3.27687E+002	7	...........
	110	111	3.74625E+000	-1.78079E-006	0.00000E+000	-6.67128E-006	0.00000E+000	6.73624E-004	-3.27687E+002	7	...........
	111	112	3.74627E+000	-1.77981E-006	0.00000E+000	-6.66766E-006	0.00000E+000	6.73474E-004	-3.27687E+002	7	...........
	112	113	3.74628E+000	-1.77955E-006	0.00000E+000	-6.66668E-006	0.00000E+000	6.73924E-004	-3.27687E+002	7	...........
	113	114	3.74629E+000	-1.77951E-006	0.00000E+000	-6.66655E-006	0.00000E+000	6.71957E-004	-3.27687E+002	7	...........
	114	115	3.74632E+000	-1.77919E-006	0.00000E+000	-6.66540E-006	0.00000E+000	6.71824E-004	-3.27687E+002	7	...........
	115	116	3.74632E+000	-1.77914E-006	0.00000E+000	-6.66525E-006	0.00000E+000	6.70074E-004	-3.27687E+002	7	...........
	116	117	3.74634E+000	-1.77948E-006	0.00000E+000	-6.66653E-006	0.00000E+000	6.71524E-004	-3.27687E+002	7	...........
	117	118	3.74635E+000	-1.77878E-006	0.00000E+000	-6.66392E-006	0.00000E+000	6.72390E-004	-3.27687E+002	7	...........
	118	119	3.74636E+000	-1.77864E-006	0.00000E+000	-6.66343E-006	0.00000E+000	6.70824E-004	-3.27687E+002	7	...........
	119	120	3.74637E+000	-1.77900E-006	0.00000E+000	-6.66479E-006	0.00000E+000	6.72507E-004	-3.27687E+002	7	...........
	120	121	3.74638E+000	-1.77906E-006	0.00000E+000	-6.66503E-006	0.00000E+000	6.72457E-004	-3.27687E+002	7	...........
	121	122	3.74640E+000	-1.77848E-006	0.00000E+000	-6.66289E-006	0.00000E+000	6.71124E-004	-3.27687E+002	7	...........
	122	123	3.74641E+000	-1.77765E-006	0.00000E+000	-6.65981E-006	0.00000E+000	6.73040E-004	-3.27687E+002	7	...........
	123	124	3.74643E+000	-1.77692E-006	0.00000E+000	-6.65709E-006	0.00000E+000	6.72724E-004	-3.27687E+002	7	...........
	124	125	3.74644E+000	-1.77797E-006	0.00000E+000	-6.66108E-006	0.00000E+000	6.71874E-004	-3.27687E+002	7	...........
	125	126	3.74645E+000	-1.77747E-006	0.00000E+000	-6.65918E-006	0.00000E+000	6.72324E-004	-3.27687E+002	7	...........
	126	127	3.74646E+000	-1.77760E-006	0.00000E+000	-6.65972E-006	0.00000E+000	6.72190E-004	-3.27687E+002	7	...........
	127	128	3.74648E+000	-1.77748E-006	0.00000E+000	-6.65929E-006	0.00000E+000	6.74707E-004	-3.27687E+002	7	...........
	128	129	3.74650E+000	-1.77723E-006	0.00000E+000	-6.65840E-006	0.00000E+000	6.75574E-004	-3.27687E+002	7	...........
	129	130	3.74651E+000	-1.77735E-006	0.00000E+000	-6.65884E-006	0.00000E+000	6.79107E-004	-3.27687E+002	7	...........
	130	131	3.74651E+000	-1.77726E-006	0.00000E+000	-6.65852E-006	0.00000E+000	6.76490E-004	-3.27687E+002	7	...........
	131	132	3.74653E+000	-1.77722E-006	0.00000E+000	-6.65838E-006	0.00000E+000	6.75490E-004	-3.27687E+002	7	...........
	132	133	3.74654E+000	-1.77741E-006	0.00000E+000	-6.65915E-006	0.00000E+000	6.78874E-004	-3.27687E+002	7	...........
	133	134	3.74655E+000	-1.77735E-006	0.00000E+000	-6.65893E-006	0.00000E+000	6.78474E-004	-3.27687E+002	7	...........
	134	135	3.74656E+000	-1.77772E-006	0.00000E+000	-6.66031E-006	0.00000E+000	6.79707E-004	-3.27687E+002	7	...........
	135	136	3.74658E+000	-1.77708E-006	0.00000E+000	-6.65796E-006	0.00000E+000	6.76390E-004	-3.27687E+002	7	...........
	136	137	3.74658E+000	-1.77696E-006	0.00000E+000	-6.65751E-006	0.00000E+000	6.77224E-004	-3.27687E+002	7	...........
	137	138	3.74660E+000	-1.77659E-006	0.00000E+000	-6.65619E-006	0.00000E+000	6.77190E-004	-3.27687E+002	7	...........
	138	139	3.74661E+000	-1.77603E-006	0.00000E+000	-6.65411E-006	0.00000E+000	6.77857E-004	-3.27687E+002	7	...........
	139	140	3.74662E+000	-1.77591E-006	0.00000E+000	-6.65365E-006	0.00000E+000	6.78157E-004	-3.27687E+002	7	...........
	140	141	3.74663E+000	-1.77609E-006	0.00000E+000	-6.65437E-006	0.00000E+000	6.77957E-004	-3.27687E+002	7	...........
	141	142	3.74664E+000	-1.77640E-006	0.00000E+000	-6.65555E-006	0.00000E+000	6.78907E-004	-3.27687E+002	7	...........
	142	143	3.74665E+000	-1.77615E-006	0.00000E+000	-6.65459E-006	0.00000E+000	6.76390E-004	-3.27687E+002	7	...........
	143	144	3.74666E+000	-1.77561E-006	0.00000E+000	-6.65260E-006	0.00000E+000	6.76240E-004	-3.27687E+002	7	...........
	144	145	3.74667E+000	-1.77523E-006	0.00000E+000	-6.65121E-006	0.00000E+000	6.77574E-004	-3.27687E+002	7	...........
	145	146	3.74667E+000	-1.77513E-006	0.00000E+000	-6.65084E-006	0.00000E+000	6.76424E-004	-3.27687E+002	7	...........
	146	147	3.74669E+000	-1.77571E-006	0.00000E+000	-6.65303E-006	0.00000E+000	6.76340E-004	-3.27687E+002	7	...........
	147	148	3.74670E+000	-1.77569E-006	0.00000E+000	-6.65297E-006	0.00000E+000	6.77807E-004	-3.27687E+002	7	...........
	148	149	3.74672E+000	-1.77579E-006	0.00000E+000	-6.65337E-006	0.00000E+000	6.78090E-004	-3.27687E+002	7	...........
	149	150	3.74672E+000	-1.77588E-006	0.00000E+000	-6.65371E-006	0.00000E+000	6.77224E-004	-3.27687E+002	7	...........
	150	151	3.74673E+000	-1.77557E-006	0.00000E+000	-6.65258E-006	0.00000E+000	6.76007E-004	-3.27687E+002	7	...........
	151	152	3.74674E+000	-1.77545E-006	0.00000E+000	-6.65216E-006	0.00000E+000	6.77407E-004	-3.27687E+002	7	...........
	152	153	3.74675E+000	-1.77527E-006	0.00000E+000	-6.65150E-006	0.00000E+000	6.76474E-004	-3.27687E+002	7	...........
	153	154	3.74677E+000	-1.77483E-006	0.00000E+000	-6.64986E-006	0.00000E+000	6.77824E-004	-3.27687E+002	7	...........
	154	155	3.74677E+000	-1.77394E-006	0.00000E+000	-6.64656E-006	0.00000E+000	6.79574E-004	-3.27687E+002	7	...........
	155	156	3.74678E+000	-1.77414E-006	0.00000E+000	-6.64730E-006	0.00000E+000	6.77924E-004	-3.27687E+002	7	...........
	156	157	3.74679E+000	-1.77459E-006	0.00000E+000	-6.64903E-006	0.00000E+000	6.79157E-004	-3.27687E+002	7	...........
	157	158	3.74680E+000	-1.77421E-006	0.00000E+000	-6.64763E-006	0.00000E+000	6.77157E-004	-3.27687E+002	7	...........
	158	159	3.74681E+000	-1.77414E-006	0.00000E+000	-6.64737E-006	0.00000E+000	6.78390E-004	-3.27687E+002	7	...........
	159	160	3.74682E+000	-1.77377E-006	0.00000E+000	-6.64599E-006	0.00000E+000	6.77507E-004	-3.27687E+002	7	...........
	160	161	3.74683E+000	-1.77364E-006	0.00000E+000	-6.64552E-006	0.00000E+000	6.76374E-004	-3.27687E+002	7	...........
	161	162	3.74684E+000	-1.77372E-006	0.00000E+000	-6.64584E-006	0.00000E+000	6.75624E-004	-3.27687E+002	7	...........
	162	163	3.74685E+000	-1.77364E-006	0.00000E+000	-6.64555E-006	0.00000E+000	6.74757E-004	-3.27687E+002	7	...........
	163	164	3.74686E+000	-1.77438E-006	0.00000E+000	-6.64834E-006	0.00000E+000	6.74190E-004	-3.27687E+002	7	...........
	164	165	3.74687E+000	-1.77448E-006	0.00000E+000	-6.64876E-006	0.00000E+000	6.75824E-004	-3.27687E+002	7	...........
	165	166	3.74688E+000	-1.77426E-006	0.00000E+000	-6.64794E-006	0.00000E+000	6.77457E-004	-3.27687E+002	7	...........
	166	167	3.74689E+000	-1.77411E-006	0.00000E+000	-6.64738E-006	0.00000E+000	6.76957E-004	-3.27687E+002	7	...........
	167	168	3.74690E+000	-1.77410E-006	0.00000E+000	-6.64738E-006	0.00000E+000	6.76857E-004	-3.27687E+002	7	...........
	168	169	3.74691E+000	-1.77385E-006	0.00000E+000	-6.64645E-006	0.00000E+000	6.77790E-004	-3.27687E+002	7	...........
	169	170	3.74691E+000	-1.77333E-006	0.00000E+000	-6.64452E-006	0.00000E+000	6.75674E-004	-3.27687E+002	7	...........
	170	171	3.74693E+000	-1.77265E-006	0.00000E+000	-6.64198E-006	0.00000E+000	6.78007E-004	-3.27687E+002	7	...........
	171	172	3.74694E+000	-1.77381E-006	0.00000E+000	-6.64635E-006	0.00000E+000	6.76790E-004	-3.27687E+002	7	...........
	172	173	3.74695E+000	-1.77345E-006	0.00000E+000	-6.64503E-006	0.00000E+000	6.74424E-004	-3.27687E+002	7	...........
	173	174	3.74695E+000	-1.77352E-006	0.00000E+000	-6.64528E-006	0.00000E+000	6.77357E-004	-3.27687E+002	7	...........
	174	175	3.74697E+000	-1.77310E-006	0.00000E+000	-6.64377E-006	0.00000E+000	6.75207E-004	-3.27687E+002	7	...........
	175	176	3.74697E+000	-1.77333E-006	0.00000E+000	-6.64461E-006	0.00000E+000	6.74907E-004	-3.27687E+002	7	...........
	176	177	3.74698E+000	-1.77356E-006	0.00000E+000	-6.64550E-006	0.00000E+000	6.74174E-004	-3.27687E+002	7	...........
	177	178	3.74700E+000	-1.77337E-006	0.00000E+000	-6.64484E-006	0.00000E+000	6.73007E-004	-3.27687E+002	7	...........
	178	179	3.74700E+000	-1.77333E-006	0.00000E+000	-6.64468E-006	0.00000E+000	6.73074E-004	-3.27687E+002	7	...........
	179	180	3.74702E+000	-1.77388E-006	0.00000E+000	-6.64678E-006	0.00000E+000	6.74257E-004	-3.27687E+002	7	...........
	180	181	3.74702E+000	-1.77401E-006	0.00000E+000	-6.64726E-006	0.00000E+000	6.73757E-004	-3.27687E+002	7	...........
	181	182	3.74702E+000	-1.77377E-006	0.00000E+000	-6.64636E-006	0.00000E+000	6.75690E-004	-3.27687E+002	7	...........
	182	183	3.74704E+000	-1.77355E-006	0.00000E+000	-6.64555E-006	0.00000E+000	6.71624E-004	-3.27687E+002	7	...........
	183	184	3.74705E+000	-1.77331E-006	0.00000E+000	-6.64470E-006	0.00000E+000	6.72157E-004	-3.27687E+002	7	...........
	184	185	3.74706E+000	-1.77303E-006	0.00000E+000	-6.64366E-006	0.00000E+000	6.71557E-004	-3.27687E+002	7	...........
	185	186	3.74707E+000	-1.77212E-006	0.00000E+000	-6.64023E-006	0.00000E+000	6.74190E-004	-3.27687E+002	7	...........
	186	187	3.74708E+000	-1.77196E-006	0.00000E+000	-6.63966E-006	0.00000E+000	6.71007E-004	-3.27687E+002	7	...........
	187	188	3.74710E+000	-1.77269E-006	0.00000E+000	-6.64246E-006	0.00000E+000	6.73124E-004	-3.27687E+002	7	...........
	188	189	3.74711E+000	-1.77293E-006	0.00000E+000	-6.64335E-006	0.00000E+000	6.74340E-004	-3.27687E+002	7	...........
	189	190	3.74712E+000	-1.77253E-006	0.00000E+000	-6.64190E-006	0.00000E+000	6.71324E-004	-3.27687E+002	7	...........
	190	191	3.74712E+000	-1.77163E-006	0.00000E+000	-6.63852E-006	0.00000E+000	6.71074E-004	-3.27687E+002	7	...........
	191	192	3.74714E+000	-1.77174E-006	0.00000E+000	-6.63897E-006	0.00000E+000	6.70407E-004	-3.27687E+002	7	...........
	192	193	3.74715E+000	-1.77185E-006	0.00000E+000	-6.63937E-006	0.00000E+000	6.71257E-004	-3.27687E+002	7	...........
	193	194	3.74716E+000	-1.77192E-006	0.00000E+000	-6.63967E-006	0.00000E+000	6.72440E-004	-3.27687E+002	7	...........
	194	195	3.74716E+000	-1.77180E-006	0.00000E+000	-6.63921E-006	0.00000E+000	6.72474E-004	-3.27687E+002	7	...........
	195	196	3.74718E+000	-1.77193E-006	0.00000E+000	-6.63974E-006	0.00000E+000	6.70290E-004	-3.27687E+002	7	...........
	196	197	3.74719E+000	-1.77146E-006	0.00000E+000	-6.63798E-006	0.00000E+000	6.70824E-004	-3.27687E+002	7	...........
	197	198	3.74720E+000	-1.77149E-006	0.00000E+000	-6.63813E-006	0.00000E+000	6.70224E-004	-3.27687E+002	7	...........
	198	199	3.74721E+000	-1.77190E-006	0.00000E+000	-6.63970E-006	0.00000E+000	6.69140E-004	-3.27687E+002	7	...........
	199	200	3.74721E+000	-1.77246E-006	0.00000E+000	-6.64179E-006	0.00000E+000	6.70307E-004	-3.27687E+002	7	...........
	200	201	3.74723E+000	-1.77195E-006	0.00000E+000	-6.63992E-006	0.00000E+000	6.69174E-004	-3.27687E+002	7	...........
	201	202	3.74724E+000	-1.77077E-006	0.00000E+000	-6.63550E-006	0.00000E+000	6.69090E-004	-3.27687E+002	7	...........
	202	203	3.74725E+000	-1.77135E-006	0.00000E+000	-6.63768E-006	0.00000E+000	6.67874E-004	-3.27687E+002	7	...........
	203	204	3.74724E+000	-1.77164E-006	0.00000E+000	-6.63876E-006	0.00000E+000	6.69407E-004	-3.27687E+002	7	...........
	204	205	3.74725E+000	-1.77139E-006	0.00000E+000	-6.63785E-006	0.00000E+000	6.69857E-004	-3.27687E+002	7	...........
	205	206	3.74727E+000	-1.77144E-006	0.00000E+000	-6.63807E-006	0.00000E+000	6.66090E-004	-3.27687E+002	7	...........
	206	207	3.74728E+000	-1.77094E-006	0.00000E+000	-6.63622E-006	0.00000E+000	6.65090E-004	-3.27687E+002	7	...........
	207	208	3.74729E+000	-1.77109E-006	0.00000E+000	-6.63680E-006	0.00000E+000	6.64557E-004	-3.27687E+002	7	...........
	208	209	3.74730E+000	-1.77115E-006	0.00000E+000	-6.63701E-006	0.00000E+000	6.65607E-004	-3.27687E+002	7	...........
	209	210	3.74731E+000	-1.77110E-006	0.00000E+000	-6.63686E-006	0.00000E+000	6.65724E-004	-3.27687E+002	7	...........
	210	211	3.74733E+000	-1.77141E-006	0.00000E+000	-6.63805E-006	0.00000E+000	6.62240E-004	-3.27687E+002	7	...........
	211	212	3.74733E+000	-1.77144E-006	0.00000E+000	-6.63817E-006	0.00000E+000	6.64290E-004	-3.27687E+002	7	...........
	212	213	3.74734E+000	-1.77145E-006	0.00000E+000	-6.63822E-006	0.00000E+000	6.62740E-004	-3.27687E+002	7	...........
	213	214	3.74734E+000	-1.77149E-006	0.00000E+000	-6.63836E-006	0.00000E+000	6.64874E-004	-3.27687E+002	7	...........
	214	215	3.74735E+000	-1.77107E-006	0.00000E+000	-6.63683E-006	0.00000E+000	6.64540E-004	-3.27687E+002	7	...........
	215	216	3.74737E+000	-1.77080E-006	0.00000E+000	-6.63586E-006	0.00000E+000	6.63607E-004	-3.27687E+002	7	...........
	216	217	3.74736E+000	-1.76990E-006	0.00000E+000	-6.63245E-006	0.00000E+000	6.61740E-004	-3.27687E+002	7	...........
	217	218	3.74738E+000	-1.76903E-006	0.00000E+000	-6.62924E-006	0.00000E+000	6.61757E-004	-3.27687E+002	7	...........
	218	219	3.74739E+000	-1.76996E-006	0.00000E+000	-6.63275E-006	0.00000E+000	6.60040E-004	-3.27687E+002	7	...........
	219	220	3.74741E+000	-1.77054E-006	0.00000E+000	-6.63493E-006	0.00000E+000	6.63507E-004	-3.27687E+002	7	...........
	220	221	3.74741E+000	-1.76988E-006	0.00000E+000	-6.63246E-006	0.00000E+000	6.62057E-004	-3.27687E+002	7	...........
	221	222	3.74742E+000	-1.76998E-006	0.00000E+000	-6.63286E-006	0.00000E+000	6.62707E-004	-3.27687E+002	7	...........
	222	223	3.74742E+000	-1.76977E-006	0.00000E+000	-6.63207E-006	0.00000E+000	6.62590E-004	-3.27687E+002	7	...........
	223	224	3.74743E+000	-1.76975E-006	0.00000E+000	-6.63200E-006	0.00000E+000	6.60124E-004	-3.27687E+002	7	...........
	224	225	3.74744E+000	-1.76900E-006	0.00000E+000	-6.62923E-006	0.00000E+000	6.59440E-004	-3.27687E+002	7	...........
	225	226	3.74745E+000	-1.76923E-006	0.00000E+000	-6.63011E-006	0.00000E+000	6.61307E-004	-3.27687E+002	7	...........
	226	227	3.74746E+000	-1.76936E-006	0.00000E+000	-6.63061E-006	0.00000E+000	6.59407E-004	-3.27687E+002	7	...........
	227	228	3.74747E+000	-1.76974E-006	0.00000E+000	-6.63203E-006	0.00000E+000	6.58624E-004	-3.27687E+002	7	...........
	228	229	3.74747E+000	-1.77008E-006	0.00000E+000	-6.63331E-006	0.00000E+000	6.59740E-004	-3.27687E+002	7	...........
	229	230	3.74748E+000	-1.77021E-006	0.00000E+000	-6.63382E-006	0.00000E+000	6.60424E-004	-3.27687E+002	7	...........
	230	231	3.74749E+000	-1.77045E-006	0.00000E+000	-6.63477E-006	0.00000E+000	6.59707E-004	-3.27687E+002	7	...........
	231	232	3.74750E+000	-1.77026E-006	0.00000E+000	-6.63403E-006	0.00000E+000	6.59690E-004	-3.27687E+002	7	...........
	232	233	3.74750E+000	-1.76960E-006	0.00000E+000	-6.63159E-006	0.00000E+000	6.58374E-004	-3.27687E+002	7	...........
	233	234	3.74751E+000	-1.76865E-006	0.00000E+000	-6.62805E-006	0.00000E+000	6.56290E-004	-3.27687E+002	7	...........
	234	235	3.74752E+000	-1.76958E-006	0.00000E+000	-6.63152E-006	0.00000E+000	6.58390E-004	-3.27687E+002	7	...........
	235	236	3.74752E+000	-1.76966E-006	0.00000E+000	-6.63185E-006	0.00000E+000	6.57924E-004	-3.27687E+002	7	...........
	236	237	3.74753E+000	-1.76944E-006	0.00000E+000	-6.63105E-006	0.00000E+000	6.58057E-004	-3.27687E+002	7	...........
	237	238	3.74754E+000	-1.76945E-006	0.00000E+000	-6.63109E-006	0.00000E+000	6.56724E-004	-3.27687E+002	7	...........
	238	239	3.74755E+000	-1.76872E-006	0.00000E+000	-6.62837E-006	0.00000E+000	6.56157E-004	-3.27687E+002	7	...........
	239	240	3.74755E+000	-1.76866E-006	0.00000E+000	-6.62812E-006	0.00000E+000	6.56690E-004	-3.27687E+002	7	...........
	240	241	3.74756E+000	-1.76887E-006	0.00000E+000	-6.62894E-006	0.00000E+000	6.55974E-004	-3.27687E+002	7	...........
	241	242	3.74757E+000	-1.76854E-006	0.00000E+000	-6.62773E-006	0.00000E+000	6.57157E-004	-3.27687E+002	7	...........
	242	243	3.74757E+000	-1.76885E-006	0.00000E+000	-6.62888E-006	0.00000E+000	6.54524E-004	-3.27687E+002	7	...........
	243	244	3.74757E+000	-1.76880E-006	0.00000E+000	-6.62870E-006	0.00000E+000	6.55824E-004	-3.27687E+002	7	...........
	244	245	3.74758E+000	-1.76919E-006	0.00000E+000	-6.63018E-006	0.00000E+000	6.53524E-004	-3.27687E+002	7	...........
	245	246	3.74759E+000	-1.76942E-006	0.00000E+000	-6.63107E-006	0.00000E+000	6.56274E-004	-3.27687E+002	7	...........
	246	247	3.74759E+000	-1.77001E-006	0.00000E+000	-6.63329E-006	0.00000E+000	6.55924E-004	-3.27687E+002	7	...........
	247	248	3.74760E+000	-1.76937E-006	0.00000E+000	-6.63091E-006	0.00000E+000	6.54390E-004	-3.27687E+002	7	...........
	248	249	3.74761E+000	-1.76842E-006	0.00000E+000	-6.62736E-006	0.00000E+000	6.52607E-004	-3.27687E+002	7	...........
	249	250	3.74762E+000	-1.76853E-006	0.00000E+000	-6.62779E-006	0.00000E+000	6.52724E-004	-3.27687E+002	7	...........
	250	251	3.74762E+000	-1.76913E-006	0.00000E+000	-6.63002E-006	0.00000E+000	6.52574E-004	-3.27687E+002	7	...........
	251	252	3.74763E+000	-1.76924E-006	0.00000E+000	-6.63044E-006	0.00000E+000	6.52824E-004	-3.27687E+002	7	...........
	252	253	3.74763E+000	-1.76912E-006	0.00000E+000	-6.62999E-006	0.00000E+000	6.51224E-004	-3.27687E+002	7	...........
	253	254	3.74765E+000	-1.76894E-006	0.00000E+000	-6.62935E-006	0.00000E+000	6.54724E-004	-3.27687E+002	7	...........
	254	255	3.74765E+000	-1.76880E-006	0.00000E+000	-6.62886E-006	0.00000E+000	6.53390E-004	-3.27687E+002	7	...........
	255	256	3.74765E+000	-1.76892E-006	0.00000E+000	-6.62928E-006	0.00000E+000	6.56174E-004	-3.27687E+002	7	...........
	256	257	3.74765E+000	-1.76854E-006	0.00000E+000	-6.62786E-006	0.00000E+000	6.53107E-004	-3.27687E+002	7	...........
	257	258	3.74766E+000	-1.76830E-006	0.00000E+000	-6.62698E-006	0.00000E+000	6.46974E-004	-3.27687E+002	7	...........
	258	259	3.74767E+000	-1.76881E-006	0.00000E+000	-6.62890E-006	0.00000E+000	6.53774E-004	-3.27687E+002	7	...........
	259	260	3.74768E+000	-1.76876E-006	0.00000E+000	-6.62874E-006	0.00000E+000	6.50624E-004	-3.27687E+002	7	...........
	260	261	3.74769E+000	-1.76877E-006	0.00000E+000	-6.62881E-006	0.00000E+000	6.52090E-004	-3.27687E+002	7	...........
	261	262	3.74769E+000	-1.76861E-006	0.00000E+000	-6.62822E-006	0.00000E+000	6.54074E-004	-3.27687E+002	7	...........
	262	263	3.74770E+000	-1.76865E-006	0.00000E+000	-6.62836E-006	0.00000E+000	6.52040E-004	-3.27687E+002	7	...........
	263	264	3.74770E+000	-1.76842E-006	0.00000E+000	-6.62753E-006	0.00000E+000	6.52607E-004	-3.27687E+002	7	...........
	264	265	3.74771E+000	-1.76731E-006	0.00000E+000	-6.62334E-006	0.00000E+000	6.52424E-004	-3.27687E+002	7	...........
	265	266	3.74771E+000	-1.76677E-006	0.00000E+000	-6.62135E-006	0.00000E+000	6.54407E-004	-3.27687E+002	7	...........
	266	267	3.74772E+000	-1.76800E-006	0.00000E+000	-6.62596E-006	0.00000E+000	6.50807E-004	-3.27687E+002	7	...........
	267	268	3.74772E+000	-1.76802E-006	0.00000E+000	-6.62606E-006	0.00000E+000	6.52440E-004	-3.27687E+002	7	...........
	268	269	3.74773E+000	-1.76810E-006	0.00000E+000	-6.62637E-006	0.00000E+000	6.50857E-004	-3.27687E+002	7	...........
	269	270	3.74774E+000	-1.76800E-006	0.00000E+000	-6.62600E-006	0.00000E+000	6.49457E-004	-3.27687E+002	7	...........
	270	271	3.74775E+000	-1.76758E-006	0.00000E+000	-6.62446E-006	0.00000E+000	6.51240E-004	-3.27687E+002	7	...........
	271	272	3.74775E+000	-1.76764E-006	0.00000E+000	-6.62468E-006	0.00000E+000	6.50274E-004	-3.27687E+002	7	...........
	272	273	3.74776E+000	-1.76774E-006	0.00000E+000	-6.62507E-006	0.00000E+000	6.48307E-004	-3.27687E+002	7	...........
	273	274	3.74777E+000	-1.76744E-006	0.00000E+000	-6.62395E-006	0.00000E+000	6.50940E-004	-3.27687E+002	7	...........
	274	275	3.74777E+000	-1.76724E-006	0.00000E+000	-6.62322E-006	0.00000E+000	6.48674E-004	-3.27687E+002	7	...........
	275	276	3.74778E+000	-1.76749E-006	0.00000E+000	-6.62414E-006	0.00000E+000	6.47190E-004	-3.27687E+002	7	...........
	276	277	3.74779E+000	-1.76758E-006	0.00000E+000	-6.62451E-006	0.00000E+000	6.48107E-004	-3.27687E+002	7	...........
	277	278	3.74779E+000	-1.76830E-006	0.00000E+000	-6.62720E-006	0.00000E+000	6.48540E-004	-3.27687E+002	7	...........
	278	279	3.74780E+000	-1.76769E-006	0.00000E+000	-6.62496E-006	0.00000E+000	6.50290E-004	-3.27687E+002	7	...........
	279	280	3.74780E+000	-1.76771E-006	0.00000E+000	-6.62502E-006	0.00000E+000	6.49874E-004	-3.27687E+002	7	...........
	280	281	3.74780E+000	-1.76667E-006	0.00000E+000	-6.62114E-006	0.00000E+000	6.47290E-004	-3.27687E+002	7	...........
	281	282	3.74781E+000	-1.76688E-006	0.00000E+000	-6.62192E-006	0.00000E+000	6.48374E-004	-3.27687E+002	7	...........
	282	283	3.74781E+000	-1.76738E-006	0.00000E+000	-6.62380E-006	0.00000E+000	6.47807E-004	-3.27687E+002	7	...........
	283	284	3.74782E+000	-1.76739E-006	0.00000E+000	-6.62388E-006	0.00000E+000	6.49590E-004	-3.27687E+002	7	...........
	284	285	3.74782E+000	-1.76697E-006	0.00000E+000	-6.62230E-006	0.00000E+000	6.48974E-004	-3.27687E+002	7	...........
	285	286	3.74783E+000	-1.76683E-006	0.00000E+000	-6.62177E-006	0.00000E+000	6.49057E-004	-3.27687E+002	7	...........
	286	287	3.74784E+000	-1.76698E-006	0.00000E+000	-6.62235E-006	0.00000E+000	6.46407E-004	-3.27687E+002	7	...........
	287	288	3.74784E+000	-1.76689E-006	0.00000E+000	-6.62201E-006	0.00000E+000	6.47374E-004	-3.27687E+002	7	...........
	288	289	3.74785E+000	-1.76742E-006	0.00000E+000	-6.62400E-006	0.00000E+000	6.48157E-004	-3.27687E+002	7	...........
	289	290	3.74785E+000	-1.76721E-006	0.00000E+000	-6.62324E-006	0.00000E+000	6.48190E-004	-3.27687E+002	7	...........
	290	291	3.74785E+000	-1.76735E-006	0.00000E+000	-6.62377E-006	0.00000E+000	6.47490E-004	-3.27687E+002	7	...........
	291	292	3.74787E+000	-1.76716E-006	0.00000E+000	-6.62308E-006	0.00000E+000	6.48957E-004	-3.27687E+002	7	...........
	292	293	3.74787E+000	-1.76723E-006	0.00000E+000	-6.62334E-006	0.00000E+000	6.51274E-004	-3.27687E+002	7	...........
	293	294	3.74787E+000	-1.76732E-006	0.00000E+000	-6.62369E-006	0.00000E+000	6.50507E-004	-3.27687E+002	7	...........
	294	295	3.74787E+000	-1.76736E-006	0.00000E+000	-6.62384E-006	0.00000E+000	6.51840E-004	-3.27687E+002	7	...........
	295	296	3.74789E+000	-1.76675E-006	0.00000E+000	-6.62158E-006	0.00000E+000	6.50857E-004	-3.27687E+002	7	...........
	296	297	3.74789E+000	-1.76616E-006	0.00000E+000	-6.61937E-006	0.00000E+000	6.50207E-004	-3.27687E+002	7	...........
	297	298	3.74790E+000	-1.76634E-006	0.00000E+000	-6.62005E-006	0.00000E+000	6.49974E-004	-3.27687E+002	7	...........
	298	299	3.74790E+000	-1.76691E-006	0.00000E+000	-6.62220E-006	0.00000E+000	6.50507E-004	-3.27687E+002	7	...........
	299	300	3.74791E+000	-1.76696E-006	0.00000E+000	-6.62242E-006	0.00000E+000	6.50607E-004	-3.27687E+002	7	...........
	300	301	3.74792E+000	-1.76701E-006	0.00000E+000	-6.62261E-006	0.00000E+000	6.50874E-004	-3.27687E+002	7	...........
	301	302	3.74792E+000	-1.76702E-006	0.00000E+000	-6.62264E-006	0.00000E+000	6.53307E-004	-3.27687E+002	7	...........
	302	303	3.74792E+000	-1.76707E-006	0.00000E+000	-6.62285E-006	0.00000E+000	6.50857E-004	-3.27687E+002	7	...........
	303	304	3.74793E+000	-1.76686E-006	0.00000E+000	-6.62206E-006	0.00000E+000	6.49024E-004	-3.27687E+002	7	...........
	304	305	3.74793E+000	-1.76667E-006	0.00000E+000	-6.62137E-006	0.00000E+000	6.50057E-004	-3.27687E+002	7	...........
	305	306	3.74794E+000	-1.76684E-006	0.00000E+000	-6.62200E-006	0.00000E+000	6.49057E-004	-3.27687E+002	7	...........
	306	307	3.74793E+000	-1.76719E-006	0.00000E+000	-6.62329E-006	0.00000E+000	6.50874E-004	-3.27687E+002	7	...........
	307	308	3.74794E+000	-1.76711E-006	0.00000E+000	-6.62301E-006	0.00000E+000	6.50907E-004	-3.27687E+002	7	...........
	308	309	3.74794E+000	-1.76714E-006	0.00000E+000	-6.62314E-006	0.00000E+000	6.50107E-004	-3.27687E+002	7	...........
	309	310	3.74796E+000	-1.76736E-006	0.00000E+000	-6.62400E-006	0.00000E+000	6.50224E-004	-3.27687E+002	7	...........
	310	311	3.74796E+000	-1.76652E-006	0.00000E+000	-6.62086E-006	0.00000E+000	6.49690E-004	-3.27687E+002	7	...........
	311	312	3.74797E+000	-1.76556E-006	0.00000E+000	-6.61728E-006	0.00000E+000	6.47490E-004	-3.27687E+002	7	...........
	312	313	3.74798E+000	-1.76522E-006	0.00000E+000	-6.61600E-006	0.00000E+000	6.49274E-004	-3.27687E+002	7	...........
	313	314	3.74797E+000	-1.76561E-006	0.00000E+000	-6.61744E-006	0.00000E+000	6.49790E-004	-3.27687E+002	7	...........
	314	315	3.74798E+000	-1.76642E-006	0.00000E+000	-6.62050E-006	0.00000E+000	6.49357E-004	-3.27687E+002	7	...........
	315	316	3.74799E+000	-1.76640E-006	0.00000E+000	-6.62045E-006	0.00000E+000	6.49207E-004	-3.27687E+002	7	...........
	316	317	3.74798E+000	-1.76621E-006	0.00000E+000	-6.61973E-006	0.00000E+000	6.49390E-004	-3.27687E+002	7	...........
	317	318	3.74799E+000	-1.76592E-006	0.00000E+000	-6.61866E-006	0.00000E+000	6.49124E-004	-3.27687E+002	7	...........
	318	319	3.74800E+000	-1.76638E-006	0.00000E+000	-6.62038E-006	0.00000E+000	6.49040E-004	-3.27687E+002	7	...........
	319	320	3.74800E+000	-1.76625E-006	0.00000E+000	-6.61991E-006	0.00000E+000	6.48174E-004	-3.27687E+002	7	...........
	320	321	3.74800E+000	-1.76610E-006	0.00000E+000	-6.61936E-006	0.00000E+000	6.50307E-004	-3.27687E+002	7	...........
	321	322	3.74801E+000	-1.76662E-006	0.00000E+000	-6.62133E-006	0.00000E+000	6.49240E-004	-3.27687E+002	7	...........
	322	323	3.74801E+000	-1.76687E-006	0.00000E+000	-6.62225E-006	0.00000E+000	6.48674E-004	-3.27687E+002	7	...........
	323	324	3.74802E+000	-1.76717E-006	0.00000E+000	-6.62340E-006	0.00000E+000	6.50324E-004	-3.27687E+002	7	...........
	324	325	3.74803E+000	-1.76670E-006	0.00000E+000	-6.62164E-006	0.00000E+000	6.48390E-004	-3.27687E+002	7	...........
	325	326	3.74803E+000	-1.76622E-006	0.00000E+000	-6.61984E-006	0.00000E+000	6.49174E-004	-3.27687E+002	7	...........
	326	327	3.74803E+000	-1.76673E-006	0.00000E+000	-6.62174E-006	0.00000E+000	6.49990E-004	-3.27687E+002	7	...........
	327	328	3.74804E+000	-1.76634E-006	0.00000E+000	-6.62030E-006	0.00000E+000	6.49857E-004	-3.27687E+002	7	...........
	328	329	3.74804E+000	-1.76565E-006	0.00000E+000	-6.61775E-006	0.00000E+000	6.48074E-004	-3.27687E+002	7	...........
	329	330	3.74805E+000	-1.76586E-006	0.00000E+000	-6.61855E-006	0.00000E+000	6.48274E-004	-3.27687E+002	7	...........
	330	331	3.74806E+000	-1.76598E-006	0.00000E+000	-6.61901E-006	0.00000E+000	6.48824E-004	-3.27687E+002	7	...........
	331	332	3.74806E+000	-1.76575E-006	0.00000E+000	-6.61812E-006	0.00000E+000	6.50590E-004	-3.27687E+002	7	...........
	332	333	3.74807E+000	-1.76537E-006	0.00000E+000	-6.61672E-006	0.00000E+000	6.53940E-004	-3.27687E+002	7	...........
	333	334	3.74807E+000	-1.76544E-006	0.00000E+000	-6.61697E-006	0.00000E+000	6.50107E-004	-3.27687E+002	7	...........
	334	335	3.74808E+000	-1.76529E-006	0.00000E+000	-6.61645E-006	0.00000E+000	6.48007E-004	-3.27687E+002	7	...........
	335	336	3.74809E+000	-1.76535E-006	0.00000E+000	-6.61668E-006	0.00000E+000	6.51674E-004	-3.27687E+002	7	...........
	336	337	3.74809E+000	-1.76563E-006	0.00000E+000	-6.61775E-006	0.00000E+000	6.51040E-004	-3.27687E+002	7	...........
	337	338	3.74810E+000	-1.76510E-006	0.00000E+000	-6.61576E-006	0.00000E+000	6.51340E-004	-3.27687E+002	7	...........
	338	339	3.74810E+000	-1.76528E-006	0.00000E+000	-6.61646E-006	0.00000E+000	6.51090E-004	-3.27687E+002	7	...........
	339	340	3.74810E+000	-1.76577E-006	0.00000E+000	-6.61828E-006	0.00000E+000	6.53440E-004	-3.27687E+002	7	...........
	340	341	3.74811E+000	-1.76582E-006	0.00000E+000	-6.61848E-006	0.00000E+000	6.52490E-004	-3.27687E+002	7	...........
	341	342	3.74811E+000	-1.76555E-006	0.00000E+000	-6.61749E-006	0.00000E+000	6.50390E-004	-3.27687E+002	7	...........
	342	343	3.74813E+000	-1.76525E-006	0.00000E+000	-6.61639E-006	0.00000E+000	6.49924E-004	-3.27687E+002	7	...........
	343	344	3.74813E+000	-1.76461E-006	0.00000E+000	-6.61397E-006	0.00000E+000	6.52624E-004	-3.27687E+002	7	...........
	344	345	3.74812E+000	-1.76353E-006	0.00000E+000	-6.60994E-006	0.00000E+000	6.50674E-004	-3.27687E+002	7	...........
	345	346	3.74813E+000	-1.76476E-006	0.00000E+000	-6.61455E-006	0.00000E+000	6.52824E-004	-3.27687E+002	7	...........
	346	347	3.74814E+000	-1.76516E-006	0.00000E+000	-6.61606E-006	0.00000E+000	6.50424E-004	-3.27687E+002	7	...........
	347	348	3.74814E+000	-1.76454E-006	0.00000E+000	-6.61374E-006	0.00000E+000	6.52040E-004	-3.27687E+002	7	...........
	348	349	3.74815E+000	-1.76434E-006	0.00000E+000	-6.61300E-006	0.00000E+000	6.51707E-004	-3.27687E+002	7	...........
	349	350	3.74816E+000	-1.76453E-006	0.00000E+000	-6.61373E-006	0.00000E+000	6.53457E-004	-3.27687E+002	7	...........
	350	351	3.74816E+000	-1.76478E-006	0.00000E+000	-6.61469E-006	0.00000E+000	6.53007E-004	-3.27687E+002	7	...........
	351	352	3.74816E+000	-1.76471E-006	0.00000E+000	-6.61441E-006	0.00000E+000	6.53907E-004	-3.27687E+002	7	...........
	352	353	3.74817E+000	-1.76479E-006	0.00000E+000	-6.61471E-006	0.00000E+000	6.51940E-004	-3.27687E+002	7	...........
	353	354	3.74817E+000	-1.76510E-006	0.00000E+000	-6.61589E-006	0.00000E+000	6.52507E-004	-3.27687E+002	7	...........
	354	355	3.74817E+000	-1.76490E-006	0.00000E+000	-6.61514E-006	0.00000E+000	6.50257E-004	-3.27687E+002	7	...........
	355	356	3.74818E+000	-1.76494E-006	0.00000E+000	-6.61531E-006	0.00000E+000	6.49624E-004	-3.27687E+002	7	...........
	356	357	3.74819E+000	-1.76488E-006	0.00000E+000	-6.61510E-006	0.00000E+000	6.51524E-004	-3.27687E+002	7	...........
	357	358	3.74819E+000	-1.76508E-006	0.00000E+000	-6.61586E-006	0.00000E+000	6.50657E-004	-3.27687E+002	7	...........
	358	359	3.74820E+000	-1.76491E-006	0.00000E+000	-6.61524E-006	0.00000E+000	6.51157E-004	-3.27687E+002	7	...........
	359	360	3.74820E+000	-1.76427E-006	0.00000E+000	-6.61283E-006	0.00000E+000	6.53124E-004	-3.27687E+002	7	...........
	360	361	3.74820E+000	-1.76360E-006	0.00000E+000	-6.61034E-006	0.00000E+000	6.50924E-004	-3.27687E+002	7	...........
	361	362	3.74821E+000	-1.76415E-006	0.00000E+000	-6.61239E-006	0.00000E+000	6.53074E-004	-3.27687E+002	7	...........
	362	363	3.74822E+000	-1.76425E-006	0.00000E+000	-6.61277E-006	0.00000E+000	6.50507E-004	-3.27687E+002	7	...........
	363	364	3.74822E+000	-1.76426E-006	0.00000E+000	-6.61283E-006	0.00000E+000	6.51024E-004	-3.27687E+002	7	...........
	364	365	3.74822E+000	-1.76411E-006	0.00000E+000	-6.61228E-006	0.00000E+000	6.53674E-004	-3.27687E+002	7	...........
	365	366	3.74823E+000	-1.76339E-006	0.00000E+000	-6.60959E-006	0.00000E+000	6.48840E-004	-3.27687E+002	7	...........
	366	367	3.74823E+000	-1.76334E-006	0.00000E+000	-6.60941E-006	0.00000E+000	6.51474E-004	-3.27687E+002	7	...........
	367	368	3.74824E+000	-1.76363E-006	0.00000E+000	-6.61052E-006	0.00000E+000	6.51907E-004	-3.27687E+002	7	...........
	368	369	3.74825E+000	-1.76308E-006	0.00000E+000	-6.60845E-006	0.00000E+000	6.49690E-004	-3.27687E+002	7	...........
	369	370	3.74824E+000	-1.76310E-006	0.00000E+000	-6.60851E-006	0.00000E+000	6.51074E-004	-3.27687E+002	7	...........
	370	371	3.74826E+000	-1.76318E-006	0.00000E+000	-6.60884E-006	0.00000E+000	6.48040E-004	-3.27687E+002	7	...........
	371	372	3.74826E+000	-1.76362E-006	0.00000E+000	-6.61051E-006	0.00000E+000	6.48990E-004	-3.27687E+002	7	...........
	372	373	3.74826E+000	-1.76380E-006	0.00000E+000	-6.61118E-006	0.00000E+000	6.48274E-004	-3.27687E+002	7	...........
	373	374	3.74827E+000	-1.76362E-006	0.00000E+000	-6.61051E-006	0.00000E+000	6.50174E-004	-3.27687E+002	7	...........
	374	375	3.74828E+000	-1.76327E-006	0.00000E+000	-6.60921E-006	0.00000E+000	6.49157E-004	-3.27687E+002	7	...........
	375	376	3.74827E+000	-1.76297E-006	0.00000E+000	-6.60808E-006	0.00000E+000	6.50174E-004	-3.27687E+002	7	...........
	376	377	3.74828E+000	-1.76209E-006	0.00000E+000	-6.60481E-006	0.00000E+000	6.47674E-004	-3.27687E+002	7	...........
	377	378	3.74828E+000	-1.76282E-006	0.00000E+000	-6.60756E-006	0.00000E+000	6.50124E-004	-3.27687E+002	7	...........
	378	379	3.74828E+000	-1.76337E-006	0.00000E+000	-6.60963E-006	0.00000E+000	6.47757E-004	-3.27687E+002	7	...........
	379	380	3.74829E+000	-1.76363E-006	0.00000E+000	-6.61060E-006	0.00000E+000	6.49257E-004	-3.27687E+002	7	...........
	380	381	3.74829E+000	-1.76293E-006	0.00000E+000	-6.60799E-006	0.00000E+000	6.51140E-004	-3.27687E+002	7	...........
	381	382	3.74830E+000	-1.76286E-006	0.00000E+000	-6.60774E-006	0.00000E+000	6.51990E-004	-3.27687E+002	7	...........
	382	383	3.74830E+000	-1.76279E-006	0.00000E+000	-6.60748E-006	0.00000E+000	6.49657E-004	-3.27687E+002	7	...........
	383	384	3.74831E+000	-1.76296E-006	0.00000E+000	-6.60811E-006	0.00000E+000	6.50524E-004	-3.27687E+002	7	...........
	384	385	3.74831E+000	-1.76262E-006	0.00000E+000	-6.60687E-006	0.00000E+000	6.49240E-004	-3.27687E+002	7	...........
	385	386	3.74832E+000	-1.76267E-006	0.00000E+000	-6.60706E-006	0.00000E+000	6.48740E-004	-3.27687E+002	7	...........
	386	387	3.74833E+000	-1.76262E-006	0.00000E+000	-6.60688E-006	0.00000E+000	6.52057E-004	-3.27687E+002	7	...........
	387	388	3.74833E+000	-1.76272E-006	0.00000E+000	-6.60725E-006	0.00000E+000	6.49757E-004	-3.27687E+002	7	...........
	388	389	3.74834E+000	-1.76285E-006	0.00000E+000	-6.60778E-006	0.00000E+000	6.49524E-004	-3.27687E+002	7	...........
	389	390	3.74835E+000	-1.76352E-006	0.00000E+000	-6.61027E-006	0.00000E+000	6.50724E-004	-3.27687E+002	7	...........
	390	391	3.74834E+000	-1.76297E-006	0.00000E+000	-6.60821E-006	0.00000E+000	6.52957E-004	-3.27687E+002	7	...........
	391	392	3.74835E+000	-1.76284E-006	0.00000E+000	-6.60773E-006	0.00000E+000	6.51057E-004	-3.27687E+002	7	...........
	392	393	3.74836E+000	-1.76170E-006	0.00000E+000	-6.60347E-006	0.00000E+000	6.49074E-004	-3.27687E+002	7	...........
	393	394	3.74836E+000	-1.76232E-006	0.00000E+000	-6.60582E-006	0.00000E+000	6.47907E-004	-3.27687E+002	7	...........
	394	395	3.74837E+000	-1.76313E-006	0.00000E+000	-6.60885E-006	0.00000E+000	6.50124E-004	-3.27687E+002	7	...........
	395	396	3.74837E+000	-1.76326E-006	0.00000E+000	-6.60934E-006	0.00000E+000	6.50790E-004	-3.27687E+002	7	...........
	396	397	3.74837E+000	-1.76319E-006	0.00000E+000	-6.60910E-006	0.00000E+000	6.50940E-004	-3.27687E+002	7	...........
	397	398	3.74838E+000	-1.76329E-006	0.00000E+000	-6.60946E-006	0.00000E+000	6.50374E-004	-3.27687E+002	7	...........
	398	399	3.74838E+000	-1.76288E-006	0.00000E+000	-6.60793E-006	0.00000E+000	6.52190E-004	-3.27687E+002	7	...........
	399	400	3.74838E+000	-1.76289E-006	0.00000E+000	-6.60798E-006	0.00000E+000	6.50990E-004	-3.27687E+002	7	...........
	400	401	3.74839E+000	-1.76309E-006	0.00000E+000	-6.60874E-006	0.00000E+000	6.49390E-004	-3.27687E+002	7	...........
	401	402	3.74839E+000	-1.76332E-006	0.00000E+000	-6.60961E-006	0.00000E+000	6.51474E-004	-3.27687E+002	7	...........
	402	403	3.74839E+000	-1.76323E-006	0.00000E+000	-6.60925E-006	0.00000E+000	6.51174E-004	-3.27687E+002	7	...........
	403	404	3.74841E+000	-1.76312E-006	0.00000E+000	-6.60890E-006	0.00000E+000	6.53407E-004	-3.27687E+002	7	...........
	404	405	3.74840E+000	-1.76299E-006	0.00000E+000	-6.60840E-006	0.00000E+000	6.50957E-004	-3.27687E+002	7	...........
	405	406	3.74841E+000	-1.76318E-006	0.00000E+000	-6.60911E-006	0.00000E+000	6.54557E-004	-3.27687E+002	7	...........
	406	407	3.74842E+000	-1.76338E-006	0.00000E+000	-6.60987E-006	0.00000E+000	6.51257E-004	-3.27687E+002	7	...........
	407	408	3.74842E+000	-1.76286E-006	0.00000E+000	-6.60794E-006	0.00000E+000	6.51440E-004	-3.27687E+002	7	...........
	408	409	3.74842E+000	-1.76232E-006	0.00000E+000	-6.60590E-006	0.00000E+000	6.52790E-004	-3.27687E+002	7	...........
	409	410	3.74842E+000	-1.76244E-006	0.00000E+000	-6.60639E-006	0.00000E+000	6.54924E-004	-3.27687E+002	7	...........
	410	411	3.74844E+000	-1.76246E-006	0.00000E+000	-6.60646E-006	0.00000E+000	6.56157E-004	-3.27687E+002	7	...........
	411	412	3.74844E+000	-1.76238E-006	0.00000E+000	-6.60617E-006	0.00000E+000	6.55124E-004	-3.27687E+002	7	...........
	412	413	3.74844E+000	-1.76236E-006	0.00000E+000	-6.60610E-006	0.00000E+000	6.56924E-004	-3.27687E+002	7	...........
	413	414	3.74844E+000	-1.76271E-006	0.00000E+000	-6.60739E-006	0.00000E+000	6.54340E-004	-3.27687E+002	7	...........
	414	415	3.74845E+000	-1.76207E-006	0.00000E+000	-6.60502E-006	0.00000E+000	6.55140E-004	-3.27687E+002	7	...........
	415	416	3.74845E+000	-1.76205E-006	0.00000E+000	-6.60495E-006	0.00000E+000	6.53840E-004	-3.27687E+002	7	...........
	416	417	3.74845E+000	-1.76199E-006	0.00000E+000	-6.60474E-006	0.00000E+000	6.54124E-004	-3.27687E+002	7	...........
	417	418	3.74847E+000	-1.76221E-006	0.00000E+000	-6.60559E-006	0.00000E+000	6.52474E-004	-3.27687E+002	7	...........
	418	419	3.74847E+000	-1.76211E-006	0.00000E+000	-6.60521E-006	0.00000E+000	6.54357E-004	-3.27687E+002	7	...........
	419	420	3.74847E+000	-1.76210E-006	0.00000E+000	-6.60520E-006	0.00000E+000	6.53540E-004	-3.27687E+002	7	...........
	420	421	3.74847E+000	-1.76209E-006	0.00000E+000	-6.60516E-006	0.00000E+000	6.53357E-004	-3.27687E+002	7	...........
	421	422	3.74848E+000	-1.76233E-006	0.00000E+000	-6.60605E-006	0.00000E+000	6.50690E-004	-3.27687E+002	7	...........
	422	423	3.74848E+000	-1.76221E-006	0.00000E+000	-6.60559E-006	0.00000E+000	6.49724E-004	-3.27687E+002	7	...........
	423	424	3.74849E+000	-1.76190E-006	0.00000E+000	-6.60447E-006	0.00000E+000	6.52140E-004	-3.27687E+002	7	...........
	424	425	3.74849E+000	-1.76089E-006	0.00000E+000	-6.60066E-006	0.00000E+000	6.51457E-004	-3.27687E+002	7	...........
	425	426	3.74849E+000	-1.76130E-006	0.00000E+000	-6.60224E-006	0.00000E+000	6.52140E-004	-3.27687E+002	7	...........
	426	427	3.74850E+000	-1.76191E-006	0.00000E+000	-6.60454E-006	0.00000E+000	6.53640E-004	-3.27687E+002	7	...........
	427	428	3.74850E+000	-1.76236E-006	0.00000E+000	-6.60621E-006	0.00000E+000	6.51174E-004	-3.27687E+002	7	...........
	428	429	3.74850E+000	-1.76204E-006	0.00000E+000	-6.60501E-006	0.00000E+000	6.51857E-004	-3.27687E+002	7	...........
	429	430	3.74851E+000	-1.76188E-006	0.00000E+000	-6.60442E-006	0.00000E+000	6.51207E-004	-3.27687E+002	7	...........
	430	431	3.74852E+000	-1.76203E-006	0.00000E+000	-6.60501E-006	0.00000E+000	6.53090E-004	-3.27687E+002	7	...........
	431	432	3.74853E+000	-1.76213E-006	0.00000E+000	-6.60542E-006	0.00000E+000	6.51140E-004	-3.27687E+002	7	...........
	432	433	3.74854E+000	-1.76237E-006	0.00000E+000	-6.60631E-006	0.00000E+000	6.53107E-004	-3.27687E+002	7	...........
	433	434	3.74854E+000	-1.76248E-006	0.00000E+000	-6.60672E-006	0.00000E+000	6.53357E-004	-3.27687E+002	7	...........
	434	435	3.74854E+000	-1.76225E-006	0.00000E+000	-6.60588E-006	0.00000E+000	6.52640E-004	-3.27687E+002	7	...........
	435	436	3.74855E+000	-1.76197E-006	0.00000E+000	-6.60483E-006	0.00000E+000	6.53657E-004	-3.27687E+002	7	...........
	436	437	3.74855E+000	-1.76208E-006	0.00000E+000	-6.60527E-006	0.00000E+000	6.53490E-004	-3.27687E+002	7	...........
	437	438	3.74856E+000	-1.76224E-006	0.00000E+000	-6.60585E-006	0.00000E+000	6.52040E-004	-3.27687E+002	7	...........
	438	439	3.74856E+000	-1.76240E-006	0.00000E+000	-6.60647E-006	0.00000E+000	6.52307E-004	-3.27687E+002	7	...........
	439	440	3.74856E+000	-1.76209E-006	0.00000E+000	-6.60528E-006	0.00000E+000	6.52590E-004	-3.27687E+002	7	...........
	440	441	3.74856E+000	-1.76128E-006	0.00000E+000	-6.60226E-006	0.00000E+000	6.51857E-004	-3.27687E+002	7	...........
	441	442	3.74856E+000	-1.76201E-006	0.00000E+000	-6.60501E-006	0.00000E+000	6.54890E-004	-3.27687E+002	7	...........
	442	443	3.74856E+000	-1.76269E-006	0.00000E+000	-6.60756E-006	0.00000E+000	6.53657E-004	-3.27687E+002	7	...........
	443	444	3.74857E+000	-1.76241E-006	0.00000E+000	-6.60650E-006	0.00000E+000	6.52724E-004	-3.27687E+002	7	...........
	444	445	3.74857E+000	-1.76237E-006	0.00000E+000	-6.60638E-006	0.00000E+000	6.54057E-004	-3.27687E+002	7	...........
	445	446	3.74859E+000	-1.76177E-006	0.00000E+000	-6.60416E-006	0.00000E+000	6.52757E-004	-3.27687E+002	7	...........
	446	447	3.74858E+000	-1.76202E-006	0.00000E+000	-6.60508E-006	0.00000E+000	6.51107E-004	-3.27687E+002	7	...........
	447	448	3.74858E+000	-1.76173E-006	0.00000E+000	-6.60399E-006	0.00000E+000	6.53607E-004	-3.27687E+002	7	...........
	448	449	3.74859E+000	-1.76216E-006	0.00000E+000	-6.60562E-006	0.00000E+000	6.53407E-004	-3.27687E+002	7	...........
	449	450	3.74861E+000	-1.76190E-006	0.00000E+000	-6.60465E-006	0.00000E+000	6.54507E-004	-3.27687E+002	7	...........
	450	451	3.74861E+000	-1.76166E-006	0.00000E+000	-6.60376E-006	0.00000E+000	6.53674E-004	-3.27687E+002	7	...........
	451	452	3.74861E+000	-1.76179E-006	0.00000E+000	-6.60427E-006	0.00000E+000	6.54207E-004	-3.27687E+002	7	...........
	452	453	3.74862E+000	-1.76145E-006	0.00000E+000	-6.60300E-006	0.00000E+000	6.53724E-004	-3.27687E+002	7	...........
	453	454	3.74863E+000	-1.76175E-006	0.00000E+000	-6.60414E-006	0.00000E+000	6.54124E-004	-3.27687E+002	7	...........
	454	455	3.74863E+000	-1.76125E-006	0.00000E+000	-6.60229E-006	0.00000E+000	6.56940E-004	-3.27687E+002	7	...........
	455	456	3.74863E+000	-1.76101E-006	0.00000E+000	-6.60137E-006	0.00000E+000	6.54240E-004	-3.27687E+002	7	...........
	456	457	3.74863E+000	-1.76012E-006	0.00000E+000	-6.59805E-006	0.00000E+000	6.52740E-004	-3.27687E+002	7	...........
	457	458	3.74864E+000	-1.76019E-006	0.00000E+000	-6.59832E-006	0.00000E+000	6.51924E-004	-3.27687E+002	7	...........
	458	459	3.74864E+000	-1.76116E-006	0.00000E+000	-6.60195E-006	0.00000E+000	6.54090E-004	-3.27687E+002	7	...........
	459	460	3.74864E+000	-1.76088E-006	0.00000E+000	-6.60088E-006	0.00000E+000	6.55957E-004	-3.27687E+002	7	...........
	460	461	3.74865E+000	-1.76127E-006	0.00000E+000	-6.60237E-006	0.00000E+000	6.54107E-004	-3.27687E+002	7	...........
	461	462	3.74865E+000	-1.76134E-006	0.00000E+000	-6.60266E-006	0.00000E+000	6.56424E-004	-3.27687E+002	7	...........
	462	463	3.74865E+000	-1.76150E-006	0.00000E+000	-6.60324E-006	0.00000E+000	6.54857E-004	-3.27687E+002	7	...........
	463	464	3.74866E+000	-1.76118E-006	0.00000E+000	-6.60208E-006	0.00000E+000	6.54390E-004	-3.27687E+002	7	...........
	464	465	3.74865E+000	-1.76117E-006	0.00000E+000	-6.60201E-006	0.00000E+000	6.53657E-004	-3.27687E+002	7	...........
	465	466	3.74866E+000	-1.76126E-006	0.00000E+000	-6.60236E-006	0.00000E+000	6.55274E-004	-3.27687E+002	7	...........
	466	467	3.74867E+000	-1.76132E-006	0.00000E+000	-6.60259E-006	0.00000E+000	6.53440E-004	-3.27687E+002	7	...........
	467	468	3.74868E+000	-1.76171E-006	0.00000E+000	-6.60407E-006	0.00000E+000	6.52940E-004	-3.27687E+002	7	...........
	468	469	3.74868E+000	-1.76241E-006	0.00000E+000	-6.60673E-006	0.00000E+000	6.54324E-004	-3.27687E+002	7	...........
	469	470	3.74869E+000	-1.76200E-006	0.00000E+000	-6.60520E-006	0.00000E+000	6.55524E-004	-3.27687E+002	7	...........
	470	471	3.74869E+000	-1.76161E-006	0.00000E+000	-6.60374E-006	0.00000E+000	6.52340E-004	-3.27687E+002	7	...........
	471	472	3.74870E+000	-1.76184E-006	0.00000E+000	-6.60461E-006	0.00000E+000	6.54424E-004	-3.27687E+002	7	...........
	472	473	3.74870E+000	-1.76098E-006	0.00000E+000	-6.60136E-006	0.00000E+000	6.51790E-004	-3.27687E+002	7	...........
	473	474	3.74870E+000	-1.76056E-006	0.00000E+000	-6.59983E-006	0.00000E+000	6.54207E-004	-3.27687E+002	7	...........
	474	475	3.74871E+000	-1.76137E-006	0.00000E+000	-6.60287E-006	0.00000E+000	6.51874E-004	-3.27687E+002	7	...........
	475	476	3.74871E+000	-1.76155E-006	0.00000E+000	-6.60352E-006	0.00000E+000	6.53590E-004	-3.27687E+002	7	...........
	476	477	3.74871E+000	-1.76121E-006	0.00000E+000	-6.60226E-006	0.00000E+000	6.54674E-004	-3.27687E+002	7	...........
	477	478	3.74872E+000	-1.76117E-006	0.00000E+000	-6.60214E-006	0.00000E+000	6.54090E-004	-3.27687E+002	7	...........
	478	479	3.74872E+000	-1.76087E-006	0.00000E+000	-6.60102E-006	0.00000E+000	6.55140E-004	-3.27687E+002	7	...........
	479	480	3.74873E+000	-1.76064E-006	0.00000E+000	-6.60016E-006	0.00000E+000	6.54624E-004	-3.27687E+002	7	...........
	480	481	3.74873E+000	-1.76042E-006	0.00000E+000	-6.59932E-006	0.00000E+000	6.50974E-004	-3.27687E+002	7	...........
	481	482	3.74873E+000	-1.76074E-006	0.00000E+000	-6.60053E-006	0.00000E+000	6.53590E-004	-3.27687E+002	7	...........
	482	483	3.74874E+000	-1.76067E-006	0.00000E+000	-6.60030E-006	0.00000E+000	6.53607E-004	-3.27687E+002	7	...........
	483	484	3.74874E+000	-1.76092E-006	0.00000E+000	-6.60125E-006	0.00000E+000	6.53290E-004	-3.27687E+002	7	...........
	484	485	3.74875E+000	-1.76109E-006	0.00000E+000	-6.60188E-006	0.00000E+000	6.52407E-004	-3.27687E+002	7	...........
	485	486	3.74875E+000	-1.76126E-006	0.00000E+000	-6.60250E-006	0.00000E+000	6.52824E-004	-3.27687E+002	7	...........
	486	487	3.74875E+000	-1.76095E-006	0.00000E+000	-6.60136E-006	0.00000E+000	6.52207E-004	-3.27687E+002	7	...........
	487	488	3.74876E+000	-1.76089E-006	0.00000E+000	-6.60114E-006	0.00000E+000	6.55090E-004	-3.27687E+002	7	...........
	488	489	3.74876E+000	-1.76027E-006	0.00000E+000	-6.59883E-006	0.00000E+000	6.54207E-004	-3.27687E+002	7	...........
	489	490	3.74877E+000	-1.75969E-006	0.00000E+000	-6.59667E-006	0.00000E+000	6.51174E-004	-3.27687E+002	7	...........
	490	491	3.74878E+000	-1.76010E-006	0.00000E+000	-6.59821E-006	0.00000E+000	6.54240E-004	-3.27687E+002	7	...........
	491	492	3.74878E+000	-1.76054E-006	0.00000E+000	-6.59988E-006	0.00000E+000	6.52407E-004	-3.27687E+002	7	...........
	492	493	3.74879E+000	-1.76085E-006	0.00000E+000	-6.60104E-006	0.00000E+000	6.53107E-004	-3.27687E+002	7	...........
	493	494	3.74879E+000	-1.76095E-006	0.00000E+000	-6.60143E-006	0.00000E+000	6.51790E-004	-3.27687E+002	7	...........
	494	495	3.74879E+000	-1.76015E-006	0.00000E+000	-6.59845E-006	0.00000E+000	6.52990E-004	-3.27687E+002	7	...........
	495	496	3.74879E+000	-1.76062E-006	0.00000E+000	-6.60018E-006	0.00000E+000	6.53057E-004	-3.27687E+002	7	...........
	496	497	3.74879E+000	-1.76070E-006	0.00000E+000	-6.60050E-006	0.00000E+000	6.52757E-004	-3.27687E+002	7	...........
	497	498	3.74880E+000	-1.76074E-006	0.00000E+000	-6.60065E-006	0.00000E+000	6.54190E-004	-3.27687E+002	7	...........
	498	499	3.74881E+000	-1.76111E-006	0.00000E+000	-6.60205E-006	0.00000E+000	6.53507E-004	-3.27687E+002	7	...........
	499	500	3.74880E+000	-1.76152E-006	0.00000E+000	-6.60360E-006	0.00000E+000	6.52640E-004	-3.27687E+002	7	...........
	500	501	3.74881E+000	-1.76163E-006	0.00000E+000	-6.60399E-006	0.00000E+000	6.52424E-004	-3.27687E+002	7	...........
	501	502	3.74881E+000	-1.76158E-006	0.00000E+000	-6.60383E-006	0.00000E+000	6.51924E-004	-3.27687E+002	7	...........
	502	503	3.74881E+000	-1.76170E-006	0.00000E+000	-6.60427E-006	0.00000E+000	6.53824E-004	-3.27687E+002	7	...........
	503	504	3.74882E+000	-1.76146E-006	0.00000E+000	-6.60340E-006	0.00000E+000	6.56074E-004	-3.27687E+002	7	...........
	504	505	3.74882E+000	-1.76053E-006	0.00000E+000	-6.59991E-006	0.00000E+000	6.55807E-004	-3.27687E+002	7	...........
	505	506	3.74883E+000	-1.76002E-006	0.00000E+000	-6.59800E-006	0.00000E+000	6.51707E-004	-3.27687E+002	7	...........
	506	507	3.74882E+000	-1.76043E-006	0.00000E+000	-6.59954E-006	0.00000E+000	6.54157E-004	-3.27687E+002	7	...........
	507	508	3.74883E+000	-1.76074E-006	0.00000E+000	-6.60069E-006	0.00000E+000	6.53390E-004	-3.27687E+002	7	...........
	508	509	3.74883E+000	-1.76046E-006	0.00000E+000	-6.59967E-006	0.00000E+000	6.54707E-004	-3.27687E+002	7	...........
	509	510	3.74884E+000	-1.76060E-006	0.00000E+000	-6.60020E-006	0.00000E+000	6.54324E-004	-3.27687E+002	7	...........
	510	511	3.74885E+000	-1.76035E-006	0.00000E+000	-6.59930E-006	0.00000E+000	6.52624E-004	-3.27687E+002	7	...........
	511	512	3.74886E+000	-1.76025E-006	0.00000E+000	-6.59890E-006	0.00000E+000	6.52890E-004	-3.27687E+002	7	...........
	512	513	3.74885E+000	-1.76018E-006	0.00000E+000	-6.59866E-006	0.00000E+000	6.52557E-004	-3.27687E+002	7	...........
	513	514	3.74886E+000	-1.76046E-006	0.00000E+000	-6.59970E-006	0.00000E+000	6.53640E-004	-3.27687E+002	7	...........
	514	515	3.74887E+000	-1.76034E-006	0.00000E+000	-6.59929E-006	0.00000E+000	6.50674E-004	-3.27687E+002	7	...........
	515	516	3.74886E+000	-1.76075E-006	0.00000E+000	-6.60080E-006	0.00000E+000	6.51540E-004	-3.27687E+002	7	...........
	516	517	3.74887E+000	-1.76086E-006	0.00000E+000	-6.60124E-006	0.00000E+000	6.51240E-004	-3.27687E+002	7	...........
	517	518	3.74887E+000	-1.75997E-006	0.00000E+000	-6.59789E-006	0.00000E+000	6.53724E-004	-3.27687E+002	7	...........
	518	519	3.74888E+000	-1.76006E-006	0.00000E+000	-6.59827E-006	0.00000E+000	6.51740E-004	-3.27687E+002	7	...........
	519	520	3.74889E+000	-1.75999E-006	0.00000E+000	-6.59802E-006	0.00000E+000	6.50257E-004	-3.27687E+002	7	...........
	520	521	3.74889E+000	-1.75989E-006	0.00000E+000	-6.59765E-006	0.00000E+000	6.53157E-004	-3.27687E+002	7	...........
	521	522	3.74889E+000	-1.75915E-006	0.00000E+000	-6.59487E-006	0.00000E+000	6.52307E-004	-3.27687E+002	7	...........
	522	523	3.74889E+000	-1.75942E-006	0.00000E+000	-6.59587E-006	0.00000E+000	6.51107E-004	-3.27687E+002	7	...........
	523	524	3.74889E+000	-1.75980E-006	0.00000E+000	-6.59730E-006	0.00000E+000	6.51990E-004	-3.27687E+002	7	...........
	524	525	3.74891E+000	-1.75987E-006	0.00000E+000	-6.59757E-006	0.00000E+000	6.53874E-004	-3.27687E+002	7	...........
	525	526	3.74890E+000	-1.76002E-006	0.00000E+000	-6.59815E-006	0.00000E+000	6.54924E-004	-3.27687E+002	7	...........
	526	527	3.74891E+000	-1.75951E-006	0.00000E+000	-6.59625E-006	0.00000E+000	6.52574E-004	-3.27687E+002	7	...........
	527	528	3.74891E+000	-1.75955E-006	0.00000E+000	-6.59639E-006	0.00000E+000	6.52574E-004	-3.27687E+002	7	...........
	528	529	3.74892E+000	-1.75962E-006	0.00000E+000	-6.59667E-006	0.00000E+000	6.54090E-004	-3.27687E+002	7	...........
	529	530	3.74891E+000	-1.75944E-006	0.00000E+000	-6.59600E-006	0.00000E+000	6.50774E-004	-3.27687E+002	7	...........
	530	531	3.74892E+000	-1.75987E-006	0.00000E+000	-6.59762E-006	0.00000E+000	6.52974E-004	-3.27687E+002	7	...........
	531	532	3.74892E+000	-1.76028E-006	0.00000E+000	-6.59914E-006	0.00000E+000	6.52607E-004	-3.27687E+002	7	...........
	532	533	3.74893E+000	-1.75986E-006	0.00000E+000	-6.59758E-006	0.00000E+000	6.50724E-004	-3.27687E+002	7	...........
	533	534	3.74893E+000	-1.76057E-006	0.00000E+000	-6.60026E-006	0.00000E+000	6.56174E-004	-3.27687E+002	7	...........
	534	535	3.74893E+000	-1.76064E-006	0.00000E+000	-6.60054E-006	0.00000E+000	6.51574E-004	-3.27687E+002	7	...........
	535	536	3.74894E+000	-1.76082E-006	0.00000E+000	-6.60122E-006	0.00000E+000	6.51774E-004	-3.27687E+002	7	...........
	536	537	3.74895E+000	-1.76047E-006	0.00000E+000	-6.59992E-006	0.00000E+000	6.53057E-004	-3.27687E+002	7	...........
	537	538	3.74895E+000	-1.75943E-006	0.00000E+000	-6.59602E-006	0.00000E+000	6.56574E-004	-3.27687E+002	7	...........
	538	539	3.74895E+000	-1.75918E-006	0.00000E+000	-6.59509E-006	0.00000E+000	6.54290E-004	-3.27687E+002	7	...........
	539	540	3.74895E+000	-1.76032E-006	0.00000E+000	-6.59937E-006	0.00000E+000	6.53724E-004	-3.27687E+002	7	...........
	540	541	3.74896E+000	-1.76016E-006	0.00000E+000	-6.59875E-006	0.00000E+000	6.52057E-004	-3.27687E+002	7	...........
	541	542	3.74895E+000	-1.76043E-006	0.00000E+000	-6.59975E-006	0.00000E+000	6.52107E-004	-3.27687E+002	7	...........
	542	543	3.74896E+000	-1.76040E-006	0.00000E+000	-6.59968E-006	0.00000E+000	6.53790E-004	-3.27687E+002	7	...........
	543	544	3.74895E+000	-1.76012E-006	0.00000E+000	-6.59860E-006	0.00000E+000	6.54357E-004	-3.27687E+002	7	...........
	544	545	3.74896E+000	-1.75995E-006	0.00000E+000	-6.59800E-006	0.00000E+000	6.54074E-004	-3.27687E+002	7	...........
	545	546	3.74897E+000	-1.76017E-006	0.00000E+000	-6.59883E-006	0.00000E+000	6.52990E-004	-3.27687E+002	7	...........
	546	547	3.74898E+000	-1.76002E-006	0.00000E+000	-6.59827E-006	0.00000E+000	6.54690E-004	-3.27687E+002	7	...........
	547	548	3.74897E+000	-1.76030E-006	0.00000E+000	-6.59932E-006	0.00000E+000	6.55174E-004	-3.27687E+002	7	...........
	548	549	3.74898E+000	-1.76015E-006	0.00000E+000	-6.59876E-006	0.00000E+000	6.53757E-004	-3.27687E+002	7	...........
	549	550	3.74898E+000	-1.76065E-006	0.00000E+000	-6.60065E-006	0.00000E+000	6.54174E-004	-3.27687E+002	7	...........
	550	551	3.74899E+000	-1.76007E-006	0.00000E+000	-6.59848E-006	0.00000E+000	6.54174E-004	-3.27687E+002	7	...........
	551	552	3.74899E+000	-1.76010E-006	0.00000E+000	-6.59861E-006	0.00000E+000	6.51674E-004	-3.27687E+002	7	...........
	552	553	3.74899E+000	-1.75933E-006	0.00000E+000	-6.59570E-006	0.00000E+000	6.53007E-004	-3.27687E+002	7	...........
	553	554	3.74900E+000	-1.75880E-006	0.00000E+000	-6.59375E-006	0.00000E+000	6.53107E-004	-3.27687E+002	7	...........
	554	555	3.74900E+000	-1.75853E-006	0.00000E+000	-6.59272E-006	0.00000E+000	6.52407E-004	-3.27687E+002	7	...........
	555	556	3.74900E+000	-1.75950E-006	0.00000E+000	-6.59637E-006	0.00000E+000	6.53024E-004	-3.27687E+002	7	...........
	556	557	3.74900E+000	-1.75996E-006	0.00000E+000	-6.59809E-006	0.00000E+000	6.53290E-004	-3.27687E+002	7	...........
	557	558	3.74901E+000	-1.75956E-006	0.00000E+000	-6.59661E-006	0.00000E+000	6.52890E-004	-3.27687E+002	7	...........
	558	559	3.74901E+000	-1.75890E-006	0.00000E+000	-6.59413E-006	0.00000E+000	6.51074E-004	-3.27687E+002	7	...........
	559	560	3.74903E+000	-1.75900E-006	0.00000E+000	-6.59452E-006	0.00000E+000	6.53424E-004	-3.27687E+002	7	...........
	560	561	3.74902E+000	-1.75903E-006	0.00000E+000	-6.59464E-006	0.00000E+000	6.53440E-004	-3.27687E+002	7	...........
	561	562	3.74902E+000	-1.75912E-006	0.00000E+000	-6.59499E-006	0.00000E+000	6.55290E-004	-3.27687E+002	7	...........
	562	563	3.74902E+000	-1.75953E-006	0.00000E+000	-6.59652E-006	0.00000E+000	6.52290E-004	-3.27687E+002	7	...........
	563	564	3.74902E+000	-1.76007E-006	0.00000E+000	-6.59852E-006	0.00000E+000	6.50624E-004	-3.27687E+002	7	...........
	564	565	3.74903E+000	-1.75957E-006	0.00000E+000	-6.59668E-006	0.00000E+000	6.53074E-004	-3.27687E+002	7	...........
	565	566	3.74903E+000	-1.75967E-006	0.00000E+000	-6.59703E-006	0.00000E+000	6.51540E-004	-3.27687E+002	7	...........
	566	567	3.74903E+000	-1.75940E-006	0.00000E+000	-6.59605E-006	0.00000E+000	6.53224E-004	-3.27687E+002	7	...........
	567	568	3.74904E+000	-1.75993E-006	0.00000E+000	-6.59806E-006	0.00000E+000	6.53057E-004	-3.27687E+002	7	...........
	568	569	3.74904E+000	-1.75926E-006	0.00000E+000	-6.59553E-006	0.00000E+000	6.51407E-004	-3.27687E+002	7	...........
	569	570	3.74904E+000	-1.75873E-006	0.00000E+000	-6.59354E-006	0.00000E+000	6.48457E-004	-3.27687E+002	7	...........
	570	571	3.74905E+000	-1.75868E-006	0.00000E+000	-6.59340E-006	0.00000E+000	6.51340E-004	-3.27687E+002	7	...........
	571	572	3.74905E+000	-1.75971E-006	0.00000E+000	-6.59723E-006	0.00000E+000	6.52207E-004	-3.27687E+002	7	...........
	572	573	3.74905E+000	-1.75942E-006	0.00000E+000	-6.59616E-006	0.00000E+000	6.51674E-004	-3.27687E+002	7	...........
	573	574	3.74905E+000	-1.76026E-006	0.00000E+000	-6.59929E-006	0.00000E+000	6.51224E-004	-3.27687E+002	7	...........
	574	575	3.74905E+000	-1.75935E-006	0.00000E+000	-6.59589E-006	0.00000E+000	6.51307E-004	-3.27687E+002	7	...........
	575	576	3.74905E+000	-1.75954E-006	0.00000E+000	-6.59660E-006	0.00000E+000	6.51924E-004	-3.27687E+002	7	...........
	576	577	3.74905E+000	-1.75932E-006	0.00000E+000	-6.59577E-006	0.00000E+000	6.53007E-004	-3.27687E+002	7	...........
	577	578	3.74906E+000	-1.75938E-006	0.00000E+000	-6.59602E-006	0.00000E+000	6.54657E-004	-3.27687E+002	7	...........
	578	579	3.74906E+000	-1.75963E-006	0.00000E+000	-6.59696E-006	0.00000E+000	6.52590E-004	-3.27687E+002	7	...........
	579	580	3.74906E+000	-1.75893E-006	0.00000E+000	-6.59432E-006	0.00000E+000	6.51224E-004	-3.27687E+002	7	...........
	580	581	3.74907E+000	-1.75917E-006	0.00000E+000	-6.59525E-006	0.00000E+000	6.50240E-004	-3.27687E+002	7	...........
	581	582	3.74907E+000	-1.75982E-006	0.00000E+000	-6.59768E-006	0.00000E+000	6.51057E-004	-3.27687E+002	7	...........
	582	583	3.74907E+000	-1.75950E-006	0.00000E+000	-6.59650E-006	0.00000E+000	6.51690E-004	-3.27687E+002	7	...........
	583	584	3.74907E+000	-1.75990E-006	0.00000E+000	-6.59797E-006	0.00000E+000	6.52590E-004	-3.27687E+002	7	...........
	584	585	3.74908E+000	-1.75917E-006	0.00000E+000	-6.59526E-006	0.00000E+000	6.51574E-004	-3.27687E+002	7	...........
	585	586	3.74909E+000	-1.75903E-006	0.00000E+000	-6.59475E-006	0.00000E+000	6.50257E-004	-3.27687E+002	7	...........
	586	587	3.74909E+000	-1.75793E-006	0.00000E+000	-6.59063E-006	0.00000E+000	6.51807E-004	-3.27687E+002	7	...........
	587	588	3.74909E+000	-1.75912E-006	0.00000E+000	-6.59511E-006	0.00000E+000	6.50090E-004	-3.27687E+002	7	...........
	588	589	3.74909E+000	-1.75897E-006	0.00000E+000	-6.59455E-006	0.00000E+000	6.50240E-004	-3.27687E+002	7	...........
	589	590	3.74909E+000	-1.75884E-006	0.00000E+000	-6.59404E-006	0.00000E+000	6.49840E-004	-3.27687E+002	7	...........
	590	591	3.74909E+000	-1.75894E-006	0.00000E+000	-6.59444E-006	0.00000E+000	6.47840E-004	-3.27687E+002	7	...........
	591	592	3.74909E+000	-1.75891E-006	0.00000E+000	-6.59431E-006	0.00000E+000	6.51290E-004	-3.27687E+002	7	...........
	592	593	3.74909E+000	-1.75940E-006	0.00000E+000	-6.59616E-006	0.00000E+000	6.54057E-004	-3.27687E+002	7	...........
	593	594	3.74911E+000	-1.75941E-006	0.00000E+000	-6.59620E-006	0.00000E+000	6.51557E-004	-3.27687E+002	7	...........
	594	595	3.74909E+000	-1.75924E-006	0.00000E+000	-6.59554E-006	0.00000E+000	6.49090E-004	-3.27687E+002	7	...........
	595	596	3.74910E+000	-1.75986E-006	0.00000E+000	-6.59790E-006	0.00000E+000	6.49957E-004	-3.27687E+002	7	...........
	596	597	3.74910E+000	-1.76006E-006	0.00000E+000	-6.59863E-006	0.00000E+000	6.53907E-004	-3.27687E+002	7	...........
	597	598	3.74910E+000	-1.76007E-006	0.00000E+000	-6.59868E-006	0.00000E+000	6.50274E-004	-3.27687E+002	7	...........
	598	599	3.74910E+000	-1.75982E-006	0.00000E+000	-6.59774E-006	0.00000E+000	6.50957E-004	-3.27687E+002	7	...........
	599	600	3.74910E+000	-1.75961E-006	0.00000E+000	-6.59695E-006	0.00000E+000	6.51874E-004	-3.27687E+002	7	...........
