EXPLAIN
TAG	PWR800_READVOLTAGE
TITLE	LABEL	PWR Read Voltage	Test Identifier
DATE	LABEL	29.3.2024	Date
TIME	LABEL	14:18:20	Time
NOTES	NOTES	1	Notes...
	
PSTAT	PSTAT	REF600-12055	Potentiostat
CAPACITY	QUANT	1.00000E+000	Capacity (A-hr)
CELLTYPE	SELECTOR	1	Cell Type
WORKINGCONNECTION	SELECTOR	0	Working Connection
MAXTIME	VARIABLEANDUNITS	6.00000E+002	s	6.00000E+002	second(s)	Max Time
SAMPLETIME	QUANT	1.00000E+000	Sample Period (s)
STOPAT1	MULTIPARAM	0	0.00000E+000	Stop At 1	None	N/A
STOPAT2	MULTIPARAM	0	0.00000E+000	Stop At 2	None	N/A
AESBHCSELECTOR	TOGGLE	F	Save Both Half Cells
EOC	QUANT	0	Open Circuit (V)
SEQUENCER	TOGGLE	TRUE	Run as Sequence
PSTATMODEL	IQUANT	4	Pstat Model
PSTATSECTION	LABEL	REF600-12055	Pstat Section
PSTATSERIALNO	LABEL	12055	Pstat Serial Number
CTRLMODE	IQUANT	0	Control Mode
ELECTROMETER	IQUANT	0	RE=0 or CS=1
IESTAB	IQUANT	0	I/E Stability
CASPEED	IQUANT	4	Control Amp Speed
CONVENTION	IQUANT	1	Current Convention
ICHRANGE	IQUANT	2	Ich Range
ICHRANGEMODE	TOGGLE	T	Ich Auto Range
ICHOFFSETENABLE	TOGGLE	F	Ich Offset Enable
ICHOFFSET	QUANT	0	Ich Offset (V)
ICHFILTER	IQUANT	1	Ich Filter
VCHRANGE	IQUANT	3	Vch Range
VCHRANGEMODE	TOGGLE	T	Vch Auto Range
VCHOFFSETENABLE	TOGGLE	F	Vch Offset Enable
VCHOFFSET	QUANT	0	Vch Offset (V)
VCHFILTER	IQUANT	1	Vch Filter
ACHRANGE	IQUANT	2	Ach Range
ACHOFFSETENABLE	TOGGLE	F	Ach Offset Enable
ACHOFFSET	QUANT	0	Ach Offset (V)
ACHFILTER	IQUANT	1	Ach Filter
IERANGELOWERLIMIT	IQUANT	7	I/E Range Lower Limit
IERANGEMODE	TOGGLE	F	I/E AutoRange
IERANGE	IQUANT	11	I/E Range
POSFEEDENABLE	TOGGLE	F	Positive Feedback IR Comp
POSFEEDRESISTANCE	QUANT	0	Positive Feedback Resistance (ohm)
ACHSELECT	IQUANT	4	Ach Select
SENSECABLEID	IQUANT	14	Sense Cable ID
PWRCABLEID	IQUANT	14	Power Cable ID
DCCALDATE	LABEL	2/12/2024	DC Calibration Date
ACCALDATE	LABEL	2/12/2024	AC Calibration Date
THERMOSELECT	IQUANT	1	Thermo Select
FRAMEWORKVERSION	LABEL	7.10.3	Framework Version
INSTRUMENTVERSION	LABEL	4.91	Instrument Version
COMMVERSION	LABEL	2.24	Communications Version
CPUPLDVERSION	LABEL	0.00	CPU PLD Version
CTRLPLDVERSION	LABEL	0.00	CTRL PLD Version
PSTATPLDVERSION	LABEL	0.00	PSTAT PLD Version
CURVE	TABLE	600
	Pt	T	Vf	Im	Vu	Pwr	Sig	Ach	Temp	IERange	Over
	#	s	V	A	V	W	V	V	deg C	#	bits
	0	1	3.19379E+000	1.18520E-006	0.00000E+000	3.78529E-006	0.00000E+000	9.74740E-004	-3.27687E+002	7	...........
	1	2	3.19312E+000	1.18500E-006	0.00000E+000	3.78383E-006	0.00000E+000	9.73057E-004	-3.27687E+002	7	...........
	2	3	3.19280E+000	1.18609E-006	0.00000E+000	3.78695E-006	0.00000E+000	9.65257E-004	-3.27687E+002	7	...........
	3	4	3.19259E+000	1.18691E-006	0.00000E+000	3.78932E-006	0.00000E+000	9.62240E-004	-3.27687E+002	7	...........
	4	5	3.19239E+000	1.18661E-006	0.00000E+000	3.78811E-006	0.00000E+000	9.64874E-004	-3.27687E+002	7	...........
	5	6	3.19218E+000	1.18704E-006	0.00000E+000	3.78926E-006	0.00000E+000	9.64574E-004	-3.27687E+002	7	...........
	6	7	3.19200E+000	1.18794E-006	0.00000E+000	3.79189E-006	0.00000E+000	9.65607E-004	-3.27687E+002	7	...........
	7	8	3.19182E+000	1.18801E-006	0.00000E+000	3.79193E-006	0.00000E+000	9.66407E-004	-3.27687E+002	7	...........
	8	9	3.19166E+000	1.18787E-006	0.00000E+000	3.79128E-006	0.00000E+000	9.63257E-004	-3.27687E+002	7	...........
	9	10	3.19151E+000	1.18803E-006	0.00000E+000	3.79163E-006	0.00000E+000	9.63657E-004	-3.27687E+002	7	...........
	10	11	3.19136E+000	1.18801E-006	0.00000E+000	3.79138E-006	0.00000E+000	9.63107E-004	-3.27687E+002	7	...........
	11	12	3.19122E+000	1.18864E-006	0.00000E+000	3.79322E-006	0.00000E+000	9.61807E-004	-3.27687E+002	7	...........
	12	13	3.19108E+000	1.18848E-006	0.00000E+000	3.79255E-006	0.00000E+000	9.61507E-004	-3.27687E+002	7	...........
	13	14	3.19095E+000	1.18872E-006	0.00000E+000	3.79314E-006	0.00000E+000	9.64707E-004	-3.27687E+002	7	...........
	14	15	3.19081E+000	1.18886E-006	0.00000E+000	3.79341E-006	0.00000E+000	9.65907E-004	-3.27687E+002	7	...........
	15	16	3.19068E+000	1.18936E-006	0.00000E+000	3.79486E-006	0.00000E+000	9.65924E-004	-3.27687E+002	7	...........
	16	17	3.19054E+000	1.19038E-006	0.00000E+000	3.79795E-006	0.00000E+000	9.70940E-004	-3.27687E+002	7	...........
	17	18	3.19041E+000	1.19051E-006	0.00000E+000	3.79823E-006	0.00000E+000	9.76807E-004	-3.27687E+002	7	...........
	18	19	3.19030E+000	1.18959E-006	0.00000E+000	3.79517E-006	0.00000E+000	9.73140E-004	-3.27687E+002	7	...........
	19	20	3.19019E+000	1.19013E-006	0.00000E+000	3.79675E-006	0.00000E+000	9.77757E-004	-3.27687E+002	7	...........
	20	21	3.19008E+000	1.19044E-006	0.00000E+000	3.79760E-006	0.00000E+000	8.01207E-004	-3.27687E+002	7	...........
	21	22	3.18999E+000	1.19090E-006	0.00000E+000	3.79896E-006	0.00000E+000	7.18957E-004	-3.27687E+002	7	...........
	22	23	3.18988E+000	1.19131E-006	0.00000E+000	3.80013E-006	0.00000E+000	7.16907E-004	-3.27687E+002	7	...........
	23	24	3.18979E+000	1.19113E-006	0.00000E+000	3.79946E-006	0.00000E+000	7.15057E-004	-3.27687E+002	7	...........
	24	25	3.18970E+000	1.19165E-006	0.00000E+000	3.80099E-006	0.00000E+000	7.10474E-004	-3.27687E+002	7	...........
	25	26	3.18959E+000	1.19147E-006	0.00000E+000	3.80030E-006	0.00000E+000	7.08707E-004	-3.27687E+002	7	...........
	26	27	3.18947E+000	1.19222E-006	0.00000E+000	3.80256E-006	0.00000E+000	7.08590E-004	-3.27687E+002	7	...........
	27	28	3.18938E+000	1.19229E-006	0.00000E+000	3.80265E-006	0.00000E+000	7.09990E-004	-3.27687E+002	7	...........
	28	29	3.18929E+000	1.19215E-006	0.00000E+000	3.80211E-006	0.00000E+000	7.09107E-004	-3.27687E+002	7	...........
	29	30	3.18920E+000	1.19182E-006	0.00000E+000	3.80095E-006	0.00000E+000	7.10457E-004	-3.27687E+002	7	...........
	30	31	3.18911E+000	1.19198E-006	0.00000E+000	3.80136E-006	0.00000E+000	7.14390E-004	-3.27687E+002	7	...........
	31	32	3.18902E+000	1.19239E-006	0.00000E+000	3.80256E-006	0.00000E+000	7.18474E-004	-3.27687E+002	7	...........
	32	33	3.18894E+000	1.19251E-006	0.00000E+000	3.80283E-006	0.00000E+000	7.18357E-004	-3.27687E+002	7	...........
	33	34	3.18886E+000	1.19363E-006	0.00000E+000	3.80632E-006	0.00000E+000	7.18740E-004	-3.27687E+002	7	...........
	34	35	3.18879E+000	1.19393E-006	0.00000E+000	3.80718E-006	0.00000E+000	7.22824E-004	-3.27687E+002	7	...........
	35	36	3.18872E+000	1.19318E-006	0.00000E+000	3.80472E-006	0.00000E+000	7.22290E-004	-3.27687E+002	7	...........
	36	37	3.18864E+000	1.19363E-006	0.00000E+000	3.80607E-006	0.00000E+000	7.23690E-004	-3.27687E+002	7	...........
	37	38	3.18858E+000	1.19330E-006	0.00000E+000	3.80494E-006	0.00000E+000	7.21974E-004	-3.27687E+002	7	...........
	38	39	3.18852E+000	1.19400E-006	0.00000E+000	3.80709E-006	0.00000E+000	7.21974E-004	-3.27687E+002	7	...........
	39	40	3.18845E+000	1.19454E-006	0.00000E+000	3.80875E-006	0.00000E+000	7.20407E-004	-3.27687E+002	7	...........
	40	41	3.18840E+000	1.19468E-006	0.00000E+000	3.80912E-006	0.00000E+000	7.17607E-004	-3.27687E+002	7	...........
	41	42	3.18834E+000	1.19482E-006	0.00000E+000	3.80951E-006	0.00000E+000	7.17107E-004	-3.27687E+002	7	...........
	42	43	3.18828E+000	1.19512E-006	0.00000E+000	3.81038E-006	0.00000E+000	7.18590E-004	-3.27687E+002	7	...........
	43	44	3.18822E+000	1.19453E-006	0.00000E+000	3.80843E-006	0.00000E+000	7.15157E-004	-3.27687E+002	7	...........
	44	45	3.18815E+000	1.19494E-006	0.00000E+000	3.80965E-006	0.00000E+000	7.11590E-004	-3.27687E+002	7	...........
	45	46	3.18809E+000	1.19495E-006	0.00000E+000	3.80961E-006	0.00000E+000	7.11007E-004	-3.27687E+002	7	...........
	46	47	3.18803E+000	1.19500E-006	0.00000E+000	3.80969E-006	0.00000E+000	7.10807E-004	-3.27687E+002	7	...........
	47	48	3.18797E+000	1.19573E-006	0.00000E+000	3.81194E-006	0.00000E+000	7.10240E-004	-3.27687E+002	7	...........
	48	49	3.18791E+000	1.19610E-006	0.00000E+000	3.81306E-006	0.00000E+000	7.08824E-004	-3.27687E+002	7	...........
	49	50	3.18785E+000	1.19646E-006	0.00000E+000	3.81415E-006	0.00000E+000	7.09557E-004	-3.27687E+002	7	...........
	50	51	3.18780E+000	1.19711E-006	0.00000E+000	3.81616E-006	0.00000E+000	7.09307E-004	-3.27687E+002	7	...........
	51	52	3.18774E+000	1.19697E-006	0.00000E+000	3.81562E-006	0.00000E+000	7.10807E-004	-3.27687E+002	7	...........
	52	53	3.18768E+000	1.19679E-006	0.00000E+000	3.81498E-006	0.00000E+000	7.13407E-004	-3.27687E+002	7	...........
	53	54	3.18764E+000	1.19692E-006	0.00000E+000	3.81535E-006	0.00000E+000	7.12357E-004	-3.27687E+002	7	...........
	54	55	3.18758E+000	1.19668E-006	0.00000E+000	3.81452E-006	0.00000E+000	7.11424E-004	-3.27687E+002	7	...........
	55	56	3.18754E+000	1.19691E-006	0.00000E+000	3.81518E-006	0.00000E+000	7.14840E-004	-3.27687E+002	7	...........
	56	57	3.18749E+000	1.19740E-006	0.00000E+000	3.81670E-006	0.00000E+000	7.13840E-004	-3.27687E+002	7	...........
	57	58	3.18743E+000	1.19732E-006	0.00000E+000	3.81639E-006	0.00000E+000	7.17324E-004	-3.27687E+002	7	...........
	58	59	3.18737E+000	1.19762E-006	0.00000E+000	3.81726E-006	0.00000E+000	7.15474E-004	-3.27687E+002	7	...........
	59	60	3.18732E+000	1.19797E-006	0.00000E+000	3.81833E-006	0.00000E+000	7.18574E-004	-3.27687E+002	7	...........
	60	61	3.18727E+000	1.19757E-006	0.00000E+000	3.81698E-006	0.00000E+000	7.19640E-004	-3.27687E+002	7	...........
	61	62	3.18723E+000	1.19748E-006	0.00000E+000	3.81666E-006	0.00000E+000	7.19157E-004	-3.27687E+002	7	...........
	62	63	3.18717E+000	1.19744E-006	0.00000E+000	3.81645E-006	0.00000E+000	7.19424E-004	-3.27687E+002	7	...........
	63	64	3.18710E+000	1.19770E-006	0.00000E+000	3.81720E-006	0.00000E+000	7.22207E-004	-3.27687E+002	7	...........
	64	65	3.18705E+000	1.19829E-006	0.00000E+000	3.81900E-006	0.00000E+000	7.21940E-004	-3.27687E+002	7	...........
	65	66	3.18700E+000	1.19877E-006	0.00000E+000	3.82048E-006	0.00000E+000	7.20240E-004	-3.27687E+002	7	...........
	66	67	3.18696E+000	1.19922E-006	0.00000E+000	3.82186E-006	0.00000E+000	7.18807E-004	-3.27687E+002	7	...........
	67	68	3.18691E+000	1.19990E-006	0.00000E+000	3.82397E-006	0.00000E+000	7.19790E-004	-3.27687E+002	7	...........
	68	69	3.18687E+000	1.19933E-006	0.00000E+000	3.82211E-006	0.00000E+000	7.21607E-004	-3.27687E+002	7	...........
	69	70	3.18683E+000	1.19936E-006	0.00000E+000	3.82217E-006	0.00000E+000	7.21140E-004	-3.27687E+002	7	...........
	70	71	3.18679E+000	1.19945E-006	0.00000E+000	3.82239E-006	0.00000E+000	7.18540E-004	-3.27687E+002	7	...........
	71	72	3.18674E+000	1.19968E-006	0.00000E+000	3.82306E-006	0.00000E+000	7.16307E-004	-3.27687E+002	7	...........
	72	73	3.18670E+000	1.20026E-006	0.00000E+000	3.82487E-006	0.00000E+000	7.17857E-004	-3.27687E+002	7	...........
	73	74	3.18667E+000	1.20044E-006	0.00000E+000	3.82540E-006	0.00000E+000	7.15857E-004	-3.27687E+002	7	...........
	74	75	3.18664E+000	1.20053E-006	0.00000E+000	3.82566E-006	0.00000E+000	7.17307E-004	-3.27687E+002	7	...........
	75	76	3.18661E+000	1.20062E-006	0.00000E+000	3.82590E-006	0.00000E+000	7.15957E-004	-3.27687E+002	7	...........
	76	77	3.18658E+000	1.19985E-006	0.00000E+000	3.82342E-006	0.00000E+000	7.16190E-004	-3.27687E+002	7	...........
	77	78	3.18655E+000	1.19966E-006	0.00000E+000	3.82278E-006	0.00000E+000	7.13274E-004	-3.27687E+002	7	...........
	78	79	3.18652E+000	1.19978E-006	0.00000E+000	3.82313E-006	0.00000E+000	7.12624E-004	-3.27687E+002	7	...........
	79	80	3.18649E+000	1.19949E-006	0.00000E+000	3.82217E-006	0.00000E+000	7.10024E-004	-3.27687E+002	7	...........
	80	81	3.18647E+000	1.19992E-006	0.00000E+000	3.82350E-006	0.00000E+000	7.09940E-004	-3.27687E+002	7	...........
	81	82	3.18644E+000	1.20043E-006	0.00000E+000	3.82511E-006	0.00000E+000	7.10657E-004	-3.27687E+002	7	...........
	82	83	3.18643E+000	1.20071E-006	0.00000E+000	3.82596E-006	0.00000E+000	7.11924E-004	-3.27687E+002	7	...........
	83	84	3.18640E+000	1.20126E-006	0.00000E+000	3.82770E-006	0.00000E+000	7.08107E-004	-3.27687E+002	7	...........
	84	85	3.18637E+000	1.20059E-006	0.00000E+000	3.82555E-006	0.00000E+000	7.09724E-004	-3.27687E+002	7	...........
	85	86	3.18635E+000	1.20023E-006	0.00000E+000	3.82437E-006	0.00000E+000	7.10474E-004	-3.27687E+002	7	...........
	86	87	3.18633E+000	1.20059E-006	0.00000E+000	3.82546E-006	0.00000E+000	7.07190E-004	-3.27687E+002	7	...........
	87	88	3.18631E+000	1.20126E-006	0.00000E+000	3.82759E-006	0.00000E+000	7.07374E-004	-3.27687E+002	7	...........
	88	89	3.18629E+000	1.20113E-006	0.00000E+000	3.82713E-006	0.00000E+000	7.06774E-004	-3.27687E+002	7	...........
	89	90	3.18627E+000	1.20142E-006	0.00000E+000	3.82804E-006	0.00000E+000	7.10074E-004	-3.27687E+002	7	...........
	90	91	3.18625E+000	1.20177E-006	0.00000E+000	3.82914E-006	0.00000E+000	7.07740E-004	-3.27687E+002	7	...........
	91	92	3.18622E+000	1.20166E-006	0.00000E+000	3.82876E-006	0.00000E+000	7.07424E-004	-3.27687E+002	7	...........
	92	93	3.18620E+000	1.20186E-006	0.00000E+000	3.82938E-006	0.00000E+000	7.10157E-004	-3.27687E+002	7	...........
	93	94	3.18618E+000	1.20199E-006	0.00000E+000	3.82978E-006	0.00000E+000	7.08174E-004	-3.27687E+002	7	...........
	94	95	3.18616E+000	1.20215E-006	0.00000E+000	3.83025E-006	0.00000E+000	7.09590E-004	-3.27687E+002	7	...........
	95	96	3.18614E+000	1.20219E-006	0.00000E+000	3.83036E-006	0.00000E+000	7.05590E-004	-3.27687E+002	7	...........
	96	97	3.18612E+000	1.20257E-006	0.00000E+000	3.83152E-006	0.00000E+000	7.07374E-004	-3.27687E+002	7	...........
	97	98	3.18610E+000	1.20240E-006	0.00000E+000	3.83098E-006	0.00000E+000	7.07540E-004	-3.27687E+002	7	...........
	98	99	3.18609E+000	1.20286E-006	0.00000E+000	3.83242E-006	0.00000E+000	7.08790E-004	-3.27687E+002	7	...........
	99	100	3.18606E+000	1.20382E-006	0.00000E+000	3.83545E-006	0.00000E+000	7.07507E-004	-3.27687E+002	7	...........
	100	101	3.18604E+000	1.20355E-006	0.00000E+000	3.83457E-006	0.00000E+000	7.11390E-004	-3.27687E+002	7	...........
	101	102	3.18603E+000	1.20306E-006	0.00000E+000	3.83298E-006	0.00000E+000	7.07407E-004	-3.27687E+002	7	...........
	102	103	3.18601E+000	1.20308E-006	0.00000E+000	3.83302E-006	0.00000E+000	7.09790E-004	-3.27687E+002	7	...........
	103	104	3.18599E+000	1.20302E-006	0.00000E+000	3.83281E-006	0.00000E+000	7.11657E-004	-3.27687E+002	7	...........
	104	105	3.18597E+000	1.20343E-006	0.00000E+000	3.83410E-006	0.00000E+000	7.11690E-004	-3.27687E+002	7	...........
	105	106	3.18595E+000	1.20390E-006	0.00000E+000	3.83558E-006	0.00000E+000	7.12540E-004	-3.27687E+002	7	...........
	106	107	3.18594E+000	1.20388E-006	0.00000E+000	3.83550E-006	0.00000E+000	7.12274E-004	-3.27687E+002	7	...........
	107	108	3.18592E+000	1.20424E-006	0.00000E+000	3.83661E-006	0.00000E+000	7.14324E-004	-3.27687E+002	7	...........
	108	109	3.18590E+000	1.20463E-006	0.00000E+000	3.83782E-006	0.00000E+000	7.13757E-004	-3.27687E+002	7	...........
	109	110	3.18588E+000	1.20399E-006	0.00000E+000	3.83576E-006	0.00000E+000	7.15224E-004	-3.27687E+002	7	...........
	110	111	3.18587E+000	1.20391E-006	0.00000E+000	3.83549E-006	0.00000E+000	7.16457E-004	-3.27687E+002	7	...........
	111	112	3.18584E+000	1.20406E-006	0.00000E+000	3.83594E-006	0.00000E+000	7.17540E-004	-3.27687E+002	7	...........
	112	113	3.18583E+000	1.20446E-006	0.00000E+000	3.83721E-006	0.00000E+000	7.17407E-004	-3.27687E+002	7	...........
	113	114	3.18581E+000	1.20463E-006	0.00000E+000	3.83772E-006	0.00000E+000	7.16057E-004	-3.27687E+002	7	...........
	114	115	3.18579E+000	1.20479E-006	0.00000E+000	3.83822E-006	0.00000E+000	7.17107E-004	-3.27687E+002	7	...........
	115	116	3.18577E+000	1.20583E-006	0.00000E+000	3.84150E-006	0.00000E+000	7.17540E-004	-3.27687E+002	7	...........
	116	117	3.18576E+000	1.20557E-006	0.00000E+000	3.84067E-006	0.00000E+000	7.15640E-004	-3.27687E+002	7	...........
	117	118	3.18574E+000	1.20547E-006	0.00000E+000	3.84031E-006	0.00000E+000	7.16907E-004	-3.27687E+002	7	...........
	118	119	3.18573E+000	1.20588E-006	0.00000E+000	3.84160E-006	0.00000E+000	7.16790E-004	-3.27687E+002	7	...........
	119	120	3.18571E+000	1.20564E-006	0.00000E+000	3.84082E-006	0.00000E+000	7.16007E-004	-3.27687E+002	7	...........
	120	121	3.18570E+000	1.20581E-006	0.00000E+000	3.84135E-006	0.00000E+000	7.18540E-004	-3.27687E+002	7	...........
	121	122	3.18567E+000	1.20668E-006	0.00000E+000	3.84408E-006	0.00000E+000	7.18507E-004	-3.27687E+002	7	...........
	122	123	3.18565E+000	1.20630E-006	0.00000E+000	3.84286E-006	0.00000E+000	7.18907E-004	-3.27687E+002	7	...........
	123	124	3.18565E+000	1.20621E-006	0.00000E+000	3.84256E-006	0.00000E+000	7.18607E-004	-3.27687E+002	7	...........
	124	125	3.18563E+000	1.20613E-006	0.00000E+000	3.84227E-006	0.00000E+000	7.18257E-004	-3.27687E+002	7	...........
	125	126	3.18561E+000	1.20619E-006	0.00000E+000	3.84246E-006	0.00000E+000	7.18574E-004	-3.27687E+002	7	...........
	126	127	3.18560E+000	1.20628E-006	0.00000E+000	3.84271E-006	0.00000E+000	7.19624E-004	-3.27687E+002	7	...........
	127	128	3.18558E+000	1.20645E-006	0.00000E+000	3.84326E-006	0.00000E+000	7.21207E-004	-3.27687E+002	7	...........
	128	129	3.18557E+000	1.20622E-006	0.00000E+000	3.84250E-006	0.00000E+000	7.20074E-004	-3.27687E+002	7	...........
	129	130	3.18556E+000	1.20677E-006	0.00000E+000	3.84422E-006	0.00000E+000	7.20240E-004	-3.27687E+002	7	...........
	130	131	3.18554E+000	1.20676E-006	0.00000E+000	3.84420E-006	0.00000E+000	7.20407E-004	-3.27687E+002	7	...........
	131	132	3.18553E+000	1.20769E-006	0.00000E+000	3.84714E-006	0.00000E+000	7.20807E-004	-3.27687E+002	7	...........
	132	133	3.18551E+000	1.20811E-006	0.00000E+000	3.84845E-006	0.00000E+000	7.20040E-004	-3.27687E+002	7	...........
	133	134	3.18550E+000	1.20673E-006	0.00000E+000	3.84403E-006	0.00000E+000	7.20457E-004	-3.27687E+002	7	...........
	134	135	3.18549E+000	1.20718E-006	0.00000E+000	3.84545E-006	0.00000E+000	7.18740E-004	-3.27687E+002	7	...........
	135	136	3.18547E+000	1.20719E-006	0.00000E+000	3.84546E-006	0.00000E+000	7.21124E-004	-3.27687E+002	7	...........
	136	137	3.18546E+000	1.20773E-006	0.00000E+000	3.84716E-006	0.00000E+000	7.20240E-004	-3.27687E+002	7	...........
	137	138	3.18545E+000	1.20754E-006	0.00000E+000	3.84655E-006	0.00000E+000	7.20224E-004	-3.27687E+002	7	...........
	138	139	3.18543E+000	1.20776E-006	0.00000E+000	3.84724E-006	0.00000E+000	7.18107E-004	-3.27687E+002	7	...........
	139	140	3.18542E+000	1.20776E-006	0.00000E+000	3.84721E-006	0.00000E+000	7.15957E-004	-3.27687E+002	7	...........
	140	141	3.18540E+000	1.20803E-006	0.00000E+000	3.84805E-006	0.00000E+000	7.15340E-004	-3.27687E+002	7	...........
	141	142	3.18540E+000	1.20761E-006	0.00000E+000	3.84671E-006	0.00000E+000	7.17207E-004	-3.27687E+002	7	...........
	142	143	3.18538E+000	1.20812E-006	0.00000E+000	3.84831E-006	0.00000E+000	7.14874E-004	-3.27687E+002	7	...........
	143	144	3.18536E+000	1.20777E-006	0.00000E+000	3.84720E-006	0.00000E+000	7.17407E-004	-3.27687E+002	7	...........
	144	145	3.18535E+000	1.20780E-006	0.00000E+000	3.84727E-006	0.00000E+000	7.14207E-004	-3.27687E+002	7	...........
	145	146	3.18535E+000	1.20793E-006	0.00000E+000	3.84768E-006	0.00000E+000	7.14590E-004	-3.27687E+002	7	...........
	146	147	3.18534E+000	1.20839E-006	0.00000E+000	3.84913E-006	0.00000E+000	7.15040E-004	-3.27687E+002	7	...........
	147	148	3.18532E+000	1.20937E-006	0.00000E+000	3.85223E-006	0.00000E+000	7.14924E-004	-3.27687E+002	7	...........
	148	149	3.18531E+000	1.20992E-006	0.00000E+000	3.85398E-006	0.00000E+000	7.13424E-004	-3.27687E+002	7	...........
	149	150	3.18530E+000	1.20885E-006	0.00000E+000	3.85055E-006	0.00000E+000	7.12474E-004	-3.27687E+002	7	...........
	150	151	3.18528E+000	1.20887E-006	0.00000E+000	3.85060E-006	0.00000E+000	7.12690E-004	-3.27687E+002	7	...........
	151	152	3.18527E+000	1.20957E-006	0.00000E+000	3.85283E-006	0.00000E+000	7.11590E-004	-3.27687E+002	7	...........
	152	153	3.18527E+000	1.20933E-006	0.00000E+000	3.85205E-006	0.00000E+000	7.14257E-004	-3.27687E+002	7	...........
	153	154	3.18526E+000	1.20986E-006	0.00000E+000	3.85370E-006	0.00000E+000	7.11524E-004	-3.27687E+002	7	...........
	154	155	3.18524E+000	1.20957E-006	0.00000E+000	3.85277E-006	0.00000E+000	7.10957E-004	-3.27687E+002	7	...........
	155	156	3.18523E+000	1.20979E-006	0.00000E+000	3.85345E-006	0.00000E+000	7.11157E-004	-3.27687E+002	7	...........
	156	157	3.18522E+000	1.20939E-006	0.00000E+000	3.85216E-006	0.00000E+000	7.09457E-004	-3.27687E+002	7	...........
	157	158	3.18521E+000	1.20939E-006	0.00000E+000	3.85218E-006	0.00000E+000	7.11007E-004	-3.27687E+002	7	...........
	158	159	3.18519E+000	1.20965E-006	0.00000E+000	3.85296E-006	0.00000E+000	7.11057E-004	-3.27687E+002	7	...........
	159	160	3.18518E+000	1.20967E-006	0.00000E+000	3.85303E-006	0.00000E+000	7.12074E-004	-3.27687E+002	7	...........
	160	161	3.18518E+000	1.20969E-006	0.00000E+000	3.85308E-006	0.00000E+000	7.10840E-004	-3.27687E+002	7	...........
	161	162	3.18517E+000	1.21008E-006	0.00000E+000	3.85430E-006	0.00000E+000	7.08974E-004	-3.27687E+002	7	...........
	162	163	3.18515E+000	1.21008E-006	0.00000E+000	3.85429E-006	0.00000E+000	7.09424E-004	-3.27687E+002	7	...........
	163	164	3.18515E+000	1.21045E-006	0.00000E+000	3.85547E-006	0.00000E+000	7.07940E-004	-3.27687E+002	7	...........
	164	165	3.18513E+000	1.21116E-006	0.00000E+000	3.85772E-006	0.00000E+000	7.07324E-004	-3.27687E+002	7	...........
	165	166	3.18512E+000	1.21090E-006	0.00000E+000	3.85686E-006	0.00000E+000	7.07490E-004	-3.27687E+002	7	...........
	166	167	3.18512E+000	1.21021E-006	0.00000E+000	3.85468E-006	0.00000E+000	7.06907E-004	-3.27687E+002	7	...........
	167	168	3.18510E+000	1.21019E-006	0.00000E+000	3.85457E-006	0.00000E+000	7.05540E-004	-3.27687E+002	7	...........
	168	169	3.18509E+000	1.21063E-006	0.00000E+000	3.85596E-006	0.00000E+000	7.04224E-004	-3.27687E+002	7	...........
	169	170	3.18508E+000	1.21053E-006	0.00000E+000	3.85564E-006	0.00000E+000	7.06357E-004	-3.27687E+002	7	...........
	170	171	3.18507E+000	1.21095E-006	0.00000E+000	3.85697E-006	0.00000E+000	7.05424E-004	-3.27687E+002	7	...........
	171	172	3.18506E+000	1.21071E-006	0.00000E+000	3.85620E-006	0.00000E+000	7.03390E-004	-3.27687E+002	7	...........
	172	173	3.18505E+000	1.21064E-006	0.00000E+000	3.85594E-006	0.00000E+000	7.04307E-004	-3.27687E+002	7	...........
	173	174	3.18505E+000	1.21089E-006	0.00000E+000	3.85674E-006	0.00000E+000	7.03540E-004	-3.27687E+002	7	...........
	174	175	3.18503E+000	1.21052E-006	0.00000E+000	3.85556E-006	0.00000E+000	7.01457E-004	-3.27687E+002	7	...........
	175	176	3.18502E+000	1.21110E-006	0.00000E+000	3.85738E-006	0.00000E+000	7.01257E-004	-3.27687E+002	7	...........
	176	177	3.18501E+000	1.21094E-006	0.00000E+000	3.85684E-006	0.00000E+000	7.02307E-004	-3.27687E+002	7	...........
	177	178	3.18500E+000	1.21087E-006	0.00000E+000	3.85662E-006	0.00000E+000	7.00340E-004	-3.27687E+002	7	...........
	178	179	3.18499E+000	1.21128E-006	0.00000E+000	3.85792E-006	0.00000E+000	6.98440E-004	-3.27687E+002	7	...........
	179	180	3.18498E+000	1.21174E-006	0.00000E+000	3.85936E-006	0.00000E+000	6.99107E-004	-3.27687E+002	7	...........
	180	181	3.18497E+000	1.21207E-006	0.00000E+000	3.86041E-006	0.00000E+000	6.99440E-004	-3.27687E+002	7	...........
	181	182	3.18496E+000	1.21306E-006	0.00000E+000	3.86354E-006	0.00000E+000	6.99540E-004	-3.27687E+002	7	...........
	182	183	3.18495E+000	1.21201E-006	0.00000E+000	3.86019E-006	0.00000E+000	6.99490E-004	-3.27687E+002	7	...........
	183	184	3.18494E+000	1.21204E-006	0.00000E+000	3.86026E-006	0.00000E+000	6.95857E-004	-3.27687E+002	7	...........
	184	185	3.18494E+000	1.21169E-006	0.00000E+000	3.85915E-006	0.00000E+000	6.97940E-004	-3.27687E+002	7	...........
	185	186	3.18492E+000	1.21162E-006	0.00000E+000	3.85890E-006	0.00000E+000	6.98174E-004	-3.27687E+002	7	...........
	186	187	3.18491E+000	1.21187E-006	0.00000E+000	3.85971E-006	0.00000E+000	6.99807E-004	-3.27687E+002	7	...........
	187	188	3.18491E+000	1.21200E-006	0.00000E+000	3.86010E-006	0.00000E+000	6.94274E-004	-3.27687E+002	7	...........
	188	189	3.18490E+000	1.21226E-006	0.00000E+000	3.86091E-006	0.00000E+000	6.97957E-004	-3.27687E+002	7	...........
	189	190	3.18489E+000	1.21244E-006	0.00000E+000	3.86148E-006	0.00000E+000	6.97557E-004	-3.27687E+002	7	...........
	190	191	3.18489E+000	1.21255E-006	0.00000E+000	3.86183E-006	0.00000E+000	6.93390E-004	-3.27687E+002	7	...........
	191	192	3.18487E+000	1.21238E-006	0.00000E+000	3.86126E-006	0.00000E+000	6.96990E-004	-3.27687E+002	7	...........
	192	193	3.18486E+000	1.21259E-006	0.00000E+000	3.86195E-006	0.00000E+000	6.96307E-004	-3.27687E+002	7	...........
	193	194	3.18486E+000	1.21122E-006	0.00000E+000	3.85756E-006	0.00000E+000	6.95524E-004	-3.27687E+002	7	...........
	194	195	3.18484E+000	1.21184E-006	0.00000E+000	3.85953E-006	0.00000E+000	6.95007E-004	-3.27687E+002	7	...........
	195	196	3.18484E+000	1.21196E-006	0.00000E+000	3.85991E-006	0.00000E+000	6.96024E-004	-3.27687E+002	7	...........
	196	197	3.18483E+000	1.21261E-006	0.00000E+000	3.86198E-006	0.00000E+000	6.92390E-004	-3.27687E+002	7	...........
	197	198	3.18482E+000	1.21290E-006	0.00000E+000	3.86289E-006	0.00000E+000	6.94907E-004	-3.27687E+002	7	...........
	198	199	3.18481E+000	1.21352E-006	0.00000E+000	3.86482E-006	0.00000E+000	6.93724E-004	-3.27687E+002	7	...........
	199	200	3.18480E+000	1.21273E-006	0.00000E+000	3.86231E-006	0.00000E+000	6.94457E-004	-3.27687E+002	7	...........
	200	201	3.18480E+000	1.21254E-006	0.00000E+000	3.86168E-006	0.00000E+000	6.92924E-004	-3.27687E+002	7	...........
	201	202	3.18478E+000	1.21233E-006	0.00000E+000	3.86099E-006	0.00000E+000	6.95157E-004	-3.27687E+002	7	...........
	202	203	3.18477E+000	1.21274E-006	0.00000E+000	3.86230E-006	0.00000E+000	6.93940E-004	-3.27687E+002	7	...........
	203	204	3.18476E+000	1.21295E-006	0.00000E+000	3.86296E-006	0.00000E+000	6.94924E-004	-3.27687E+002	7	...........
	204	205	3.18475E+000	1.21345E-006	0.00000E+000	3.86453E-006	0.00000E+000	6.95274E-004	-3.27687E+002	7	...........
	205	206	3.18474E+000	1.21391E-006	0.00000E+000	3.86600E-006	0.00000E+000	6.94374E-004	-3.27687E+002	7	...........
	206	207	3.18474E+000	1.21387E-006	0.00000E+000	3.86587E-006	0.00000E+000	6.93907E-004	-3.27687E+002	7	...........
	207	208	3.18473E+000	1.21372E-006	0.00000E+000	3.86538E-006	0.00000E+000	6.92274E-004	-3.27687E+002	7	...........
	208	209	3.18472E+000	1.21371E-006	0.00000E+000	3.86531E-006	0.00000E+000	6.94190E-004	-3.27687E+002	7	...........
	209	210	3.18471E+000	1.21338E-006	0.00000E+000	3.86427E-006	0.00000E+000	6.95824E-004	-3.27687E+002	7	...........
	210	211	3.18470E+000	1.21337E-006	0.00000E+000	3.86422E-006	0.00000E+000	6.90340E-004	-3.27687E+002	7	...........
	211	212	3.18469E+000	1.21323E-006	0.00000E+000	3.86374E-006	0.00000E+000	6.94024E-004	-3.27687E+002	7	...........
	212	213	3.18470E+000	1.21281E-006	0.00000E+000	3.86243E-006	0.00000E+000	6.93357E-004	-3.27687E+002	7	...........
	213	214	3.18468E+000	1.21315E-006	0.00000E+000	3.86349E-006	0.00000E+000	6.92790E-004	-3.27687E+002	7	...........
	214	215	3.18468E+000	1.21408E-006	0.00000E+000	3.86646E-006	0.00000E+000	6.92857E-004	-3.27687E+002	7	...........
	215	216	3.18467E+000	1.21525E-006	0.00000E+000	3.87016E-006	0.00000E+000	6.92507E-004	-3.27687E+002	7	...........
	216	217	3.18465E+000	1.21514E-006	0.00000E+000	3.86978E-006	0.00000E+000	6.94107E-004	-3.27687E+002	7	...........
	217	218	3.18465E+000	1.21439E-006	0.00000E+000	3.86742E-006	0.00000E+000	6.92324E-004	-3.27687E+002	7	...........
	218	219	3.18464E+000	1.21411E-006	0.00000E+000	3.86650E-006	0.00000E+000	6.94824E-004	-3.27687E+002	7	...........
	219	220	3.18462E+000	1.21404E-006	0.00000E+000	3.86627E-006	0.00000E+000	6.93740E-004	-3.27687E+002	7	...........
	220	221	3.18462E+000	1.21435E-006	0.00000E+000	3.86725E-006	0.00000E+000	6.93790E-004	-3.27687E+002	7	...........
	221	222	3.18460E+000	1.21436E-006	0.00000E+000	3.86725E-006	0.00000E+000	6.94174E-004	-3.27687E+002	7	...........
	222	223	3.18461E+000	1.21403E-006	0.00000E+000	3.86621E-006	0.00000E+000	6.94024E-004	-3.27687E+002	7	...........
	223	224	3.18459E+000	1.21402E-006	0.00000E+000	3.86616E-006	0.00000E+000	6.95524E-004	-3.27687E+002	7	...........
	224	225	3.18460E+000	1.21437E-006	0.00000E+000	3.86726E-006	0.00000E+000	6.93057E-004	-3.27687E+002	7	...........
	225	226	3.18459E+000	1.21408E-006	0.00000E+000	3.86636E-006	0.00000E+000	6.95240E-004	-3.27687E+002	7	...........
	226	227	3.18459E+000	1.21355E-006	0.00000E+000	3.86465E-006	0.00000E+000	6.95324E-004	-3.27687E+002	7	...........
	227	228	3.18457E+000	1.21368E-006	0.00000E+000	3.86505E-006	0.00000E+000	6.92907E-004	-3.27687E+002	7	...........
	228	229	3.18457E+000	1.21363E-006	0.00000E+000	3.86491E-006	0.00000E+000	6.93307E-004	-3.27687E+002	7	...........
	229	230	3.18455E+000	1.21406E-006	0.00000E+000	3.86625E-006	0.00000E+000	6.95390E-004	-3.27687E+002	7	...........
	230	231	3.18455E+000	1.21396E-006	0.00000E+000	3.86592E-006	0.00000E+000	6.93074E-004	-3.27687E+002	7	...........
	231	232	3.18454E+000	1.21446E-006	0.00000E+000	3.86749E-006	0.00000E+000	6.92390E-004	-3.27687E+002	7	...........
	232	233	3.18453E+000	1.21485E-006	0.00000E+000	3.86872E-006	0.00000E+000	6.94574E-004	-3.27687E+002	7	...........
	233	234	3.18452E+000	1.21570E-006	0.00000E+000	3.87141E-006	0.00000E+000	6.94324E-004	-3.27687E+002	7	...........
	234	235	3.18452E+000	1.21469E-006	0.00000E+000	3.86819E-006	0.00000E+000	6.96274E-004	-3.27687E+002	7	...........
	235	236	3.18450E+000	1.21466E-006	0.00000E+000	3.86808E-006	0.00000E+000	6.95607E-004	-3.27687E+002	7	...........
	236	237	3.18450E+000	1.21421E-006	0.00000E+000	3.86666E-006	0.00000E+000	6.95724E-004	-3.27687E+002	7	...........
	237	238	3.18450E+000	1.21421E-006	0.00000E+000	3.86667E-006	0.00000E+000	6.95257E-004	-3.27687E+002	7	...........
	238	239	3.18449E+000	1.21401E-006	0.00000E+000	3.86601E-006	0.00000E+000	6.96824E-004	-3.27687E+002	7	...........
	239	240	3.18449E+000	1.21461E-006	0.00000E+000	3.86792E-006	0.00000E+000	6.98540E-004	-3.27687E+002	7	...........
	240	241	3.18448E+000	1.21508E-006	0.00000E+000	3.86939E-006	0.00000E+000	6.95840E-004	-3.27687E+002	7	...........
	241	242	3.18446E+000	1.21505E-006	0.00000E+000	3.86929E-006	0.00000E+000	6.97374E-004	-3.27687E+002	7	...........
	242	243	3.18446E+000	1.21506E-006	0.00000E+000	3.86932E-006	0.00000E+000	6.95707E-004	-3.27687E+002	7	...........
	243	244	3.18446E+000	1.21456E-006	0.00000E+000	3.86773E-006	0.00000E+000	6.97240E-004	-3.27687E+002	7	...........
	244	245	3.18444E+000	1.21427E-006	0.00000E+000	3.86678E-006	0.00000E+000	6.97007E-004	-3.27687E+002	7	...........
	245	246	3.18444E+000	1.21441E-006	0.00000E+000	3.86722E-006	0.00000E+000	6.97290E-004	-3.27687E+002	7	...........
	246	247	3.18444E+000	1.21440E-006	0.00000E+000	3.86719E-006	0.00000E+000	6.97824E-004	-3.27687E+002	7	...........
	247	248	3.18442E+000	1.21454E-006	0.00000E+000	3.86762E-006	0.00000E+000	6.98024E-004	-3.27687E+002	7	...........
	248	249	3.18442E+000	1.21500E-006	0.00000E+000	3.86907E-006	0.00000E+000	6.99757E-004	-3.27687E+002	7	...........
	249	250	3.18442E+000	1.21494E-006	0.00000E+000	3.86888E-006	0.00000E+000	6.99057E-004	-3.27687E+002	7	...........
	250	251	3.18440E+000	1.21579E-006	0.00000E+000	3.87158E-006	0.00000E+000	6.99840E-004	-3.27687E+002	7	...........
	251	252	3.18439E+000	1.21609E-006	0.00000E+000	3.87252E-006	0.00000E+000	6.99757E-004	-3.27687E+002	7	...........
	252	253	3.18439E+000	1.21551E-006	0.00000E+000	3.87065E-006	0.00000E+000	7.00324E-004	-3.27687E+002	7	...........
	253	254	3.18437E+000	1.21552E-006	0.00000E+000	3.87068E-006	0.00000E+000	6.99924E-004	-3.27687E+002	7	...........
	254	255	3.18437E+000	1.21514E-006	0.00000E+000	3.86944E-006	0.00000E+000	7.04124E-004	-3.27687E+002	7	...........
	255	256	3.18437E+000	1.21593E-006	0.00000E+000	3.87196E-006	0.00000E+000	7.00840E-004	-3.27687E+002	7	...........
	256	257	3.18436E+000	1.21602E-006	0.00000E+000	3.87225E-006	0.00000E+000	7.00840E-004	-3.27687E+002	7	...........
	257	258	3.18436E+000	1.21629E-006	0.00000E+000	3.87311E-006	0.00000E+000	7.03690E-004	-3.27687E+002	7	...........
	258	259	3.18434E+000	1.21643E-006	0.00000E+000	3.87351E-006	0.00000E+000	7.02574E-004	-3.27687E+002	7	...........
	259	260	3.18433E+000	1.21617E-006	0.00000E+000	3.87267E-006	0.00000E+000	7.00357E-004	-3.27687E+002	7	...........
	260	261	3.18433E+000	1.21634E-006	0.00000E+000	3.87321E-006	0.00000E+000	7.00074E-004	-3.27687E+002	7	...........
	261	262	3.18433E+000	1.21595E-006	0.00000E+000	3.87199E-006	0.00000E+000	7.02957E-004	-3.27687E+002	7	...........
	262	263	3.18432E+000	1.21600E-006	0.00000E+000	3.87212E-006	0.00000E+000	7.02390E-004	-3.27687E+002	7	...........
	263	264	3.18431E+000	1.21597E-006	0.00000E+000	3.87204E-006	0.00000E+000	7.03574E-004	-3.27687E+002	7	...........
	264	265	3.18431E+000	1.21596E-006	0.00000E+000	3.87201E-006	0.00000E+000	7.05440E-004	-3.27687E+002	7	...........
	265	266	3.18430E+000	1.21581E-006	0.00000E+000	3.87150E-006	0.00000E+000	7.03274E-004	-3.27687E+002	7	...........
	266	267	3.18429E+000	1.21606E-006	0.00000E+000	3.87229E-006	0.00000E+000	7.03240E-004	-3.27687E+002	7	...........
	267	268	3.18428E+000	1.21666E-006	0.00000E+000	3.87418E-006	0.00000E+000	7.03990E-004	-3.27687E+002	7	...........
	268	269	3.18428E+000	1.21755E-006	0.00000E+000	3.87701E-006	0.00000E+000	7.06290E-004	-3.27687E+002	7	...........
	269	270	3.18428E+000	1.21750E-006	0.00000E+000	3.87687E-006	0.00000E+000	7.03590E-004	-3.27687E+002	7	...........
	270	271	3.18427E+000	1.21660E-006	0.00000E+000	3.87398E-006	0.00000E+000	7.07057E-004	-3.27687E+002	7	...........
	271	272	3.18427E+000	1.21621E-006	0.00000E+000	3.87275E-006	0.00000E+000	7.03540E-004	-3.27687E+002	7	...........
	272	273	3.18426E+000	1.21616E-006	0.00000E+000	3.87259E-006	0.00000E+000	7.03557E-004	-3.27687E+002	7	...........
	273	274	3.18426E+000	1.21619E-006	0.00000E+000	3.87266E-006	0.00000E+000	7.03374E-004	-3.27687E+002	7	...........
	274	275	3.18425E+000	1.21673E-006	0.00000E+000	3.87436E-006	0.00000E+000	7.06107E-004	-3.27687E+002	7	...........
	275	276	3.18424E+000	1.21688E-006	0.00000E+000	3.87483E-006	0.00000E+000	7.06824E-004	-3.27687E+002	7	...........
	276	277	3.18423E+000	1.21699E-006	0.00000E+000	3.87518E-006	0.00000E+000	7.10640E-004	-3.27687E+002	7	...........
	277	278	3.18422E+000	1.21695E-006	0.00000E+000	3.87505E-006	0.00000E+000	7.08907E-004	-3.27687E+002	7	...........
	278	279	3.18423E+000	1.21702E-006	0.00000E+000	3.87528E-006	0.00000E+000	7.08874E-004	-3.27687E+002	7	...........
	279	280	3.18421E+000	1.21680E-006	0.00000E+000	3.87455E-006	0.00000E+000	7.10707E-004	-3.27687E+002	7	...........
	280	281	3.18420E+000	1.21685E-006	0.00000E+000	3.87471E-006	0.00000E+000	7.07290E-004	-3.27687E+002	7	...........
	281	282	3.18420E+000	1.21672E-006	0.00000E+000	3.87426E-006	0.00000E+000	7.11157E-004	-3.27687E+002	7	...........
	282	283	3.18420E+000	1.21660E-006	0.00000E+000	3.87391E-006	0.00000E+000	7.13240E-004	-3.27687E+002	7	...........
	283	284	3.18419E+000	1.21692E-006	0.00000E+000	3.87492E-006	0.00000E+000	7.09257E-004	-3.27687E+002	7	...........
	284	285	3.18419E+000	1.21743E-006	0.00000E+000	3.87652E-006	0.00000E+000	7.10924E-004	-3.27687E+002	7	...........
	285	286	3.18418E+000	1.21725E-006	0.00000E+000	3.87594E-006	0.00000E+000	7.09624E-004	-3.27687E+002	7	...........
	286	287	3.18418E+000	1.21804E-006	0.00000E+000	3.87845E-006	0.00000E+000	7.13457E-004	-3.27687E+002	7	...........
	287	288	3.18416E+000	1.21841E-006	0.00000E+000	3.87962E-006	0.00000E+000	7.14790E-004	-3.27687E+002	7	...........
	288	289	3.18416E+000	1.21749E-006	0.00000E+000	3.87667E-006	0.00000E+000	7.12240E-004	-3.27687E+002	7	...........
	289	290	3.18415E+000	1.21729E-006	0.00000E+000	3.87605E-006	0.00000E+000	7.12607E-004	-3.27687E+002	7	...........
	290	291	3.18415E+000	1.21747E-006	0.00000E+000	3.87662E-006	0.00000E+000	7.11307E-004	-3.27687E+002	7	...........
	291	292	3.18415E+000	1.21725E-006	0.00000E+000	3.87591E-006	0.00000E+000	7.14307E-004	-3.27687E+002	7	...........
	292	293	3.18414E+000	1.21772E-006	0.00000E+000	3.87741E-006	0.00000E+000	7.11390E-004	-3.27687E+002	7	...........
	293	294	3.18414E+000	1.21781E-006	0.00000E+000	3.87769E-006	0.00000E+000	7.14157E-004	-3.27687E+002	7	...........
	294	295	3.18413E+000	1.21748E-006	0.00000E+000	3.87660E-006	0.00000E+000	7.13724E-004	-3.27687E+002	7	...........
	295	296	3.18413E+000	1.21741E-006	0.00000E+000	3.87639E-006	0.00000E+000	7.13574E-004	-3.27687E+002	7	...........
	296	297	3.18411E+000	1.21738E-006	0.00000E+000	3.87626E-006	0.00000E+000	7.12724E-004	-3.27687E+002	7	...........
	297	298	3.18411E+000	1.21784E-006	0.00000E+000	3.87774E-006	0.00000E+000	7.15507E-004	-3.27687E+002	7	...........
	298	299	3.18410E+000	1.21756E-006	0.00000E+000	3.87684E-006	0.00000E+000	7.12990E-004	-3.27687E+002	7	...........
	299	300	3.18410E+000	1.21730E-006	0.00000E+000	3.87599E-006	0.00000E+000	7.13490E-004	-3.27687E+002	7	...........
	300	301	3.18409E+000	1.21681E-006	0.00000E+000	3.87442E-006	0.00000E+000	7.13524E-004	-3.27687E+002	7	...........
	301	302	3.18409E+000	1.21685E-006	0.00000E+000	3.87456E-006	0.00000E+000	7.15057E-004	-3.27687E+002	7	...........
	302	303	3.18408E+000	1.21725E-006	0.00000E+000	3.87581E-006	0.00000E+000	7.16890E-004	-3.27687E+002	7	...........
	303	304	3.18408E+000	1.21778E-006	0.00000E+000	3.87750E-006	0.00000E+000	7.17790E-004	-3.27687E+002	7	...........
	304	305	3.18407E+000	1.21855E-006	0.00000E+000	3.87993E-006	0.00000E+000	7.18224E-004	-3.27687E+002	7	...........
	305	306	3.18406E+000	1.21792E-006	0.00000E+000	3.87794E-006	0.00000E+000	7.17824E-004	-3.27687E+002	7	...........
	306	307	3.18406E+000	1.21759E-006	0.00000E+000	3.87687E-006	0.00000E+000	7.18340E-004	-3.27687E+002	7	...........
	307	308	3.18406E+000	1.21791E-006	0.00000E+000	3.87788E-006	0.00000E+000	7.16224E-004	-3.27687E+002	7	...........
	308	309	3.18406E+000	1.21742E-006	0.00000E+000	3.87632E-006	0.00000E+000	7.16157E-004	-3.27687E+002	7	...........
	309	310	3.18405E+000	1.21789E-006	0.00000E+000	3.87781E-006	0.00000E+000	7.17857E-004	-3.27687E+002	7	...........
	310	311	3.18404E+000	1.21784E-006	0.00000E+000	3.87765E-006	0.00000E+000	7.16724E-004	-3.27687E+002	7	...........
	311	312	3.18404E+000	1.21817E-006	0.00000E+000	3.87872E-006	0.00000E+000	7.18057E-004	-3.27687E+002	7	...........
	312	313	3.18404E+000	1.21821E-006	0.00000E+000	3.87881E-006	0.00000E+000	7.19740E-004	-3.27687E+002	7	...........
	313	314	3.18403E+000	1.21829E-006	0.00000E+000	3.87907E-006	0.00000E+000	7.19440E-004	-3.27687E+002	7	...........
	314	315	3.18403E+000	1.21842E-006	0.00000E+000	3.87947E-006	0.00000E+000	7.18724E-004	-3.27687E+002	7	...........
	315	316	3.18402E+000	1.21806E-006	0.00000E+000	3.87833E-006	0.00000E+000	7.18274E-004	-3.27687E+002	7	...........
	316	317	3.18402E+000	1.21755E-006	0.00000E+000	3.87671E-006	0.00000E+000	7.19974E-004	-3.27687E+002	7	...........
	317	318	3.18401E+000	1.21730E-006	0.00000E+000	3.87588E-006	0.00000E+000	7.16607E-004	-3.27687E+002	7	...........
	318	319	3.18401E+000	1.21740E-006	0.00000E+000	3.87621E-006	0.00000E+000	7.20024E-004	-3.27687E+002	7	...........
	319	320	3.18401E+000	1.21822E-006	0.00000E+000	3.87883E-006	0.00000E+000	7.19257E-004	-3.27687E+002	7	...........
	320	321	3.18400E+000	1.21867E-006	0.00000E+000	3.88024E-006	0.00000E+000	7.17874E-004	-3.27687E+002	7	...........
	321	322	3.18400E+000	1.21892E-006	0.00000E+000	3.88104E-006	0.00000E+000	7.17924E-004	-3.27687E+002	7	...........
	322	323	3.18400E+000	1.21862E-006	0.00000E+000	3.88008E-006	0.00000E+000	7.18374E-004	-3.27687E+002	7	...........
	323	324	3.18399E+000	1.21851E-006	0.00000E+000	3.87973E-006	0.00000E+000	7.15990E-004	-3.27687E+002	7	...........
	324	325	3.18399E+000	1.21811E-006	0.00000E+000	3.87846E-006	0.00000E+000	7.20157E-004	-3.27687E+002	7	...........
	325	326	3.18398E+000	1.21809E-006	0.00000E+000	3.87837E-006	0.00000E+000	7.21590E-004	-3.27687E+002	7	...........
	326	327	3.18397E+000	1.21846E-006	0.00000E+000	3.87955E-006	0.00000E+000	7.20040E-004	-3.27687E+002	7	...........
	327	328	3.18396E+000	1.21839E-006	0.00000E+000	3.87931E-006	0.00000E+000	7.22290E-004	-3.27687E+002	7	...........
	328	329	3.18396E+000	1.21857E-006	0.00000E+000	3.87990E-006	0.00000E+000	7.21074E-004	-3.27687E+002	7	...........
	329	330	3.18395E+000	1.21791E-006	0.00000E+000	3.87775E-006	0.00000E+000	7.21407E-004	-3.27687E+002	7	...........
	330	331	3.18396E+000	1.21753E-006	0.00000E+000	3.87658E-006	0.00000E+000	7.21324E-004	-3.27687E+002	7	...........
	331	332	3.18395E+000	1.21734E-006	0.00000E+000	3.87594E-006	0.00000E+000	7.21174E-004	-3.27687E+002	7	...........
	332	333	3.18394E+000	1.21701E-006	0.00000E+000	3.87489E-006	0.00000E+000	7.23890E-004	-3.27687E+002	7	...........
	333	334	3.18394E+000	1.21718E-006	0.00000E+000	3.87543E-006	0.00000E+000	7.20807E-004	-3.27687E+002	7	...........
	334	335	3.18394E+000	1.21689E-006	0.00000E+000	3.87451E-006	0.00000E+000	7.20140E-004	-3.27687E+002	7	...........
	335	336	3.18394E+000	1.21668E-006	0.00000E+000	3.87385E-006	0.00000E+000	7.20590E-004	-3.27687E+002	7	...........
	336	337	3.18394E+000	1.21716E-006	0.00000E+000	3.87536E-006	0.00000E+000	7.21540E-004	-3.27687E+002	7	...........
	337	338	3.18393E+000	1.21736E-006	0.00000E+000	3.87600E-006	0.00000E+000	7.22107E-004	-3.27687E+002	7	...........
	338	339	3.18392E+000	1.21861E-006	0.00000E+000	3.87996E-006	0.00000E+000	7.22690E-004	-3.27687E+002	7	...........
	339	340	3.18392E+000	1.21811E-006	0.00000E+000	3.87835E-006	0.00000E+000	7.22274E-004	-3.27687E+002	7	...........
	340	341	3.18391E+000	1.21772E-006	0.00000E+000	3.87711E-006	0.00000E+000	7.22140E-004	-3.27687E+002	7	...........
	341	342	3.18391E+000	1.21748E-006	0.00000E+000	3.87635E-006	0.00000E+000	7.20140E-004	-3.27687E+002	7	...........
	342	343	3.18391E+000	1.21756E-006	0.00000E+000	3.87660E-006	0.00000E+000	7.21957E-004	-3.27687E+002	7	...........
	343	344	3.18391E+000	1.21796E-006	0.00000E+000	3.87787E-006	0.00000E+000	7.24290E-004	-3.27687E+002	7	...........
	344	345	3.18390E+000	1.21820E-006	0.00000E+000	3.87862E-006	0.00000E+000	7.22940E-004	-3.27687E+002	7	...........
	345	346	3.18389E+000	1.21865E-006	0.00000E+000	3.88004E-006	0.00000E+000	7.22824E-004	-3.27687E+002	7	...........
	346	347	3.18391E+000	1.21852E-006	0.00000E+000	3.87965E-006	0.00000E+000	7.24074E-004	-3.27687E+002	7	...........
	347	348	3.18390E+000	1.21890E-006	0.00000E+000	3.88084E-006	0.00000E+000	7.22540E-004	-3.27687E+002	7	...........
	348	349	3.18390E+000	1.21878E-006	0.00000E+000	3.88047E-006	0.00000E+000	7.20740E-004	-3.27687E+002	7	...........
	349	350	3.18389E+000	1.21823E-006	0.00000E+000	3.87871E-006	0.00000E+000	7.20874E-004	-3.27687E+002	7	...........
	350	351	3.18389E+000	1.21841E-006	0.00000E+000	3.87929E-006	0.00000E+000	7.22074E-004	-3.27687E+002	7	...........
	351	352	3.18388E+000	1.21794E-006	0.00000E+000	3.87777E-006	0.00000E+000	7.20440E-004	-3.27687E+002	7	...........
	352	353	3.18388E+000	1.21828E-006	0.00000E+000	3.87886E-006	0.00000E+000	7.22990E-004	-3.27687E+002	7	...........
	353	354	3.18388E+000	1.21824E-006	0.00000E+000	3.87874E-006	0.00000E+000	7.24290E-004	-3.27687E+002	7	...........
	354	355	3.18387E+000	1.21890E-006	0.00000E+000	3.88083E-006	0.00000E+000	7.22657E-004	-3.27687E+002	7	...........
	355	356	3.18387E+000	1.21955E-006	0.00000E+000	3.88290E-006	0.00000E+000	7.21807E-004	-3.27687E+002	7	...........
	356	357	3.18387E+000	1.21890E-006	0.00000E+000	3.88083E-006	0.00000E+000	7.22490E-004	-3.27687E+002	7	...........
	357	358	3.18386E+000	1.21905E-006	0.00000E+000	3.88128E-006	0.00000E+000	7.23007E-004	-3.27687E+002	7	...........
	358	359	3.18385E+000	1.21939E-006	0.00000E+000	3.88236E-006	0.00000E+000	7.22907E-004	-3.27687E+002	7	...........
	359	360	3.18386E+000	1.21888E-006	0.00000E+000	3.88075E-006	0.00000E+000	7.21557E-004	-3.27687E+002	7	...........
	360	361	3.18386E+000	1.21926E-006	0.00000E+000	3.88195E-006	0.00000E+000	7.22007E-004	-3.27687E+002	7	...........
	361	362	3.18384E+000	1.21923E-006	0.00000E+000	3.88185E-006	0.00000E+000	7.22240E-004	-3.27687E+002	7	...........
	362	363	3.18384E+000	1.21948E-006	0.00000E+000	3.88265E-006	0.00000E+000	7.24540E-004	-3.27687E+002	7	...........
	363	364	3.18385E+000	1.21951E-006	0.00000E+000	3.88274E-006	0.00000E+000	7.21307E-004	-3.27687E+002	7	...........
	364	365	3.18383E+000	1.21974E-006	0.00000E+000	3.88346E-006	0.00000E+000	7.24174E-004	-3.27687E+002	7	...........
	365	366	3.18383E+000	1.21912E-006	0.00000E+000	3.88148E-006	0.00000E+000	7.26924E-004	-3.27687E+002	7	...........
	366	367	3.18383E+000	1.21867E-006	0.00000E+000	3.88004E-006	0.00000E+000	7.22140E-004	-3.27687E+002	7	...........
	367	368	3.18382E+000	1.21904E-006	0.00000E+000	3.88120E-006	0.00000E+000	7.22590E-004	-3.27687E+002	7	...........
	368	369	3.18382E+000	1.21886E-006	0.00000E+000	3.88064E-006	0.00000E+000	7.21807E-004	-3.27687E+002	7	...........
	369	370	3.18382E+000	1.21938E-006	0.00000E+000	3.88229E-006	0.00000E+000	7.21974E-004	-3.27687E+002	7	...........
	370	371	3.18382E+000	1.21970E-006	0.00000E+000	3.88330E-006	0.00000E+000	7.25307E-004	-3.27687E+002	7	...........
	371	372	3.18381E+000	1.21992E-006	0.00000E+000	3.88400E-006	0.00000E+000	7.22490E-004	-3.27687E+002	7	...........
	372	373	3.18381E+000	1.22025E-006	0.00000E+000	3.88505E-006	0.00000E+000	7.23640E-004	-3.27687E+002	7	...........
	373	374	3.18381E+000	1.21965E-006	0.00000E+000	3.88314E-006	0.00000E+000	7.21707E-004	-3.27687E+002	7	...........
	374	375	3.18381E+000	1.21924E-006	0.00000E+000	3.88184E-006	0.00000E+000	7.22340E-004	-3.27687E+002	7	...........
	375	376	3.18381E+000	1.21982E-006	0.00000E+000	3.88368E-006	0.00000E+000	7.21690E-004	-3.27687E+002	7	...........
	376	377	3.18380E+000	1.21988E-006	0.00000E+000	3.88385E-006	0.00000E+000	7.23874E-004	-3.27687E+002	7	...........
	377	378	3.18380E+000	1.22015E-006	0.00000E+000	3.88470E-006	0.00000E+000	7.21857E-004	-3.27687E+002	7	...........
	378	379	3.18379E+000	1.22062E-006	0.00000E+000	3.88620E-006	0.00000E+000	7.23140E-004	-3.27687E+002	7	...........
	379	380	3.18380E+000	1.22070E-006	0.00000E+000	3.88647E-006	0.00000E+000	7.21940E-004	-3.27687E+002	7	...........
	380	381	3.18379E+000	1.22004E-006	0.00000E+000	3.88435E-006	0.00000E+000	7.24874E-004	-3.27687E+002	7	...........
	381	382	3.18378E+000	1.22050E-006	0.00000E+000	3.88581E-006	0.00000E+000	7.22807E-004	-3.27687E+002	7	...........
	382	383	3.18379E+000	1.22003E-006	0.00000E+000	3.88431E-006	0.00000E+000	7.21924E-004	-3.27687E+002	7	...........
	383	384	3.18377E+000	1.21994E-006	0.00000E+000	3.88400E-006	0.00000E+000	7.23157E-004	-3.27687E+002	7	...........
	384	385	3.18378E+000	1.21981E-006	0.00000E+000	3.88361E-006	0.00000E+000	7.22174E-004	-3.27687E+002	7	...........
	385	386	3.18378E+000	1.21918E-006	0.00000E+000	3.88159E-006	0.00000E+000	7.22574E-004	-3.27687E+002	7	...........
	386	387	3.18378E+000	1.21943E-006	0.00000E+000	3.88240E-006	0.00000E+000	7.22957E-004	-3.27687E+002	7	...........
	387	388	3.18378E+000	1.21980E-006	0.00000E+000	3.88358E-006	0.00000E+000	7.24440E-004	-3.27687E+002	7	...........
	388	389	3.18377E+000	1.22001E-006	0.00000E+000	3.88424E-006	0.00000E+000	7.23657E-004	-3.27687E+002	7	...........
	389	390	3.18377E+000	1.22079E-006	0.00000E+000	3.88671E-006	0.00000E+000	7.25990E-004	-3.27687E+002	7	...........
	390	391	3.18377E+000	1.22026E-006	0.00000E+000	3.88502E-006	0.00000E+000	7.21774E-004	-3.27687E+002	7	...........
	391	392	3.18376E+000	1.22015E-006	0.00000E+000	3.88466E-006	0.00000E+000	7.24590E-004	-3.27687E+002	7	...........
	392	393	3.18376E+000	1.21950E-006	0.00000E+000	3.88258E-006	0.00000E+000	7.21857E-004	-3.27687E+002	7	...........
	393	394	3.18375E+000	1.21968E-006	0.00000E+000	3.88316E-006	0.00000E+000	7.22340E-004	-3.27687E+002	7	...........
	394	395	3.18375E+000	1.22015E-006	0.00000E+000	3.88467E-006	0.00000E+000	7.23274E-004	-3.27687E+002	7	...........
	395	396	3.18375E+000	1.22033E-006	0.00000E+000	3.88521E-006	0.00000E+000	7.25024E-004	-3.27687E+002	7	...........
	396	397	3.18375E+000	1.22038E-006	0.00000E+000	3.88538E-006	0.00000E+000	7.22340E-004	-3.27687E+002	7	...........
	397	398	3.18374E+000	1.22033E-006	0.00000E+000	3.88522E-006	0.00000E+000	7.24690E-004	-3.27687E+002	7	...........
	398	399	3.18374E+000	1.22005E-006	0.00000E+000	3.88432E-006	0.00000E+000	7.21157E-004	-3.27687E+002	7	...........
	399	400	3.18374E+000	1.22020E-006	0.00000E+000	3.88479E-006	0.00000E+000	7.24440E-004	-3.27687E+002	7	...........
	400	401	3.18373E+000	1.22036E-006	0.00000E+000	3.88530E-006	0.00000E+000	7.23690E-004	-3.27687E+002	7	...........
	401	402	3.18373E+000	1.21961E-006	0.00000E+000	3.88291E-006	0.00000E+000	7.22157E-004	-3.27687E+002	7	...........
	402	403	3.18373E+000	1.21988E-006	0.00000E+000	3.88376E-006	0.00000E+000	7.22024E-004	-3.27687E+002	7	...........
	403	404	3.18373E+000	1.22008E-006	0.00000E+000	3.88440E-006	0.00000E+000	7.24490E-004	-3.27687E+002	7	...........
	404	405	3.18373E+000	1.21992E-006	0.00000E+000	3.88390E-006	0.00000E+000	7.21407E-004	-3.27687E+002	7	...........
	405	406	3.18373E+000	1.22091E-006	0.00000E+000	3.88703E-006	0.00000E+000	7.23424E-004	-3.27687E+002	7	...........
	406	407	3.18372E+000	1.22121E-006	0.00000E+000	3.88798E-006	0.00000E+000	7.21207E-004	-3.27687E+002	7	...........
	407	408	3.18372E+000	1.22017E-006	0.00000E+000	3.88467E-006	0.00000E+000	7.23840E-004	-3.27687E+002	7	...........
	408	409	3.18371E+000	1.22064E-006	0.00000E+000	3.88618E-006	0.00000E+000	7.23507E-004	-3.27687E+002	7	...........
	409	410	3.18371E+000	1.22023E-006	0.00000E+000	3.88485E-006	0.00000E+000	7.23907E-004	-3.27687E+002	7	...........
	410	411	3.18371E+000	1.21998E-006	0.00000E+000	3.88405E-006	0.00000E+000	7.23674E-004	-3.27687E+002	7	...........
	411	412	3.18371E+000	1.22061E-006	0.00000E+000	3.88606E-006	0.00000E+000	7.20874E-004	-3.27687E+002	7	...........
	412	413	3.18370E+000	1.22060E-006	0.00000E+000	3.88602E-006	0.00000E+000	7.25324E-004	-3.27687E+002	7	...........
	413	414	3.18370E+000	1.22028E-006	0.00000E+000	3.88500E-006	0.00000E+000	7.26657E-004	-3.27687E+002	7	...........
	414	415	3.18371E+000	1.21995E-006	0.00000E+000	3.88396E-006	0.00000E+000	7.22590E-004	-3.27687E+002	7	...........
	415	416	3.18370E+000	1.21991E-006	0.00000E+000	3.88383E-006	0.00000E+000	7.22840E-004	-3.27687E+002	7	...........
	416	417	3.18370E+000	1.21993E-006	0.00000E+000	3.88389E-006	0.00000E+000	7.24107E-004	-3.27687E+002	7	...........
	417	418	3.18370E+000	1.21969E-006	0.00000E+000	3.88311E-006	0.00000E+000	7.23057E-004	-3.27687E+002	7	...........
	418	419	3.18370E+000	1.21943E-006	0.00000E+000	3.88229E-006	0.00000E+000	7.21224E-004	-3.27687E+002	7	...........
	419	420	3.18369E+000	1.21963E-006	0.00000E+000	3.88291E-006	0.00000E+000	7.21707E-004	-3.27687E+002	7	...........
	420	421	3.18368E+000	1.22011E-006	0.00000E+000	3.88444E-006	0.00000E+000	7.19474E-004	-3.27687E+002	7	...........
	421	422	3.18368E+000	1.21989E-006	0.00000E+000	3.88373E-006	0.00000E+000	7.20824E-004	-3.27687E+002	7	...........
	422	423	3.18368E+000	1.22094E-006	0.00000E+000	3.88707E-006	0.00000E+000	7.24357E-004	-3.27687E+002	7	...........
	423	424	3.18368E+000	1.22086E-006	0.00000E+000	3.88681E-006	0.00000E+000	7.23207E-004	-3.27687E+002	7	...........
	424	425	3.18368E+000	1.22036E-006	0.00000E+000	3.88523E-006	0.00000E+000	7.20790E-004	-3.27687E+002	7	...........
	425	426	3.18367E+000	1.21996E-006	0.00000E+000	3.88395E-006	0.00000E+000	7.21424E-004	-3.27687E+002	7	...........
	426	427	3.18367E+000	1.22031E-006	0.00000E+000	3.88507E-006	0.00000E+000	7.23274E-004	-3.27687E+002	7	...........
	427	428	3.18367E+000	1.22087E-006	0.00000E+000	3.88683E-006	0.00000E+000	7.22474E-004	-3.27687E+002	7	...........
	428	429	3.18367E+000	1.22111E-006	0.00000E+000	3.88760E-006	0.00000E+000	7.23290E-004	-3.27687E+002	7	...........
	429	430	3.18366E+000	1.22144E-006	0.00000E+000	3.88866E-006	0.00000E+000	7.24140E-004	-3.27687E+002	7	...........
	430	431	3.18366E+000	1.22164E-006	0.00000E+000	3.88929E-006	0.00000E+000	7.22524E-004	-3.27687E+002	7	...........
	431	432	3.18367E+000	1.22138E-006	0.00000E+000	3.88846E-006	0.00000E+000	7.22574E-004	-3.27687E+002	7	...........
	432	433	3.18366E+000	1.22091E-006	0.00000E+000	3.88697E-006	0.00000E+000	7.22707E-004	-3.27687E+002	7	...........
	433	434	3.18366E+000	1.22105E-006	0.00000E+000	3.88740E-006	0.00000E+000	7.21907E-004	-3.27687E+002	7	...........
	434	435	3.18365E+000	1.22078E-006	0.00000E+000	3.88653E-006	0.00000E+000	7.21940E-004	-3.27687E+002	7	...........
	435	436	3.18364E+000	1.22038E-006	0.00000E+000	3.88524E-006	0.00000E+000	7.20990E-004	-3.27687E+002	7	...........
	436	437	3.18365E+000	1.22054E-006	0.00000E+000	3.88576E-006	0.00000E+000	7.21940E-004	-3.27687E+002	7	...........
	437	438	3.18365E+000	1.22117E-006	0.00000E+000	3.88778E-006	0.00000E+000	7.21840E-004	-3.27687E+002	7	...........
	438	439	3.18363E+000	1.22076E-006	0.00000E+000	3.88645E-006	0.00000E+000	7.20790E-004	-3.27687E+002	7	...........
	439	440	3.18364E+000	1.22179E-006	0.00000E+000	3.88973E-006	0.00000E+000	7.22024E-004	-3.27687E+002	7	...........
	440	441	3.18364E+000	1.22099E-006	0.00000E+000	3.88720E-006	0.00000E+000	7.22890E-004	-3.27687E+002	7	...........
	441	442	3.18363E+000	1.22116E-006	0.00000E+000	3.88770E-006	0.00000E+000	7.19457E-004	-3.27687E+002	7	...........
	442	443	3.18364E+000	1.22067E-006	0.00000E+000	3.88619E-006	0.00000E+000	7.19457E-004	-3.27687E+002	7	...........
	443	444	3.18364E+000	1.22095E-006	0.00000E+000	3.88705E-006	0.00000E+000	7.22990E-004	-3.27687E+002	7	...........
	444	445	3.18363E+000	1.22112E-006	0.00000E+000	3.88758E-006	0.00000E+000	7.22207E-004	-3.27687E+002	7	...........
	445	446	3.18363E+000	1.22065E-006	0.00000E+000	3.88609E-006	0.00000E+000	7.20457E-004	-3.27687E+002	7	...........
	446	447	3.18362E+000	1.22055E-006	0.00000E+000	3.88576E-006	0.00000E+000	7.22240E-004	-3.27687E+002	7	...........
	447	448	3.18362E+000	1.22077E-006	0.00000E+000	3.88648E-006	0.00000E+000	7.19324E-004	-3.27687E+002	7	...........
	448	449	3.18362E+000	1.22092E-006	0.00000E+000	3.88695E-006	0.00000E+000	7.20724E-004	-3.27687E+002	7	...........
	449	450	3.18362E+000	1.22062E-006	0.00000E+000	3.88599E-006	0.00000E+000	7.19207E-004	-3.27687E+002	7	...........
	450	451	3.18362E+000	1.22080E-006	0.00000E+000	3.88656E-006	0.00000E+000	7.19907E-004	-3.27687E+002	7	...........
	451	452	3.18361E+000	1.22080E-006	0.00000E+000	3.88656E-006	0.00000E+000	7.22057E-004	-3.27687E+002	7	...........
	452	453	3.18361E+000	1.22064E-006	0.00000E+000	3.88606E-006	0.00000E+000	7.20957E-004	-3.27687E+002	7	...........
	453	454	3.18361E+000	1.22094E-006	0.00000E+000	3.88700E-006	0.00000E+000	7.18324E-004	-3.27687E+002	7	...........
	454	455	3.18361E+000	1.22152E-006	0.00000E+000	3.88885E-006	0.00000E+000	7.20357E-004	-3.27687E+002	7	...........
	455	456	3.18361E+000	1.22199E-006	0.00000E+000	3.89033E-006	0.00000E+000	7.20440E-004	-3.27687E+002	7	...........
	456	457	3.18360E+000	1.22266E-006	0.00000E+000	3.89246E-006	0.00000E+000	7.20257E-004	-3.27687E+002	7	...........
	457	458	3.18360E+000	1.22190E-006	0.00000E+000	3.89005E-006	0.00000E+000	7.19374E-004	-3.27687E+002	7	...........
	458	459	3.18361E+000	1.22149E-006	0.00000E+000	3.88874E-006	0.00000E+000	7.17290E-004	-3.27687E+002	7	...........
	459	460	3.18361E+000	1.22135E-006	0.00000E+000	3.88831E-006	0.00000E+000	7.20607E-004	-3.27687E+002	7	...........
	460	461	3.18359E+000	1.22216E-006	0.00000E+000	3.89087E-006	0.00000E+000	7.20590E-004	-3.27687E+002	7	...........
	461	462	3.18359E+000	1.22214E-006	0.00000E+000	3.89080E-006	0.00000E+000	7.17190E-004	-3.27687E+002	7	...........
	462	463	3.18359E+000	1.22251E-006	0.00000E+000	3.89195E-006	0.00000E+000	7.18890E-004	-3.27687E+002	7	...........
	463	464	3.18358E+000	1.22259E-006	0.00000E+000	3.89221E-006	0.00000E+000	7.15807E-004	-3.27687E+002	7	...........
	464	465	3.18359E+000	1.22233E-006	0.00000E+000	3.89139E-006	0.00000E+000	7.19040E-004	-3.27687E+002	7	...........
	465	466	3.18358E+000	1.22183E-006	0.00000E+000	3.88980E-006	0.00000E+000	7.18974E-004	-3.27687E+002	7	...........
	466	467	3.18359E+000	1.22219E-006	0.00000E+000	3.89094E-006	0.00000E+000	7.19724E-004	-3.27687E+002	7	...........
	467	468	3.18358E+000	1.22185E-006	0.00000E+000	3.88986E-006	0.00000E+000	7.21174E-004	-3.27687E+002	7	...........
	468	469	3.18359E+000	1.22157E-006	0.00000E+000	3.88898E-006	0.00000E+000	7.19524E-004	-3.27687E+002	7	...........
	469	470	3.18358E+000	1.22203E-006	0.00000E+000	3.89043E-006	0.00000E+000	7.18240E-004	-3.27687E+002	7	...........
	470	471	3.18358E+000	1.22318E-006	0.00000E+000	3.89408E-006	0.00000E+000	7.22507E-004	-3.27687E+002	7	...........
	471	472	3.18358E+000	1.22295E-006	0.00000E+000	3.89336E-006	0.00000E+000	7.20590E-004	-3.27687E+002	7	...........
	472	473	3.18357E+000	1.22320E-006	0.00000E+000	3.89414E-006	0.00000E+000	7.20374E-004	-3.27687E+002	7	...........
	473	474	3.18357E+000	1.22322E-006	0.00000E+000	3.89421E-006	0.00000E+000	7.18174E-004	-3.27687E+002	7	...........
	474	475	3.18357E+000	1.22322E-006	0.00000E+000	3.89421E-006	0.00000E+000	7.22507E-004	-3.27687E+002	7	...........
	475	476	3.18356E+000	1.22283E-006	0.00000E+000	3.89295E-006	0.00000E+000	7.20640E-004	-3.27687E+002	7	...........
	476	477	3.18356E+000	1.22238E-006	0.00000E+000	3.89151E-006	0.00000E+000	7.20140E-004	-3.27687E+002	7	...........
	477	478	3.18356E+000	1.22291E-006	0.00000E+000	3.89321E-006	0.00000E+000	7.19924E-004	-3.27687E+002	7	...........
	478	479	3.18356E+000	1.22312E-006	0.00000E+000	3.89387E-006	0.00000E+000	7.19740E-004	-3.27687E+002	7	...........
	479	480	3.18356E+000	1.22305E-006	0.00000E+000	3.89365E-006	0.00000E+000	7.23190E-004	-3.27687E+002	7	...........
	480	481	3.18356E+000	1.22318E-006	0.00000E+000	3.89407E-006	0.00000E+000	7.18957E-004	-3.27687E+002	7	...........
	481	482	3.18355E+000	1.22265E-006	0.00000E+000	3.89235E-006	0.00000E+000	7.18224E-004	-3.27687E+002	7	...........
	482	483	3.18355E+000	1.22238E-006	0.00000E+000	3.89152E-006	0.00000E+000	7.20240E-004	-3.27687E+002	7	...........
	483	484	3.18355E+000	1.22226E-006	0.00000E+000	3.89112E-006	0.00000E+000	7.21474E-004	-3.27687E+002	7	...........
	484	485	3.18355E+000	1.22177E-006	0.00000E+000	3.88955E-006	0.00000E+000	7.17690E-004	-3.27687E+002	7	...........
	485	486	3.18355E+000	1.22161E-006	0.00000E+000	3.88906E-006	0.00000E+000	7.17424E-004	-3.27687E+002	7	...........
	486	487	3.18354E+000	1.22198E-006	0.00000E+000	3.89021E-006	0.00000E+000	7.18207E-004	-3.27687E+002	7	...........
	487	488	3.18354E+000	1.22247E-006	0.00000E+000	3.89177E-006	0.00000E+000	7.17307E-004	-3.27687E+002	7	...........
	488	489	3.18354E+000	1.22259E-006	0.00000E+000	3.89215E-006	0.00000E+000	7.22107E-004	-3.27687E+002	7	...........
	489	490	3.18354E+000	1.22313E-006	0.00000E+000	3.89387E-006	0.00000E+000	7.19290E-004	-3.27687E+002	7	...........
	490	491	3.18354E+000	1.22231E-006	0.00000E+000	3.89127E-006	0.00000E+000	7.15957E-004	-3.27687E+002	7	...........
	491	492	3.18354E+000	1.22227E-006	0.00000E+000	3.89115E-006	0.00000E+000	7.18324E-004	-3.27687E+002	7	...........
	492	493	3.18353E+000	1.22219E-006	0.00000E+000	3.89088E-006	0.00000E+000	7.19640E-004	-3.27687E+002	7	...........
	493	494	3.18353E+000	1.22223E-006	0.00000E+000	3.89099E-006	0.00000E+000	7.18540E-004	-3.27687E+002	7	...........
	494	495	3.18353E+000	1.22253E-006	0.00000E+000	3.89195E-006	0.00000E+000	7.18907E-004	-3.27687E+002	7	...........
	495	496	3.18353E+000	1.22303E-006	0.00000E+000	3.89356E-006	0.00000E+000	7.18124E-004	-3.27687E+002	7	...........
	496	497	3.18352E+000	1.22289E-006	0.00000E+000	3.89310E-006	0.00000E+000	7.18857E-004	-3.27687E+002	7	...........
	497	498	3.18352E+000	1.22282E-006	0.00000E+000	3.89289E-006	0.00000E+000	7.15574E-004	-3.27687E+002	7	...........
	498	499	3.18352E+000	1.22266E-006	0.00000E+000	3.89234E-006	0.00000E+000	7.17374E-004	-3.27687E+002	7	...........
	499	500	3.18352E+000	1.22257E-006	0.00000E+000	3.89206E-006	0.00000E+000	7.18740E-004	-3.27687E+002	7	...........
	500	501	3.18352E+000	1.22237E-006	0.00000E+000	3.89144E-006	0.00000E+000	7.16640E-004	-3.27687E+002	7	...........
	501	502	3.18352E+000	1.22207E-006	0.00000E+000	3.89050E-006	0.00000E+000	7.16924E-004	-3.27687E+002	7	...........
	502	503	3.18352E+000	1.22228E-006	0.00000E+000	3.89115E-006	0.00000E+000	7.15507E-004	-3.27687E+002	7	...........
	503	504	3.18352E+000	1.22273E-006	0.00000E+000	3.89259E-006	0.00000E+000	7.14390E-004	-3.27687E+002	7	...........
	504	505	3.18351E+000	1.22308E-006	0.00000E+000	3.89369E-006	0.00000E+000	7.13457E-004	-3.27687E+002	7	...........
	505	506	3.18351E+000	1.22362E-006	0.00000E+000	3.89541E-006	0.00000E+000	7.16390E-004	-3.27687E+002	7	...........
	506	507	3.18352E+000	1.22377E-006	0.00000E+000	3.89588E-006	0.00000E+000	7.14824E-004	-3.27687E+002	7	...........
	507	508	3.18351E+000	1.22300E-006	0.00000E+000	3.89344E-006	0.00000E+000	7.16757E-004	-3.27687E+002	7	...........
	508	509	3.18350E+000	1.22311E-006	0.00000E+000	3.89377E-006	0.00000E+000	7.15340E-004	-3.27687E+002	7	...........
	509	510	3.18350E+000	1.22292E-006	0.00000E+000	3.89317E-006	0.00000E+000	7.16240E-004	-3.27687E+002	7	...........
	510	511	3.18350E+000	1.22318E-006	0.00000E+000	3.89398E-006	0.00000E+000	7.15824E-004	-3.27687E+002	7	...........
	511	512	3.18350E+000	1.22373E-006	0.00000E+000	3.89575E-006	0.00000E+000	7.15224E-004	-3.27687E+002	7	...........
	512	513	3.18349E+000	1.22341E-006	0.00000E+000	3.89471E-006	0.00000E+000	7.14607E-004	-3.27687E+002	7	...........
	513	514	3.18348E+000	1.22386E-006	0.00000E+000	3.89614E-006	0.00000E+000	7.15157E-004	-3.27687E+002	7	...........
	514	515	3.18349E+000	1.22368E-006	0.00000E+000	3.89556E-006	0.00000E+000	7.13024E-004	-3.27687E+002	7	...........
	515	516	3.18349E+000	1.22358E-006	0.00000E+000	3.89524E-006	0.00000E+000	7.16757E-004	-3.27687E+002	7	...........
	516	517	3.18349E+000	1.22339E-006	0.00000E+000	3.89464E-006	0.00000E+000	7.16674E-004	-3.27687E+002	7	...........
	517	518	3.18348E+000	1.22303E-006	0.00000E+000	3.89348E-006	0.00000E+000	7.13557E-004	-3.27687E+002	7	...........
	518	519	3.18349E+000	1.22335E-006	0.00000E+000	3.89451E-006	0.00000E+000	7.14674E-004	-3.27687E+002	7	...........
	519	520	3.18348E+000	1.22387E-006	0.00000E+000	3.89616E-006	0.00000E+000	7.13440E-004	-3.27687E+002	7	...........
	520	521	3.18348E+000	1.22429E-006	0.00000E+000	3.89750E-006	0.00000E+000	7.14024E-004	-3.27687E+002	7	...........
	521	522	3.18348E+000	1.22480E-006	0.00000E+000	3.89914E-006	0.00000E+000	7.14157E-004	-3.27687E+002	7	...........
	522	523	3.18348E+000	1.22490E-006	0.00000E+000	3.89944E-006	0.00000E+000	7.15107E-004	-3.27687E+002	7	...........
	523	524	3.18348E+000	1.22385E-006	0.00000E+000	3.89610E-006	0.00000E+000	7.14457E-004	-3.27687E+002	7	...........
	524	525	3.18348E+000	1.22362E-006	0.00000E+000	3.89538E-006	0.00000E+000	7.17790E-004	-3.27687E+002	7	...........
	525	526	3.18348E+000	1.22373E-006	0.00000E+000	3.89573E-006	0.00000E+000	7.15740E-004	-3.27687E+002	7	...........
	526	527	3.18348E+000	1.22418E-006	0.00000E+000	3.89717E-006	0.00000E+000	7.16324E-004	-3.27687E+002	7	...........
	527	528	3.18347E+000	1.22383E-006	0.00000E+000	3.89604E-006	0.00000E+000	7.16557E-004	-3.27687E+002	7	...........
	528	529	3.18347E+000	1.22387E-006	0.00000E+000	3.89615E-006	0.00000E+000	7.13990E-004	-3.27687E+002	7	...........
	529	530	3.18347E+000	1.22381E-006	0.00000E+000	3.89595E-006	0.00000E+000	7.15074E-004	-3.27687E+002	7	...........
	530	531	3.18347E+000	1.22397E-006	0.00000E+000	3.89646E-006	0.00000E+000	7.17257E-004	-3.27687E+002	7	...........
	531	532	3.18346E+000	1.22428E-006	0.00000E+000	3.89745E-006	0.00000E+000	7.11274E-004	-3.27687E+002	7	...........
	532	533	3.18347E+000	1.22379E-006	0.00000E+000	3.89590E-006	0.00000E+000	7.13274E-004	-3.27687E+002	7	...........
	533	534	3.18347E+000	1.22340E-006	0.00000E+000	3.89465E-006	0.00000E+000	7.16074E-004	-3.27687E+002	7	...........
	534	535	3.18347E+000	1.22366E-006	0.00000E+000	3.89548E-006	0.00000E+000	7.15807E-004	-3.27687E+002	7	...........
	535	536	3.18346E+000	1.22329E-006	0.00000E+000	3.89431E-006	0.00000E+000	7.13340E-004	-3.27687E+002	7	...........
	536	537	3.18345E+000	1.22394E-006	0.00000E+000	3.89636E-006	0.00000E+000	7.15974E-004	-3.27687E+002	7	...........
	537	538	3.18344E+000	1.22340E-006	0.00000E+000	3.89461E-006	0.00000E+000	7.15424E-004	-3.27687E+002	7	...........
	538	539	3.18345E+000	1.22478E-006	0.00000E+000	3.89904E-006	0.00000E+000	7.15907E-004	-3.27687E+002	7	...........
	539	540	3.18345E+000	1.22453E-006	0.00000E+000	3.89823E-006	0.00000E+000	7.11924E-004	-3.27687E+002	7	...........
	540	541	3.18344E+000	1.22354E-006	0.00000E+000	3.89507E-006	0.00000E+000	7.16024E-004	-3.27687E+002	7	...........
	541	542	3.18344E+000	1.22333E-006	0.00000E+000	3.89439E-006	0.00000E+000	7.10740E-004	-3.27687E+002	7	...........
	542	543	3.18345E+000	1.22342E-006	0.00000E+000	3.89469E-006	0.00000E+000	7.12107E-004	-3.27687E+002	7	...........
	543	544	3.18345E+000	1.22328E-006	0.00000E+000	3.89426E-006	0.00000E+000	7.15524E-004	-3.27687E+002	7	...........
	544	545	3.18344E+000	1.22339E-006	0.00000E+000	3.89458E-006	0.00000E+000	7.14757E-004	-3.27687E+002	7	...........
	545	546	3.18345E+000	1.22391E-006	0.00000E+000	3.89624E-006	0.00000E+000	7.16274E-004	-3.27687E+002	7	...........
	546	547	3.18345E+000	1.22389E-006	0.00000E+000	3.89618E-006	0.00000E+000	7.13624E-004	-3.27687E+002	7	...........
	547	548	3.18345E+000	1.22347E-006	0.00000E+000	3.89485E-006	0.00000E+000	7.13790E-004	-3.27687E+002	7	...........
	548	549	3.18345E+000	1.22349E-006	0.00000E+000	3.89491E-006	0.00000E+000	7.15490E-004	-3.27687E+002	7	...........
	549	550	3.18345E+000	1.22331E-006	0.00000E+000	3.89434E-006	0.00000E+000	7.15674E-004	-3.27687E+002	7	...........
	550	551	3.18344E+000	1.22309E-006	0.00000E+000	3.89364E-006	0.00000E+000	7.15224E-004	-3.27687E+002	7	...........
	551	552	3.18344E+000	1.22296E-006	0.00000E+000	3.89323E-006	0.00000E+000	7.13174E-004	-3.27687E+002	7	...........
	552	553	3.18344E+000	1.22273E-006	0.00000E+000	3.89250E-006	0.00000E+000	7.13324E-004	-3.27687E+002	7	...........
	553	554	3.18343E+000	1.22317E-006	0.00000E+000	3.89389E-006	0.00000E+000	7.14290E-004	-3.27687E+002	7	...........
	554	555	3.18343E+000	1.22354E-006	0.00000E+000	3.89507E-006	0.00000E+000	7.13174E-004	-3.27687E+002	7	...........
	555	556	3.18343E+000	1.22439E-006	0.00000E+000	3.89775E-006	0.00000E+000	7.14107E-004	-3.27687E+002	7	...........
	556	557	3.18342E+000	1.22341E-006	0.00000E+000	3.89463E-006	0.00000E+000	7.14124E-004	-3.27687E+002	7	...........
	557	558	3.18342E+000	1.22352E-006	0.00000E+000	3.89500E-006	0.00000E+000	7.15040E-004	-3.27687E+002	7	...........
	558	559	3.18343E+000	1.22357E-006	0.00000E+000	3.89516E-006	0.00000E+000	7.14240E-004	-3.27687E+002	7	...........
	559	560	3.18342E+000	1.22356E-006	0.00000E+000	3.89512E-006	0.00000E+000	7.15224E-004	-3.27687E+002	7	...........
	560	561	3.18342E+000	1.22392E-006	0.00000E+000	3.89624E-006	0.00000E+000	7.12740E-004	-3.27687E+002	7	...........
	561	562	3.18342E+000	1.22353E-006	0.00000E+000	3.89500E-006	0.00000E+000	7.13540E-004	-3.27687E+002	7	...........
	562	563	3.18342E+000	1.22341E-006	0.00000E+000	3.89463E-006	0.00000E+000	7.14607E-004	-3.27687E+002	7	...........
	563	564	3.18341E+000	1.22353E-006	0.00000E+000	3.89500E-006	0.00000E+000	7.14390E-004	-3.27687E+002	7	...........
	564	565	3.18341E+000	1.22364E-006	0.00000E+000	3.89534E-006	0.00000E+000	7.14774E-004	-3.27687E+002	7	...........
	565	566	3.18341E+000	1.22388E-006	0.00000E+000	3.89610E-006	0.00000E+000	7.11340E-004	-3.27687E+002	7	...........
	566	567	3.18341E+000	1.22348E-006	0.00000E+000	3.89484E-006	0.00000E+000	7.12790E-004	-3.27687E+002	7	...........
	567	568	3.18341E+000	1.22346E-006	0.00000E+000	3.89477E-006	0.00000E+000	7.11190E-004	-3.27687E+002	7	...........
	568	569	3.18341E+000	1.22323E-006	0.00000E+000	3.89402E-006	0.00000E+000	7.11774E-004	-3.27687E+002	7	...........
	569	570	3.18341E+000	1.22332E-006	0.00000E+000	3.89434E-006	0.00000E+000	7.11574E-004	-3.27687E+002	7	...........
	570	571	3.18340E+000	1.22343E-006	0.00000E+000	3.89466E-006	0.00000E+000	7.12890E-004	-3.27687E+002	7	...........
	571	572	3.18340E+000	1.22487E-006	0.00000E+000	3.89923E-006	0.00000E+000	7.14407E-004	-3.27687E+002	7	...........
	572	573	3.18340E+000	1.22446E-006	0.00000E+000	3.89795E-006	0.00000E+000	7.12307E-004	-3.27687E+002	7	...........
	573	574	3.18340E+000	1.22357E-006	0.00000E+000	3.89513E-006	0.00000E+000	7.10657E-004	-3.27687E+002	7	...........
	574	575	3.18340E+000	1.22371E-006	0.00000E+000	3.89557E-006	0.00000E+000	7.12590E-004	-3.27687E+002	7	...........
	575	576	3.18340E+000	1.22335E-006	0.00000E+000	3.89441E-006	0.00000E+000	7.10840E-004	-3.27687E+002	7	...........
	576	577	3.18339E+000	1.22346E-006	0.00000E+000	3.89475E-006	0.00000E+000	7.13424E-004	-3.27687E+002	7	...........
	577	578	3.18340E+000	1.22374E-006	0.00000E+000	3.89567E-006	0.00000E+000	7.11724E-004	-3.27687E+002	7	...........
	578	579	3.18340E+000	1.22410E-006	0.00000E+000	3.89679E-006	0.00000E+000	7.10690E-004	-3.27687E+002	7	...........
	579	580	3.18339E+000	1.22408E-006	0.00000E+000	3.89671E-006	0.00000E+000	7.15174E-004	-3.27687E+002	7	...........
	580	581	3.18338E+000	1.22414E-006	0.00000E+000	3.89692E-006	0.00000E+000	7.09874E-004	-3.27687E+002	7	...........
	581	582	3.18338E+000	1.22371E-006	0.00000E+000	3.89554E-006	0.00000E+000	7.10774E-004	-3.27687E+002	7	...........
	582	583	3.18339E+000	1.22346E-006	0.00000E+000	3.89474E-006	0.00000E+000	7.13707E-004	-3.27687E+002	7	...........
	583	584	3.18338E+000	1.22283E-006	0.00000E+000	3.89275E-006	0.00000E+000	7.11390E-004	-3.27687E+002	7	...........
	584	585	3.18337E+000	1.22243E-006	0.00000E+000	3.89145E-006	0.00000E+000	7.09990E-004	-3.27687E+002	7	...........
	585	586	3.18338E+000	1.22308E-006	0.00000E+000	3.89352E-006	0.00000E+000	7.12724E-004	-3.27687E+002	7	...........
	586	587	3.18337E+000	1.22367E-006	0.00000E+000	3.89541E-006	0.00000E+000	7.12690E-004	-3.27687E+002	7	...........
	587	588	3.18337E+000	1.22386E-006	0.00000E+000	3.89600E-006	0.00000E+000	7.09540E-004	-3.27687E+002	7	...........
	588	589	3.18336E+000	1.22493E-006	0.00000E+000	3.89938E-006	0.00000E+000	7.10474E-004	-3.27687E+002	7	...........
	589	590	3.18337E+000	1.22442E-006	0.00000E+000	3.89779E-006	0.00000E+000	7.11157E-004	-3.27687E+002	7	...........
	590	591	3.18337E+000	1.22382E-006	0.00000E+000	3.89586E-006	0.00000E+000	7.12424E-004	-3.27687E+002	7	...........
	591	592	3.18337E+000	1.22386E-006	0.00000E+000	3.89600E-006	0.00000E+000	7.12040E-004	-3.27687E+002	7	...........
	592	593	3.18337E+000	1.22387E-006	0.00000E+000	3.89602E-006	0.00000E+000	7.11590E-004	-3.27687E+002	7	...........
	593	594	3.18337E+000	1.22369E-006	0.00000E+000	3.89547E-006	0.00000E+000	7.10407E-004	-3.27687E+002	7	...........
	594	595	3.18337E+000	1.22432E-006	0.00000E+000	3.89746E-006	0.00000E+000	7.09790E-004	-3.27687E+002	7	...........
	595	596	3.18336E+000	1.22438E-006	0.00000E+000	3.89766E-006	0.00000E+000	7.10257E-004	-3.27687E+002	7	...........
	596	597	3.18337E+000	1.22438E-006	0.00000E+000	3.89764E-006	0.00000E+000	7.10907E-004	-3.27687E+002	7	...........
	597	598	3.18336E+000	1.22439E-006	0.00000E+000	3.89768E-006	0.00000E+000	7.11357E-004	-3.27687E+002	7	...........
	598	599	3.18335E+000	1.22436E-006	0.00000E+000	3.89758E-006	0.00000E+000	7.11407E-004	-3.27687E+002	7	...........
	599	600	3.18335E+000	1.22381E-006	0.00000E+000	3.89583E-006	0.00000E+000	7.10857E-004	-3.27687E+002	7	...........
