EXPLAIN
TAG	PWR800_READVOLTAGE
TITLE	LABEL	PWR Read Voltage	Test Identifier
DATE	LABEL	8.2.2024	Date
TIME	LABEL	9:54:23	Time
NOTES	NOTES	1	Notes...
	
PSTAT	PSTAT	REF600-12055	Potentiostat
CAPACITY	QUANT	1.00000E+000	Capacity (A-hr)
CELLTYPE	SELECTOR	1	Cell Type
WORKINGCONNECTION	SELECTOR	0	Working Connection
MAXTIME	VARIABLEANDUNITS	6.00000E+002	s	6.00000E+002	second(s)	Max Time
SAMPLETIME	QUANT	1.00000E+000	Sample Period (s)
STOPAT1	MULTIPARAM	0	0.00000E+000	Stop At 1	None	N/A
STOPAT2	MULTIPARAM	0	0.00000E+000	Stop At 2	None	N/A
AESBHCSELECTOR	TOGGLE	F	Save Both Half Cells
EOC	QUANT	3.859157	Open Circuit (V)
SEQUENCER	TOGGLE	TRUE	Run as Sequence
PSTATMODEL	IQUANT	4	Pstat Model
PSTATSECTION	LABEL	REF600-12055	Pstat Section
PSTATSERIALNO	LABEL	12055	Pstat Serial Number
CTRLMODE	IQUANT	0	Control Mode
ELECTROMETER	IQUANT	0	RE=0 or CS=1
IESTAB	IQUANT	0	I/E Stability
CASPEED	IQUANT	4	Control Amp Speed
CONVENTION	IQUANT	1	Current Convention
ICHRANGE	IQUANT	2	Ich Range
ICHRANGEMODE	TOGGLE	T	Ich Auto Range
ICHOFFSETENABLE	TOGGLE	F	Ich Offset Enable
ICHOFFSET	QUANT	0	Ich Offset (V)
ICHFILTER	IQUANT	1	Ich Filter
VCHRANGE	IQUANT	3	Vch Range
VCHRANGEMODE	TOGGLE	T	Vch Auto Range
VCHOFFSETENABLE	TOGGLE	F	Vch Offset Enable
VCHOFFSET	QUANT	0	Vch Offset (V)
VCHFILTER	IQUANT	1	Vch Filter
ACHRANGE	IQUANT	2	Ach Range
ACHOFFSETENABLE	TOGGLE	F	Ach Offset Enable
ACHOFFSET	QUANT	0	Ach Offset (V)
ACHFILTER	IQUANT	1	Ach Filter
IERANGELOWERLIMIT	IQUANT	7	I/E Range Lower Limit
IERANGEMODE	TOGGLE	F	I/E AutoRange
IERANGE	IQUANT	11	I/E Range
POSFEEDENABLE	TOGGLE	F	Positive Feedback IR Comp
POSFEEDRESISTANCE	QUANT	0	Positive Feedback Resistance (ohm)
ACHSELECT	IQUANT	4	Ach Select
SENSECABLEID	IQUANT	14	Sense Cable ID
PWRCABLEID	IQUANT	14	Power Cable ID
DCCALDATE	LABEL		DC Calibration Date
ACCALDATE	LABEL		AC Calibration Date
THERMOSELECT	IQUANT	1	Thermo Select
FRAMEWORKVERSION	LABEL	7.10.3	Framework Version
INSTRUMENTVERSION	LABEL	4.91	Instrument Version
COMMVERSION	LABEL	2.24	Communications Version
CPUPLDVERSION	LABEL	0.00	CPU PLD Version
CTRLPLDVERSION	LABEL	0.00	CTRL PLD Version
PSTATPLDVERSION	LABEL	0.00	PSTAT PLD Version
CURVE	TABLE	600
	Pt	T	Vf	Im	Vu	Pwr	Sig	Ach	Temp	IERange	Over
	#	s	V	A	V	W	V	V	deg C	#	bits
	0	1	3.74239E+000	-2.16366E-007	0.00000E+000	-8.09728E-007	0.00000E+000	7.10033E-004	-3.27672E+002	7	...........
	1	2	3.74261E+000	-2.14476E-007	0.00000E+000	-8.02699E-007	0.00000E+000	7.10517E-004	-3.27672E+002	7	...........
	2	3	3.74278E+000	-2.14007E-007	0.00000E+000	-8.00983E-007	0.00000E+000	7.11567E-004	-3.27672E+002	7	...........
	3	4	3.74292E+000	-2.13204E-007	0.00000E+000	-7.98007E-007	0.00000E+000	7.14417E-004	-3.27672E+002	7	...........
	4	5	3.74306E+000	-2.12236E-007	0.00000E+000	-7.94414E-007	0.00000E+000	7.13017E-004	-3.27672E+002	7	...........
	5	6	3.74319E+000	-2.11803E-007	0.00000E+000	-7.92820E-007	0.00000E+000	7.12483E-004	-3.27672E+002	7	...........
	6	7	3.74329E+000	-2.11221E-007	0.00000E+000	-7.90664E-007	0.00000E+000	7.12667E-004	-3.27672E+002	7	...........
	7	8	3.74338E+000	-2.11826E-007	0.00000E+000	-7.92944E-007	0.00000E+000	7.11867E-004	-3.27672E+002	7	...........
	8	9	3.74345E+000	-2.10385E-007	0.00000E+000	-7.87565E-007	0.00000E+000	7.12433E-004	-3.27672E+002	7	...........
	9	10	3.74351E+000	-2.09429E-007	0.00000E+000	-7.83997E-007	0.00000E+000	7.12600E-004	-3.27672E+002	7	...........
	10	11	3.74356E+000	-2.09003E-007	0.00000E+000	-7.82413E-007	0.00000E+000	7.12650E-004	-3.27672E+002	7	...........
	11	12	3.74359E+000	-2.07849E-007	0.00000E+000	-7.78101E-007	0.00000E+000	7.13250E-004	-3.27672E+002	7	...........
	12	13	3.74363E+000	-2.07183E-007	0.00000E+000	-7.75617E-007	0.00000E+000	7.15167E-004	-3.27672E+002	7	...........
	13	14	3.74366E+000	-2.07251E-007	0.00000E+000	-7.75877E-007	0.00000E+000	7.12683E-004	-3.27672E+002	7	...........
	14	15	3.74369E+000	-2.06882E-007	0.00000E+000	-7.74503E-007	0.00000E+000	7.14367E-004	-3.27672E+002	7	...........
	15	16	3.74372E+000	-2.05778E-007	0.00000E+000	-7.70376E-007	0.00000E+000	7.14633E-004	-3.27672E+002	7	...........
	16	17	3.74375E+000	-2.05361E-007	0.00000E+000	-7.68820E-007	0.00000E+000	7.16383E-004	-3.27672E+002	7	...........
	17	18	3.74378E+000	-2.04628E-007	0.00000E+000	-7.66081E-007	0.00000E+000	7.16183E-004	-3.27672E+002	7	...........
	18	19	3.74382E+000	-2.04349E-007	0.00000E+000	-7.65046E-007	0.00000E+000	7.17200E-004	-3.27672E+002	7	...........
	19	20	3.74386E+000	-2.02765E-007	0.00000E+000	-7.59125E-007	0.00000E+000	7.19633E-004	-3.27672E+002	7	...........
	20	21	3.74390E+000	-2.02319E-007	0.00000E+000	-7.57460E-007	0.00000E+000	5.16567E-004	-3.27672E+002	7	...........
	21	22	3.74394E+000	-2.01815E-007	0.00000E+000	-7.55582E-007	0.00000E+000	4.23967E-004	-3.27672E+002	7	...........
	22	23	3.74399E+000	-2.01348E-007	0.00000E+000	-7.53843E-007	0.00000E+000	4.22983E-004	-3.27672E+002	7	...........
	23	24	3.74404E+000	-2.01370E-007	0.00000E+000	-7.53935E-007	0.00000E+000	4.23900E-004	-3.27672E+002	7	...........
	24	25	3.74408E+000	-2.00304E-007	0.00000E+000	-7.49957E-007	0.00000E+000	4.22100E-004	-3.27672E+002	7	...........
	25	26	3.74414E+000	-1.99759E-007	0.00000E+000	-7.47927E-007	0.00000E+000	4.23567E-004	-3.27672E+002	7	...........
	26	27	3.74419E+000	-1.99651E-007	0.00000E+000	-7.47532E-007	0.00000E+000	4.25433E-004	-3.27672E+002	7	...........
	27	28	3.74428E+000	-2.00389E-007	0.00000E+000	-7.50311E-007	0.00000E+000	4.24917E-004	-3.27672E+002	7	...........
	28	29	3.74432E+000	-1.98724E-007	0.00000E+000	-7.44085E-007	0.00000E+000	4.26817E-004	-3.27672E+002	7	...........
	29	30	3.74439E+000	-1.98841E-007	0.00000E+000	-7.44539E-007	0.00000E+000	4.25833E-004	-3.27672E+002	7	...........
	30	31	3.74447E+000	-1.97673E-007	0.00000E+000	-7.40180E-007	0.00000E+000	4.24367E-004	-3.27672E+002	7	...........
	31	32	3.74455E+000	-1.96906E-007	0.00000E+000	-7.37324E-007	0.00000E+000	4.22733E-004	-3.27672E+002	7	...........
	32	33	3.74461E+000	-1.96570E-007	0.00000E+000	-7.36076E-007	0.00000E+000	4.24033E-004	-3.27672E+002	7	...........
	33	34	3.74466E+000	-1.95276E-007	0.00000E+000	-7.31243E-007	0.00000E+000	4.24883E-004	-3.27672E+002	7	...........
	34	35	3.74474E+000	-1.95104E-007	0.00000E+000	-7.30615E-007	0.00000E+000	4.21417E-004	-3.27672E+002	7	...........
	35	36	3.74480E+000	-1.95238E-007	0.00000E+000	-7.31126E-007	0.00000E+000	4.24983E-004	-3.27672E+002	7	...........
	36	37	3.74486E+000	-1.95770E-007	0.00000E+000	-7.33132E-007	0.00000E+000	4.27117E-004	-3.27672E+002	7	...........
	37	38	3.74491E+000	-1.94662E-007	0.00000E+000	-7.28990E-007	0.00000E+000	4.24617E-004	-3.27672E+002	7	...........
	38	39	3.74496E+000	-1.94601E-007	0.00000E+000	-7.28774E-007	0.00000E+000	4.28133E-004	-3.27672E+002	7	...........
	39	40	3.74502E+000	-1.93943E-007	0.00000E+000	-7.26320E-007	0.00000E+000	4.23633E-004	-3.27672E+002	7	...........
	40	41	3.74507E+000	-1.93341E-007	0.00000E+000	-7.24074E-007	0.00000E+000	4.24050E-004	-3.27672E+002	7	...........
	41	42	3.74512E+000	-1.93169E-007	0.00000E+000	-7.23443E-007	0.00000E+000	4.23550E-004	-3.27672E+002	7	...........
	42	43	3.74517E+000	-1.92813E-007	0.00000E+000	-7.22116E-007	0.00000E+000	4.21317E-004	-3.27672E+002	7	...........
	43	44	3.74521E+000	-1.92817E-007	0.00000E+000	-7.22142E-007	0.00000E+000	4.22300E-004	-3.27672E+002	7	...........
	44	45	3.74525E+000	-1.92446E-007	0.00000E+000	-7.20758E-007	0.00000E+000	4.22183E-004	-3.27672E+002	7	...........
	45	46	3.74529E+000	-1.92622E-007	0.00000E+000	-7.21428E-007	0.00000E+000	4.19217E-004	-3.27672E+002	7	...........
	46	47	3.74532E+000	-1.92239E-007	0.00000E+000	-7.19996E-007	0.00000E+000	4.24183E-004	-3.27672E+002	7	...........
	47	48	3.74535E+000	-1.91857E-007	0.00000E+000	-7.18573E-007	0.00000E+000	4.19067E-004	-3.27672E+002	7	...........
	48	49	3.74539E+000	-1.91143E-007	0.00000E+000	-7.15903E-007	0.00000E+000	4.21467E-004	-3.27672E+002	7	...........
	49	50	3.74543E+000	-1.90762E-007	0.00000E+000	-7.14486E-007	0.00000E+000	4.20650E-004	-3.27672E+002	7	...........
	50	51	3.74545E+000	-1.90856E-007	0.00000E+000	-7.14840E-007	0.00000E+000	4.21667E-004	-3.27672E+002	7	...........
	51	52	3.74548E+000	-1.91151E-007	0.00000E+000	-7.15951E-007	0.00000E+000	4.19550E-004	-3.27672E+002	7	...........
	52	53	3.74552E+000	-1.90406E-007	0.00000E+000	-7.13168E-007	0.00000E+000	4.22717E-004	-3.27672E+002	7	...........
	53	54	3.74555E+000	-1.89409E-007	0.00000E+000	-7.09442E-007	0.00000E+000	4.20550E-004	-3.27672E+002	7	...........
	54	55	3.74558E+000	-1.89173E-007	0.00000E+000	-7.08561E-007	0.00000E+000	4.19533E-004	-3.27672E+002	7	...........
	55	56	3.74561E+000	-1.88616E-007	0.00000E+000	-7.06484E-007	0.00000E+000	4.17267E-004	-3.27672E+002	7	...........
	56	57	3.74565E+000	-1.87957E-007	0.00000E+000	-7.04020E-007	0.00000E+000	4.15833E-004	-3.27672E+002	7	...........
	57	58	3.74568E+000	-1.88065E-007	0.00000E+000	-7.04431E-007	0.00000E+000	4.14350E-004	-3.27672E+002	7	...........
	58	59	3.74571E+000	-1.88166E-007	0.00000E+000	-7.04814E-007	0.00000E+000	4.18317E-004	-3.27672E+002	7	...........
	59	60	3.74573E+000	-1.87465E-007	0.00000E+000	-7.02191E-007	0.00000E+000	4.14167E-004	-3.27672E+002	7	...........
	60	61	3.74576E+000	-1.87512E-007	0.00000E+000	-7.02373E-007	0.00000E+000	4.12400E-004	-3.27672E+002	7	...........
	61	62	3.74578E+000	-1.86997E-007	0.00000E+000	-7.00449E-007	0.00000E+000	4.14233E-004	-3.27672E+002	7	...........
	62	63	3.74582E+000	-1.86843E-007	0.00000E+000	-6.99879E-007	0.00000E+000	4.10750E-004	-3.27672E+002	7	...........
	63	64	3.74584E+000	-1.86333E-007	0.00000E+000	-6.97974E-007	0.00000E+000	4.11433E-004	-3.27672E+002	7	...........
	64	65	3.74586E+000	-1.86024E-007	0.00000E+000	-6.96820E-007	0.00000E+000	4.12667E-004	-3.27672E+002	7	...........
	65	66	3.74590E+000	-1.86137E-007	0.00000E+000	-6.97251E-007	0.00000E+000	4.09583E-004	-3.27672E+002	7	...........
	66	67	3.74592E+000	-1.86015E-007	0.00000E+000	-6.96796E-007	0.00000E+000	4.08117E-004	-3.27672E+002	7	...........
	67	68	3.74594E+000	-1.85854E-007	0.00000E+000	-6.96198E-007	0.00000E+000	4.11050E-004	-3.27672E+002	7	...........
	68	69	3.74597E+000	-1.85656E-007	0.00000E+000	-6.95463E-007	0.00000E+000	4.10450E-004	-3.27672E+002	7	...........
	69	70	3.74599E+000	-1.85547E-007	0.00000E+000	-6.95056E-007	0.00000E+000	4.07517E-004	-3.27672E+002	7	...........
	70	71	3.74601E+000	-1.85042E-007	0.00000E+000	-6.93171E-007	0.00000E+000	4.07667E-004	-3.27672E+002	7	...........
	71	72	3.74604E+000	-1.84742E-007	0.00000E+000	-6.92051E-007	0.00000E+000	4.07550E-004	-3.27672E+002	7	...........
	72	73	3.74606E+000	-1.84633E-007	0.00000E+000	-6.91648E-007	0.00000E+000	4.04450E-004	-3.27672E+002	7	...........
	73	74	3.74609E+000	-1.84436E-007	0.00000E+000	-6.90914E-007	0.00000E+000	4.06750E-004	-3.27672E+002	7	...........
	74	75	3.74611E+000	-1.83805E-007	0.00000E+000	-6.88555E-007	0.00000E+000	4.04400E-004	-3.27672E+002	7	...........
	75	76	3.74613E+000	-1.83034E-007	0.00000E+000	-6.85669E-007	0.00000E+000	4.04233E-004	-3.27672E+002	7	...........
	76	77	3.74615E+000	-1.83241E-007	0.00000E+000	-6.86449E-007	0.00000E+000	4.04717E-004	-3.27672E+002	7	...........
	77	78	3.74618E+000	-1.82634E-007	0.00000E+000	-6.84180E-007	0.00000E+000	4.03800E-004	-3.27672E+002	7	...........
	78	79	3.74620E+000	-1.82750E-007	0.00000E+000	-6.84618E-007	0.00000E+000	4.03467E-004	-3.27672E+002	7	...........
	79	80	3.74622E+000	-1.82564E-007	0.00000E+000	-6.83924E-007	0.00000E+000	4.04283E-004	-3.27672E+002	7	...........
	80	81	3.74624E+000	-1.82021E-007	0.00000E+000	-6.81895E-007	0.00000E+000	4.03500E-004	-3.27672E+002	7	...........
	81	82	3.74626E+000	-1.81981E-007	0.00000E+000	-6.81747E-007	0.00000E+000	4.00200E-004	-3.27672E+002	7	...........
	82	83	3.74629E+000	-1.82048E-007	0.00000E+000	-6.82004E-007	0.00000E+000	4.04217E-004	-3.27672E+002	7	...........
	83	84	3.74631E+000	-1.81592E-007	0.00000E+000	-6.80302E-007	0.00000E+000	4.02350E-004	-3.27672E+002	7	...........
	84	85	3.74632E+000	-1.81535E-007	0.00000E+000	-6.80087E-007	0.00000E+000	4.04233E-004	-3.27672E+002	7	...........
	85	86	3.74635E+000	-1.81515E-007	0.00000E+000	-6.80017E-007	0.00000E+000	4.01700E-004	-3.27672E+002	7	...........
	86	87	3.74638E+000	-1.81394E-007	0.00000E+000	-6.79571E-007	0.00000E+000	4.00400E-004	-3.27672E+002	7	...........
	87	88	3.74639E+000	-1.80979E-007	0.00000E+000	-6.78017E-007	0.00000E+000	4.00583E-004	-3.27672E+002	7	...........
	88	89	3.74642E+000	-1.81164E-007	0.00000E+000	-6.78717E-007	0.00000E+000	4.01017E-004	-3.27672E+002	7	...........
	89	90	3.74644E+000	-1.80950E-007	0.00000E+000	-6.77917E-007	0.00000E+000	3.98750E-004	-3.27672E+002	7	...........
	90	91	3.74646E+000	-1.80848E-007	0.00000E+000	-6.77540E-007	0.00000E+000	3.98117E-004	-3.27672E+002	7	...........
	91	92	3.74648E+000	-1.81185E-007	0.00000E+000	-6.78808E-007	0.00000E+000	3.97717E-004	-3.27672E+002	7	...........
	92	93	3.74650E+000	-1.81277E-007	0.00000E+000	-6.79155E-007	0.00000E+000	3.98967E-004	-3.27672E+002	7	...........
	93	94	3.74652E+000	-1.80759E-007	0.00000E+000	-6.77218E-007	0.00000E+000	4.02367E-004	-3.27672E+002	7	...........
	94	95	3.74653E+000	-1.81313E-007	0.00000E+000	-6.79294E-007	0.00000E+000	3.97067E-004	-3.27672E+002	7	...........
	95	96	3.74655E+000	-1.80489E-007	0.00000E+000	-6.76211E-007	0.00000E+000	3.97183E-004	-3.27672E+002	7	...........
	96	97	3.74657E+000	-1.80126E-007	0.00000E+000	-6.74854E-007	0.00000E+000	3.98100E-004	-3.27672E+002	7	...........
	97	98	3.74659E+000	-1.79441E-007	0.00000E+000	-6.72294E-007	0.00000E+000	3.99033E-004	-3.27672E+002	7	...........
	98	99	3.74661E+000	-1.79268E-007	0.00000E+000	-6.71648E-007	0.00000E+000	4.00250E-004	-3.27672E+002	7	...........
	99	100	3.74663E+000	-1.78377E-007	0.00000E+000	-6.68314E-007	0.00000E+000	3.97267E-004	-3.27672E+002	7	...........
	100	101	3.74665E+000	-1.79157E-007	0.00000E+000	-6.71238E-007	0.00000E+000	3.97117E-004	-3.27672E+002	7	...........
	101	102	3.74665E+000	-1.79141E-007	0.00000E+000	-6.71178E-007	0.00000E+000	3.96450E-004	-3.27672E+002	7	...........
	102	103	3.74668E+000	-1.79090E-007	0.00000E+000	-6.70994E-007	0.00000E+000	3.98183E-004	-3.27672E+002	7	...........
	103	104	3.74669E+000	-1.78728E-007	0.00000E+000	-6.69639E-007	0.00000E+000	3.96917E-004	-3.27672E+002	7	...........
	104	105	3.74670E+000	-1.78645E-007	0.00000E+000	-6.69330E-007	0.00000E+000	3.97833E-004	-3.27672E+002	7	...........
	105	106	3.74672E+000	-1.78700E-007	0.00000E+000	-6.69537E-007	0.00000E+000	3.97450E-004	-3.27672E+002	7	...........
	106	107	3.74674E+000	-1.78595E-007	0.00000E+000	-6.69149E-007	0.00000E+000	3.98583E-004	-3.27672E+002	7	...........
	107	108	3.74675E+000	-1.78553E-007	0.00000E+000	-6.68995E-007	0.00000E+000	3.97583E-004	-3.27672E+002	7	...........
	108	109	3.74677E+000	-1.78008E-007	0.00000E+000	-6.66954E-007	0.00000E+000	3.98850E-004	-3.27672E+002	7	...........
	109	110	3.74678E+000	-1.77421E-007	0.00000E+000	-6.64757E-007	0.00000E+000	3.98900E-004	-3.27672E+002	7	...........
	110	111	3.74680E+000	-1.77598E-007	0.00000E+000	-6.65426E-007	0.00000E+000	3.97483E-004	-3.27672E+002	7	...........
	111	112	3.74682E+000	-1.76526E-007	0.00000E+000	-6.61409E-007	0.00000E+000	3.96017E-004	-3.27672E+002	7	...........
	112	113	3.74684E+000	-1.76692E-007	0.00000E+000	-6.62037E-007	0.00000E+000	3.95817E-004	-3.27672E+002	7	...........
	113	114	3.74684E+000	-1.76642E-007	0.00000E+000	-6.61848E-007	0.00000E+000	3.97100E-004	-3.27672E+002	7	...........
	114	115	3.74685E+000	-1.77179E-007	0.00000E+000	-6.63865E-007	0.00000E+000	3.96983E-004	-3.27672E+002	7	...........
	115	116	3.74686E+000	-1.77486E-007	0.00000E+000	-6.65015E-007	0.00000E+000	3.97700E-004	-3.27672E+002	7	...........
	116	117	3.74688E+000	-1.77688E-007	0.00000E+000	-6.65774E-007	0.00000E+000	3.97467E-004	-3.27672E+002	7	...........
	117	118	3.74690E+000	-1.77070E-007	0.00000E+000	-6.63464E-007	0.00000E+000	3.95967E-004	-3.27672E+002	7	...........
	118	119	3.74690E+000	-1.76191E-007	0.00000E+000	-6.60171E-007	0.00000E+000	3.97033E-004	-3.27672E+002	7	...........
	119	120	3.74693E+000	-1.76426E-007	0.00000E+000	-6.61055E-007	0.00000E+000	3.98250E-004	-3.27672E+002	7	...........
	120	121	3.74693E+000	-1.75079E-007	0.00000E+000	-6.56008E-007	0.00000E+000	3.98267E-004	-3.27672E+002	7	...........
	121	122	3.74694E+000	-1.75402E-007	0.00000E+000	-6.57223E-007	0.00000E+000	3.98600E-004	-3.27672E+002	7	...........
	122	123	3.74696E+000	-1.76575E-007	0.00000E+000	-6.61621E-007	0.00000E+000	4.00300E-004	-3.27672E+002	7	...........
	123	124	3.74697E+000	-1.77038E-007	0.00000E+000	-6.63357E-007	0.00000E+000	3.97750E-004	-3.27672E+002	7	...........
	124	125	3.74699E+000	-1.76146E-007	0.00000E+000	-6.60018E-007	0.00000E+000	3.99000E-004	-3.27672E+002	7	...........
	125	126	3.74699E+000	-1.75410E-007	0.00000E+000	-6.57261E-007	0.00000E+000	3.99533E-004	-3.27672E+002	7	...........
	126	127	3.74700E+000	-1.75728E-007	0.00000E+000	-6.58454E-007	0.00000E+000	3.98983E-004	-3.27672E+002	7	...........
	127	128	3.74703E+000	-1.75189E-007	0.00000E+000	-6.56438E-007	0.00000E+000	4.00767E-004	-3.27672E+002	7	...........
	128	129	3.74704E+000	-1.75196E-007	0.00000E+000	-6.56465E-007	0.00000E+000	4.01817E-004	-3.27672E+002	7	...........
	129	130	3.74705E+000	-1.74764E-007	0.00000E+000	-6.54849E-007	0.00000E+000	4.01050E-004	-3.27672E+002	7	...........
	130	131	3.74707E+000	-1.74946E-007	0.00000E+000	-6.55533E-007	0.00000E+000	4.00400E-004	-3.27672E+002	7	...........
	131	132	3.74707E+000	-1.74578E-007	0.00000E+000	-6.54156E-007	0.00000E+000	3.99833E-004	-3.27672E+002	7	...........
	132	133	3.74709E+000	-1.74745E-007	0.00000E+000	-6.54783E-007	0.00000E+000	4.02417E-004	-3.27672E+002	7	...........
	133	134	3.74711E+000	-1.74242E-007	0.00000E+000	-6.52905E-007	0.00000E+000	4.01533E-004	-3.27672E+002	7	...........
	134	135	3.74711E+000	-1.74654E-007	0.00000E+000	-6.54449E-007	0.00000E+000	3.99367E-004	-3.27672E+002	7	...........
	135	136	3.74712E+000	-1.74318E-007	0.00000E+000	-6.53193E-007	0.00000E+000	4.00900E-004	-3.27672E+002	7	...........
	136	137	3.74714E+000	-1.74619E-007	0.00000E+000	-6.54323E-007	0.00000E+000	4.04033E-004	-3.27672E+002	7	...........
	137	138	3.74716E+000	-1.74757E-007	0.00000E+000	-6.54841E-007	0.00000E+000	4.00900E-004	-3.27672E+002	7	...........
	138	139	3.74716E+000	-1.74437E-007	0.00000E+000	-6.53643E-007	0.00000E+000	4.03250E-004	-3.27672E+002	7	...........
	139	140	3.74718E+000	-1.73658E-007	0.00000E+000	-6.50728E-007	0.00000E+000	4.02483E-004	-3.27672E+002	7	...........
	140	141	3.74719E+000	-1.73080E-007	0.00000E+000	-6.48563E-007	0.00000E+000	4.01683E-004	-3.27672E+002	7	...........
	141	142	3.74720E+000	-1.73566E-007	0.00000E+000	-6.50385E-007	0.00000E+000	4.01983E-004	-3.27672E+002	7	...........
	142	143	3.74720E+000	-1.73534E-007	0.00000E+000	-6.50268E-007	0.00000E+000	4.03067E-004	-3.27672E+002	7	...........
	143	144	3.74722E+000	-1.73630E-007	0.00000E+000	-6.50631E-007	0.00000E+000	4.02633E-004	-3.27672E+002	7	...........
	144	145	3.74723E+000	-1.73377E-007	0.00000E+000	-6.49684E-007	0.00000E+000	4.05183E-004	-3.27672E+002	7	...........
	145	146	3.74724E+000	-1.73242E-007	0.00000E+000	-6.49180E-007	0.00000E+000	4.03433E-004	-3.27672E+002	7	...........
	146	147	3.74725E+000	-1.72850E-007	0.00000E+000	-6.47714E-007	0.00000E+000	4.05383E-004	-3.27672E+002	7	...........
	147	148	3.74727E+000	-1.72992E-007	0.00000E+000	-6.48248E-007	0.00000E+000	4.04217E-004	-3.27672E+002	7	...........
	148	149	3.74727E+000	-1.72557E-007	0.00000E+000	-6.46617E-007	0.00000E+000	4.05967E-004	-3.27672E+002	7	...........
	149	150	3.74729E+000	-1.72498E-007	0.00000E+000	-6.46397E-007	0.00000E+000	4.04183E-004	-3.27672E+002	7	...........
	150	151	3.74729E+000	-1.72804E-007	0.00000E+000	-6.47547E-007	0.00000E+000	4.02900E-004	-3.27672E+002	7	...........
	151	152	3.74729E+000	-1.72739E-007	0.00000E+000	-6.47302E-007	0.00000E+000	4.06333E-004	-3.27672E+002	7	...........
	152	153	3.74730E+000	-1.71270E-007	0.00000E+000	-6.41798E-007	0.00000E+000	4.03917E-004	-3.27672E+002	7	...........
	153	154	3.74732E+000	-1.72088E-007	0.00000E+000	-6.44868E-007	0.00000E+000	4.04133E-004	-3.27672E+002	7	...........
	154	155	3.74732E+000	-1.71789E-007	0.00000E+000	-6.43748E-007	0.00000E+000	4.03467E-004	-3.27672E+002	7	...........
	155	156	3.74733E+000	-1.71701E-007	0.00000E+000	-6.43421E-007	0.00000E+000	4.08417E-004	-3.27672E+002	7	...........
	156	157	3.74734E+000	-1.71868E-007	0.00000E+000	-6.44048E-007	0.00000E+000	4.10417E-004	-3.27672E+002	7	...........
	157	158	3.74734E+000	-1.71421E-007	0.00000E+000	-6.42371E-007	0.00000E+000	4.07267E-004	-3.27672E+002	7	...........
	158	159	3.74735E+000	-1.71871E-007	0.00000E+000	-6.44060E-007	0.00000E+000	4.09800E-004	-3.27672E+002	7	...........
	159	160	3.74736E+000	-1.71649E-007	0.00000E+000	-6.43230E-007	0.00000E+000	4.09667E-004	-3.27672E+002	7	...........
	160	161	3.74737E+000	-1.71344E-007	0.00000E+000	-6.42089E-007	0.00000E+000	4.06400E-004	-3.27672E+002	7	...........
	161	162	3.74738E+000	-1.70422E-007	0.00000E+000	-6.38634E-007	0.00000E+000	4.08933E-004	-3.27672E+002	7	...........
	162	163	3.74739E+000	-1.70221E-007	0.00000E+000	-6.37882E-007	0.00000E+000	4.10000E-004	-3.27672E+002	7	...........
	163	164	3.74739E+000	-1.70085E-007	0.00000E+000	-6.37373E-007	0.00000E+000	4.10417E-004	-3.27672E+002	7	...........
	164	165	3.74740E+000	-1.69888E-007	0.00000E+000	-6.36638E-007	0.00000E+000	4.08900E-004	-3.27672E+002	7	...........
	165	166	3.74741E+000	-1.70670E-007	0.00000E+000	-6.39572E-007	0.00000E+000	4.08417E-004	-3.27672E+002	7	...........
	166	167	3.74742E+000	-1.70805E-007	0.00000E+000	-6.40077E-007	0.00000E+000	4.12100E-004	-3.27672E+002	7	...........
	167	168	3.74742E+000	-1.70625E-007	0.00000E+000	-6.39406E-007	0.00000E+000	4.09017E-004	-3.27672E+002	7	...........
	168	169	3.74743E+000	-1.70364E-007	0.00000E+000	-6.38427E-007	0.00000E+000	4.11267E-004	-3.27672E+002	7	...........
	169	170	3.74744E+000	-1.69773E-007	0.00000E+000	-6.36213E-007	0.00000E+000	4.08767E-004	-3.27672E+002	7	...........
	170	171	3.74744E+000	-1.69608E-007	0.00000E+000	-6.35595E-007	0.00000E+000	4.10850E-004	-3.27672E+002	7	...........
	171	172	3.74745E+000	-1.69071E-007	0.00000E+000	-6.33585E-007	0.00000E+000	4.10783E-004	-3.27672E+002	7	...........
	172	173	3.74746E+000	-1.70230E-007	0.00000E+000	-6.37928E-007	0.00000E+000	4.09217E-004	-3.27672E+002	7	...........
	173	174	3.74747E+000	-1.69452E-007	0.00000E+000	-6.35016E-007	0.00000E+000	4.10617E-004	-3.27672E+002	7	...........
	174	175	3.74748E+000	-1.69094E-007	0.00000E+000	-6.33677E-007	0.00000E+000	4.09883E-004	-3.27672E+002	7	...........
	175	176	3.74748E+000	-1.69876E-007	0.00000E+000	-6.36608E-007	0.00000E+000	4.10350E-004	-3.27672E+002	7	...........
	176	177	3.74749E+000	-1.69557E-007	0.00000E+000	-6.35414E-007	0.00000E+000	4.11650E-004	-3.27672E+002	7	...........
	177	178	3.74749E+000	-1.68619E-007	0.00000E+000	-6.31899E-007	0.00000E+000	4.12100E-004	-3.27672E+002	7	...........
	178	179	3.74750E+000	-1.68578E-007	0.00000E+000	-6.31745E-007	0.00000E+000	4.08817E-004	-3.27672E+002	7	...........
	179	180	3.74751E+000	-1.68195E-007	0.00000E+000	-6.30312E-007	0.00000E+000	4.15483E-004	-3.27672E+002	7	...........
	180	181	3.74752E+000	-1.68209E-007	0.00000E+000	-6.30366E-007	0.00000E+000	4.09800E-004	-3.27672E+002	7	...........
	181	182	3.74752E+000	-1.68485E-007	0.00000E+000	-6.31399E-007	0.00000E+000	4.09817E-004	-3.27672E+002	7	...........
	182	183	3.74754E+000	-1.68118E-007	0.00000E+000	-6.30028E-007	0.00000E+000	4.10650E-004	-3.27672E+002	7	...........
	183	184	3.74754E+000	-1.68730E-007	0.00000E+000	-6.32320E-007	0.00000E+000	4.09100E-004	-3.27672E+002	7	...........
	184	185	3.74755E+000	-1.66897E-007	0.00000E+000	-6.25453E-007	0.00000E+000	4.12800E-004	-3.27672E+002	7	...........
	185	186	3.74755E+000	-1.67308E-007	0.00000E+000	-6.26995E-007	0.00000E+000	4.13100E-004	-3.27672E+002	7	...........
	186	187	3.74756E+000	-1.65956E-007	0.00000E+000	-6.21931E-007	0.00000E+000	4.13100E-004	-3.27672E+002	7	...........
	187	188	3.74756E+000	-1.67606E-007	0.00000E+000	-6.28114E-007	0.00000E+000	4.13150E-004	-3.27672E+002	7	...........
	188	189	3.74757E+000	-1.67565E-007	0.00000E+000	-6.27960E-007	0.00000E+000	4.13850E-004	-3.27672E+002	7	...........
	189	190	3.74758E+000	-1.67344E-007	0.00000E+000	-6.27137E-007	0.00000E+000	4.13867E-004	-3.27672E+002	7	...........
	190	191	3.74759E+000	-1.67239E-007	0.00000E+000	-6.26744E-007	0.00000E+000	4.15483E-004	-3.27672E+002	7	...........
	191	192	3.74760E+000	-1.66676E-007	0.00000E+000	-6.24636E-007	0.00000E+000	4.14950E-004	-3.27672E+002	7	...........
	192	193	3.74761E+000	-1.67347E-007	0.00000E+000	-6.27152E-007	0.00000E+000	4.17100E-004	-3.27672E+002	7	...........
	193	194	3.74762E+000	-1.67327E-007	0.00000E+000	-6.27079E-007	0.00000E+000	4.13600E-004	-3.27672E+002	7	...........
	194	195	3.74762E+000	-1.66666E-007	0.00000E+000	-6.24602E-007	0.00000E+000	4.13933E-004	-3.27672E+002	7	...........
	195	196	3.74763E+000	-1.67072E-007	0.00000E+000	-6.26122E-007	0.00000E+000	4.14800E-004	-3.27672E+002	7	...........
	196	197	3.74764E+000	-1.66518E-007	0.00000E+000	-6.24049E-007	0.00000E+000	4.13200E-004	-3.27672E+002	7	...........
	197	198	3.74764E+000	-1.66479E-007	0.00000E+000	-6.23901E-007	0.00000E+000	4.14267E-004	-3.27672E+002	7	...........
	198	199	3.74765E+000	-1.66961E-007	0.00000E+000	-6.25712E-007	0.00000E+000	4.14133E-004	-3.27672E+002	7	...........
	199	200	3.74765E+000	-1.67140E-007	0.00000E+000	-6.26380E-007	0.00000E+000	4.15033E-004	-3.27672E+002	7	...........
	200	201	3.74766E+000	-1.67262E-007	0.00000E+000	-6.26843E-007	0.00000E+000	4.16883E-004	-3.27672E+002	7	...........
	201	202	3.74767E+000	-1.67479E-007	0.00000E+000	-6.27656E-007	0.00000E+000	4.14817E-004	-3.27672E+002	7	...........
	202	203	3.74767E+000	-1.67285E-007	0.00000E+000	-6.26929E-007	0.00000E+000	4.12800E-004	-3.27672E+002	7	...........
	203	204	3.74768E+000	-1.67396E-007	0.00000E+000	-6.27348E-007	0.00000E+000	4.16300E-004	-3.27672E+002	7	...........
	204	205	3.74769E+000	-1.66662E-007	0.00000E+000	-6.24597E-007	0.00000E+000	4.16933E-004	-3.27672E+002	7	...........
	205	206	3.74770E+000	-1.65726E-007	0.00000E+000	-6.21092E-007	0.00000E+000	4.15817E-004	-3.27672E+002	7	...........
	206	207	3.74771E+000	-1.65742E-007	0.00000E+000	-6.21153E-007	0.00000E+000	4.16067E-004	-3.27672E+002	7	...........
	207	208	3.74771E+000	-1.66057E-007	0.00000E+000	-6.22332E-007	0.00000E+000	4.13800E-004	-3.27672E+002	7	...........
	208	209	3.74772E+000	-1.65301E-007	0.00000E+000	-6.19500E-007	0.00000E+000	4.17117E-004	-3.27672E+002	7	...........
	209	210	3.74773E+000	-1.65896E-007	0.00000E+000	-6.21734E-007	0.00000E+000	4.13300E-004	-3.27672E+002	7	...........
	210	211	3.74774E+000	-1.65472E-007	0.00000E+000	-6.20146E-007	0.00000E+000	4.14967E-004	-3.27672E+002	7	...........
	211	212	3.74775E+000	-1.65029E-007	0.00000E+000	-6.18488E-007	0.00000E+000	4.16550E-004	-3.27672E+002	7	...........
	212	213	3.74775E+000	-1.64949E-007	0.00000E+000	-6.18187E-007	0.00000E+000	4.17517E-004	-3.27672E+002	7	...........
	213	214	3.74776E+000	-1.64150E-007	0.00000E+000	-6.15195E-007	0.00000E+000	4.16600E-004	-3.27672E+002	7	...........
	214	215	3.74776E+000	-1.64709E-007	0.00000E+000	-6.17289E-007	0.00000E+000	4.17700E-004	-3.27672E+002	7	...........
	215	216	3.74777E+000	-1.64788E-007	0.00000E+000	-6.17587E-007	0.00000E+000	4.16833E-004	-3.27672E+002	7	...........
	216	217	3.74778E+000	-1.65219E-007	0.00000E+000	-6.19204E-007	0.00000E+000	4.17150E-004	-3.27672E+002	7	...........
	217	218	3.74778E+000	-1.65160E-007	0.00000E+000	-6.18984E-007	0.00000E+000	4.17000E-004	-3.27672E+002	7	...........
	218	219	3.74779E+000	-1.64962E-007	0.00000E+000	-6.18243E-007	0.00000E+000	4.16467E-004	-3.27672E+002	7	...........
	219	220	3.74780E+000	-1.65690E-007	0.00000E+000	-6.20971E-007	0.00000E+000	4.18333E-004	-3.27672E+002	7	...........
	220	221	3.74781E+000	-1.64819E-007	0.00000E+000	-6.17711E-007	0.00000E+000	4.18767E-004	-3.27672E+002	7	...........
	221	222	3.74781E+000	-1.64918E-007	0.00000E+000	-6.18081E-007	0.00000E+000	4.17583E-004	-3.27672E+002	7	...........
	222	223	3.74782E+000	-1.64795E-007	0.00000E+000	-6.17623E-007	0.00000E+000	4.18250E-004	-3.27672E+002	7	...........
	223	224	3.74783E+000	-1.65055E-007	0.00000E+000	-6.18597E-007	0.00000E+000	4.18517E-004	-3.27672E+002	7	...........
	224	225	3.74783E+000	-1.64836E-007	0.00000E+000	-6.17779E-007	0.00000E+000	4.19450E-004	-3.27672E+002	7	...........
	225	226	3.74783E+000	-1.65083E-007	0.00000E+000	-6.18703E-007	0.00000E+000	4.14700E-004	-3.27672E+002	7	...........
	226	227	3.74784E+000	-1.64835E-007	0.00000E+000	-6.17774E-007	0.00000E+000	4.18067E-004	-3.27672E+002	7	...........
	227	228	3.74785E+000	-1.64338E-007	0.00000E+000	-6.15916E-007	0.00000E+000	4.19350E-004	-3.27672E+002	7	...........
	228	229	3.74785E+000	-1.63624E-007	0.00000E+000	-6.13239E-007	0.00000E+000	4.18433E-004	-3.27672E+002	7	...........
	229	230	3.74787E+000	-1.63645E-007	0.00000E+000	-6.13320E-007	0.00000E+000	4.17967E-004	-3.27672E+002	7	...........
	230	231	3.74788E+000	-1.63130E-007	0.00000E+000	-6.11390E-007	0.00000E+000	4.15133E-004	-3.27672E+002	7	...........
	231	232	3.74788E+000	-1.64440E-007	0.00000E+000	-6.16301E-007	0.00000E+000	4.17000E-004	-3.27672E+002	7	...........
	232	233	3.74789E+000	-1.63845E-007	0.00000E+000	-6.14072E-007	0.00000E+000	4.15983E-004	-3.27672E+002	7	...........
	233	234	3.74789E+000	-1.63648E-007	0.00000E+000	-6.13334E-007	0.00000E+000	4.18483E-004	-3.27672E+002	7	...........
	234	235	3.74791E+000	-1.63180E-007	0.00000E+000	-6.11582E-007	0.00000E+000	4.20900E-004	-3.27672E+002	7	...........
	235	236	3.74792E+000	-1.63232E-007	0.00000E+000	-6.11781E-007	0.00000E+000	4.20150E-004	-3.27672E+002	7	...........
	236	237	3.74792E+000	-1.62851E-007	0.00000E+000	-6.10350E-007	0.00000E+000	4.18250E-004	-3.27672E+002	7	...........
	237	238	3.74793E+000	-1.62857E-007	0.00000E+000	-6.10376E-007	0.00000E+000	4.19267E-004	-3.27672E+002	7	...........
	238	239	3.74793E+000	-1.62751E-007	0.00000E+000	-6.09981E-007	0.00000E+000	4.20317E-004	-3.27672E+002	7	...........
	239	240	3.74794E+000	-1.63163E-007	0.00000E+000	-6.11526E-007	0.00000E+000	4.20283E-004	-3.27672E+002	7	...........
	240	241	3.74794E+000	-1.63332E-007	0.00000E+000	-6.12159E-007	0.00000E+000	4.16050E-004	-3.27672E+002	7	...........
	241	242	3.74795E+000	-1.63291E-007	0.00000E+000	-6.12007E-007	0.00000E+000	4.17117E-004	-3.27672E+002	7	...........
	242	243	3.74796E+000	-1.62720E-007	0.00000E+000	-6.09867E-007	0.00000E+000	4.14383E-004	-3.27672E+002	7	...........
	243	244	3.74798E+000	-1.63568E-007	0.00000E+000	-6.13049E-007	0.00000E+000	4.17167E-004	-3.27672E+002	7	...........
	244	245	3.74798E+000	-1.63289E-007	0.00000E+000	-6.12004E-007	0.00000E+000	4.15000E-004	-3.27672E+002	7	...........
	245	246	3.74798E+000	-1.63817E-007	0.00000E+000	-6.13982E-007	0.00000E+000	4.13067E-004	-3.27672E+002	7	...........
	246	247	3.74799E+000	-1.63072E-007	0.00000E+000	-6.11191E-007	0.00000E+000	4.17300E-004	-3.27672E+002	7	...........
	247	248	3.74799E+000	-1.63356E-007	0.00000E+000	-6.12257E-007	0.00000E+000	4.16450E-004	-3.27672E+002	7	...........
	248	249	3.74802E+000	-1.62937E-007	0.00000E+000	-6.10689E-007	0.00000E+000	4.14033E-004	-3.27672E+002	7	...........
	249	250	3.74802E+000	-1.62908E-007	0.00000E+000	-6.10581E-007	0.00000E+000	4.15000E-004	-3.27672E+002	7	...........
	250	251	3.74803E+000	-1.62527E-007	0.00000E+000	-6.09156E-007	0.00000E+000	4.16817E-004	-3.27672E+002	7	...........
	251	252	3.74803E+000	-1.61980E-007	0.00000E+000	-6.07106E-007	0.00000E+000	4.15300E-004	-3.27672E+002	7	...........
	252	253	3.74805E+000	-1.62032E-007	0.00000E+000	-6.07303E-007	0.00000E+000	4.15117E-004	-3.27672E+002	7	...........
	253	254	3.74805E+000	-1.62837E-007	0.00000E+000	-6.10322E-007	0.00000E+000	4.16450E-004	-3.27672E+002	7	...........
	254	255	3.74805E+000	-1.62982E-007	0.00000E+000	-6.10865E-007	0.00000E+000	4.15717E-004	-3.27672E+002	7	...........
	255	256	3.74806E+000	-1.61609E-007	0.00000E+000	-6.05719E-007	0.00000E+000	4.15633E-004	-3.27672E+002	7	...........
	256	257	3.74806E+000	-1.61902E-007	0.00000E+000	-6.06819E-007	0.00000E+000	4.14267E-004	-3.27672E+002	7	...........
	257	258	3.74807E+000	-1.61389E-007	0.00000E+000	-6.04898E-007	0.00000E+000	4.16450E-004	-3.27672E+002	7	...........
	258	259	3.74807E+000	-1.61257E-007	0.00000E+000	-6.04404E-007	0.00000E+000	4.16767E-004	-3.27672E+002	7	...........
	259	260	3.74808E+000	-1.61816E-007	0.00000E+000	-6.06501E-007	0.00000E+000	4.16667E-004	-3.27672E+002	7	...........
	260	261	3.74810E+000	-1.61642E-007	0.00000E+000	-6.05851E-007	0.00000E+000	4.13583E-004	-3.27672E+002	7	...........
	261	262	3.74810E+000	-1.61725E-007	0.00000E+000	-6.06159E-007	0.00000E+000	4.12300E-004	-3.27672E+002	7	...........
	262	263	3.74811E+000	-1.61533E-007	0.00000E+000	-6.05444E-007	0.00000E+000	4.18217E-004	-3.27672E+002	7	...........
	263	264	3.74812E+000	-1.60702E-007	0.00000E+000	-6.02332E-007	0.00000E+000	4.13133E-004	-3.27672E+002	7	...........
	264	265	3.74812E+000	-1.61178E-007	0.00000E+000	-6.04117E-007	0.00000E+000	4.13100E-004	-3.27672E+002	7	...........
	265	266	3.74813E+000	-1.61192E-007	0.00000E+000	-6.04170E-007	0.00000E+000	4.18650E-004	-3.27672E+002	7	...........
	266	267	3.74813E+000	-1.61081E-007	0.00000E+000	-6.03754E-007	0.00000E+000	4.13483E-004	-3.27672E+002	7	...........
	267	268	3.74813E+000	-1.61138E-007	0.00000E+000	-6.03969E-007	0.00000E+000	4.11867E-004	-3.27672E+002	7	...........
	268	269	3.74814E+000	-1.60908E-007	0.00000E+000	-6.03107E-007	0.00000E+000	4.16417E-004	-3.27672E+002	7	...........
	269	270	3.74814E+000	-1.61146E-007	0.00000E+000	-6.03998E-007	0.00000E+000	4.16867E-004	-3.27672E+002	7	...........
	270	271	3.74815E+000	-1.61107E-007	0.00000E+000	-6.03855E-007	0.00000E+000	4.19050E-004	-3.27672E+002	7	...........
	271	272	3.74817E+000	-1.60626E-007	0.00000E+000	-6.02054E-007	0.00000E+000	4.14750E-004	-3.27672E+002	7	...........
	272	273	3.74816E+000	-1.60228E-007	0.00000E+000	-6.00560E-007	0.00000E+000	4.16383E-004	-3.27672E+002	7	...........
	273	274	3.74818E+000	-1.59846E-007	0.00000E+000	-5.99133E-007	0.00000E+000	4.17150E-004	-3.27672E+002	7	...........
	274	275	3.74819E+000	-1.60001E-007	0.00000E+000	-5.99712E-007	0.00000E+000	4.16883E-004	-3.27672E+002	7	...........
	275	276	3.74818E+000	-1.59934E-007	0.00000E+000	-5.99461E-007	0.00000E+000	4.17483E-004	-3.27672E+002	7	...........
	276	277	3.74819E+000	-1.60123E-007	0.00000E+000	-6.00173E-007	0.00000E+000	4.17800E-004	-3.27672E+002	7	...........
	277	278	3.74819E+000	-1.59999E-007	0.00000E+000	-5.99709E-007	0.00000E+000	4.13300E-004	-3.27672E+002	7	...........
	278	279	3.74820E+000	-1.59278E-007	0.00000E+000	-5.97006E-007	0.00000E+000	4.17617E-004	-3.27672E+002	7	...........
	279	280	3.74821E+000	-1.59564E-007	0.00000E+000	-5.98078E-007	0.00000E+000	4.14333E-004	-3.27672E+002	7	...........
	280	281	3.74822E+000	-1.60044E-007	0.00000E+000	-5.99882E-007	0.00000E+000	4.13483E-004	-3.27672E+002	7	...........
	281	282	3.74823E+000	-1.59353E-007	0.00000E+000	-5.97292E-007	0.00000E+000	4.16183E-004	-3.27672E+002	7	...........
	282	283	3.74824E+000	-1.59433E-007	0.00000E+000	-5.97592E-007	0.00000E+000	4.18200E-004	-3.27672E+002	7	...........
	283	284	3.74825E+000	-1.58359E-007	0.00000E+000	-5.93567E-007	0.00000E+000	4.15667E-004	-3.27672E+002	7	...........
	284	285	3.74824E+000	-1.59171E-007	0.00000E+000	-5.96612E-007	0.00000E+000	4.13900E-004	-3.27672E+002	7	...........
	285	286	3.74825E+000	-1.59669E-007	0.00000E+000	-5.98481E-007	0.00000E+000	4.15583E-004	-3.27672E+002	7	...........
	286	287	3.74826E+000	-1.59611E-007	0.00000E+000	-5.98264E-007	0.00000E+000	4.14317E-004	-3.27672E+002	7	...........
	287	288	3.74827E+000	-1.60190E-007	0.00000E+000	-6.00435E-007	0.00000E+000	4.14267E-004	-3.27672E+002	7	...........
	288	289	3.74828E+000	-1.59678E-007	0.00000E+000	-5.98516E-007	0.00000E+000	4.15917E-004	-3.27672E+002	7	...........
	289	290	3.74829E+000	-1.60046E-007	0.00000E+000	-5.99900E-007	0.00000E+000	4.15517E-004	-3.27672E+002	7	...........
	290	291	3.74830E+000	-1.60322E-007	0.00000E+000	-6.00934E-007	0.00000E+000	4.14900E-004	-3.27672E+002	7	...........
	291	292	3.74830E+000	-1.59831E-007	0.00000E+000	-5.99094E-007	0.00000E+000	4.13400E-004	-3.27672E+002	7	...........
	292	293	3.74830E+000	-1.59487E-007	0.00000E+000	-5.97805E-007	0.00000E+000	4.13567E-004	-3.27672E+002	7	...........
	293	294	3.74831E+000	-1.59099E-007	0.00000E+000	-5.96350E-007	0.00000E+000	4.11867E-004	-3.27672E+002	7	...........
	294	295	3.74831E+000	-1.58467E-007	0.00000E+000	-5.93983E-007	0.00000E+000	4.13783E-004	-3.27672E+002	7	...........
	295	296	3.74830E+000	-1.58765E-007	0.00000E+000	-5.95100E-007	0.00000E+000	4.14583E-004	-3.27672E+002	7	...........
	296	297	3.74831E+000	-1.58470E-007	0.00000E+000	-5.93993E-007	0.00000E+000	4.16700E-004	-3.27672E+002	7	...........
	297	298	3.74832E+000	-1.58619E-007	0.00000E+000	-5.94556E-007	0.00000E+000	4.12467E-004	-3.27672E+002	7	...........
	298	299	3.74832E+000	-1.59037E-007	0.00000E+000	-5.96123E-007	0.00000E+000	4.14500E-004	-3.27672E+002	7	...........
	299	300	3.74833E+000	-1.59012E-007	0.00000E+000	-5.96028E-007	0.00000E+000	4.14217E-004	-3.27672E+002	7	...........
	300	301	3.74834E+000	-1.58726E-007	0.00000E+000	-5.94959E-007	0.00000E+000	4.13750E-004	-3.27672E+002	7	...........
	301	302	3.74834E+000	-1.59444E-007	0.00000E+000	-5.97650E-007	0.00000E+000	4.15800E-004	-3.27672E+002	7	...........
	302	303	3.74835E+000	-1.58818E-007	0.00000E+000	-5.95306E-007	0.00000E+000	4.15583E-004	-3.27672E+002	7	...........
	303	304	3.74836E+000	-1.58781E-007	0.00000E+000	-5.95168E-007	0.00000E+000	4.14517E-004	-3.27672E+002	7	...........
	304	305	3.74837E+000	-1.59208E-007	0.00000E+000	-5.96770E-007	0.00000E+000	4.15867E-004	-3.27672E+002	7	...........
	305	306	3.74837E+000	-1.58691E-007	0.00000E+000	-5.94832E-007	0.00000E+000	4.14017E-004	-3.27672E+002	7	...........
	306	307	3.74839E+000	-1.58899E-007	0.00000E+000	-5.95616E-007	0.00000E+000	4.15633E-004	-3.27672E+002	7	...........
	307	308	3.74839E+000	-1.58715E-007	0.00000E+000	-5.94925E-007	0.00000E+000	4.14017E-004	-3.27672E+002	7	...........
	308	309	3.74839E+000	-1.59062E-007	0.00000E+000	-5.96225E-007	0.00000E+000	4.15417E-004	-3.27672E+002	7	...........
	309	310	3.74839E+000	-1.57945E-007	0.00000E+000	-5.92038E-007	0.00000E+000	4.15717E-004	-3.27672E+002	7	...........
	310	311	3.74840E+000	-1.59333E-007	0.00000E+000	-5.97244E-007	0.00000E+000	4.12550E-004	-3.27672E+002	7	...........
	311	312	3.74841E+000	-1.58078E-007	0.00000E+000	-5.92540E-007	0.00000E+000	4.13467E-004	-3.27672E+002	7	...........
	312	313	3.74842E+000	-1.58808E-007	0.00000E+000	-5.95279E-007	0.00000E+000	4.13117E-004	-3.27672E+002	7	...........
	313	314	3.74842E+000	-1.59208E-007	0.00000E+000	-5.96778E-007	0.00000E+000	4.12583E-004	-3.27672E+002	7	...........
	314	315	3.74843E+000	-1.59292E-007	0.00000E+000	-5.97094E-007	0.00000E+000	4.11600E-004	-3.27672E+002	7	...........
	315	316	3.74843E+000	-1.58913E-007	0.00000E+000	-5.95674E-007	0.00000E+000	4.12883E-004	-3.27672E+002	7	...........
	316	317	3.74845E+000	-1.57506E-007	0.00000E+000	-5.90404E-007	0.00000E+000	4.13900E-004	-3.27672E+002	7	...........
	317	318	3.74844E+000	-1.56778E-007	0.00000E+000	-5.87673E-007	0.00000E+000	4.11500E-004	-3.27672E+002	7	...........
	318	319	3.74844E+000	-1.56299E-007	0.00000E+000	-5.85876E-007	0.00000E+000	4.13417E-004	-3.27672E+002	7	...........
	319	320	3.74845E+000	-1.57034E-007	0.00000E+000	-5.88635E-007	0.00000E+000	4.12833E-004	-3.27672E+002	7	...........
	320	321	3.74846E+000	-1.57332E-007	0.00000E+000	-5.89751E-007	0.00000E+000	4.14950E-004	-3.27672E+002	7	...........
	321	322	3.74846E+000	-1.57551E-007	0.00000E+000	-5.90574E-007	0.00000E+000	4.11583E-004	-3.27672E+002	7	...........
	322	323	3.74847E+000	-1.57353E-007	0.00000E+000	-5.89835E-007	0.00000E+000	4.12467E-004	-3.27672E+002	7	...........
	323	324	3.74848E+000	-1.57007E-007	0.00000E+000	-5.88538E-007	0.00000E+000	4.14567E-004	-3.27672E+002	7	...........
	324	325	3.74848E+000	-1.57048E-007	0.00000E+000	-5.88690E-007	0.00000E+000	4.13450E-004	-3.27672E+002	7	...........
	325	326	3.74849E+000	-1.56710E-007	0.00000E+000	-5.87425E-007	0.00000E+000	4.14833E-004	-3.27672E+002	7	...........
	326	327	3.74850E+000	-1.57023E-007	0.00000E+000	-5.88600E-007	0.00000E+000	4.15700E-004	-3.27672E+002	7	...........
	327	328	3.74851E+000	-1.55631E-007	0.00000E+000	-5.83383E-007	0.00000E+000	4.12533E-004	-3.27672E+002	7	...........
	328	329	3.74851E+000	-1.56209E-007	0.00000E+000	-5.85552E-007	0.00000E+000	4.16083E-004	-3.27672E+002	7	...........
	329	330	3.74851E+000	-1.56313E-007	0.00000E+000	-5.85941E-007	0.00000E+000	4.13583E-004	-3.27672E+002	7	...........
	330	331	3.74852E+000	-1.56103E-007	0.00000E+000	-5.85154E-007	0.00000E+000	4.12433E-004	-3.27672E+002	7	...........
	331	332	3.74853E+000	-1.56539E-007	0.00000E+000	-5.86792E-007	0.00000E+000	4.12717E-004	-3.27672E+002	7	...........
	332	333	3.74854E+000	-1.56315E-007	0.00000E+000	-5.85954E-007	0.00000E+000	4.12867E-004	-3.27672E+002	7	...........
	333	334	3.74854E+000	-1.56188E-007	0.00000E+000	-5.85476E-007	0.00000E+000	4.15000E-004	-3.27672E+002	7	...........
	334	335	3.74854E+000	-1.56758E-007	0.00000E+000	-5.87611E-007	0.00000E+000	4.15200E-004	-3.27672E+002	7	...........
	335	336	3.74856E+000	-1.56285E-007	0.00000E+000	-5.85845E-007	0.00000E+000	4.13967E-004	-3.27672E+002	7	...........
	336	337	3.74856E+000	-1.57222E-007	0.00000E+000	-5.89354E-007	0.00000E+000	4.13900E-004	-3.27672E+002	7	...........
	337	338	3.74856E+000	-1.55770E-007	0.00000E+000	-5.83914E-007	0.00000E+000	4.13583E-004	-3.27672E+002	7	...........
	338	339	3.74857E+000	-1.55366E-007	0.00000E+000	-5.82402E-007	0.00000E+000	4.13217E-004	-3.27672E+002	7	...........
	339	340	3.74858E+000	-1.54608E-007	0.00000E+000	-5.79560E-007	0.00000E+000	4.13233E-004	-3.27672E+002	7	...........
	340	341	3.74858E+000	-1.55376E-007	0.00000E+000	-5.82438E-007	0.00000E+000	4.12483E-004	-3.27672E+002	7	...........
	341	342	3.74858E+000	-1.56595E-007	0.00000E+000	-5.87011E-007	0.00000E+000	4.14633E-004	-3.27672E+002	7	...........
	342	343	3.74860E+000	-1.56480E-007	0.00000E+000	-5.86580E-007	0.00000E+000	4.13400E-004	-3.27672E+002	7	...........
	343	344	3.74860E+000	-1.56681E-007	0.00000E+000	-5.87332E-007	0.00000E+000	4.13633E-004	-3.27672E+002	7	...........
	344	345	3.74860E+000	-1.55727E-007	0.00000E+000	-5.83757E-007	0.00000E+000	4.15633E-004	-3.27672E+002	7	...........
	345	346	3.74860E+000	-1.55715E-007	0.00000E+000	-5.83714E-007	0.00000E+000	4.10400E-004	-3.27672E+002	7	...........
	346	347	3.74861E+000	-1.56271E-007	0.00000E+000	-5.85799E-007	0.00000E+000	4.11417E-004	-3.27672E+002	7	...........
	347	348	3.74862E+000	-1.55838E-007	0.00000E+000	-5.84179E-007	0.00000E+000	4.12383E-004	-3.27672E+002	7	...........
	348	349	3.74863E+000	-1.55704E-007	0.00000E+000	-5.83676E-007	0.00000E+000	4.09317E-004	-3.27672E+002	7	...........
	349	350	3.74863E+000	-1.55563E-007	0.00000E+000	-5.83147E-007	0.00000E+000	4.11133E-004	-3.27672E+002	7	...........
	350	351	3.74863E+000	-1.55831E-007	0.00000E+000	-5.84152E-007	0.00000E+000	4.13583E-004	-3.27672E+002	7	...........
	351	352	3.74863E+000	-1.55972E-007	0.00000E+000	-5.84682E-007	0.00000E+000	4.11850E-004	-3.27672E+002	7	...........
	352	353	3.74864E+000	-1.56029E-007	0.00000E+000	-5.84896E-007	0.00000E+000	4.08983E-004	-3.27672E+002	7	...........
	353	354	3.74864E+000	-1.55759E-007	0.00000E+000	-5.83884E-007	0.00000E+000	4.12183E-004	-3.27672E+002	7	...........
	354	355	3.74865E+000	-1.56736E-007	0.00000E+000	-5.87548E-007	0.00000E+000	4.10633E-004	-3.27672E+002	7	...........
	355	356	3.74866E+000	-1.55879E-007	0.00000E+000	-5.84337E-007	0.00000E+000	4.10367E-004	-3.27672E+002	7	...........
	356	357	3.74866E+000	-1.57087E-007	0.00000E+000	-5.88867E-007	0.00000E+000	4.12233E-004	-3.27672E+002	7	...........
	357	358	3.74866E+000	-1.56457E-007	0.00000E+000	-5.86504E-007	0.00000E+000	4.09883E-004	-3.27672E+002	7	...........
	358	359	3.74867E+000	-1.56331E-007	0.00000E+000	-5.86033E-007	0.00000E+000	4.08983E-004	-3.27672E+002	7	...........
	359	360	3.74867E+000	-1.55837E-007	0.00000E+000	-5.84183E-007	0.00000E+000	4.12233E-004	-3.27672E+002	7	...........
	360	361	3.74868E+000	-1.55629E-007	0.00000E+000	-5.83402E-007	0.00000E+000	4.12167E-004	-3.27672E+002	7	...........
	361	362	3.74868E+000	-1.55520E-007	0.00000E+000	-5.82997E-007	0.00000E+000	4.10333E-004	-3.27672E+002	7	...........
	362	363	3.74869E+000	-1.55250E-007	0.00000E+000	-5.81983E-007	0.00000E+000	4.11417E-004	-3.27672E+002	7	...........
	363	364	3.74870E+000	-1.55240E-007	0.00000E+000	-5.81947E-007	0.00000E+000	4.13417E-004	-3.27672E+002	7	...........
	364	365	3.74870E+000	-1.55176E-007	0.00000E+000	-5.81710E-007	0.00000E+000	4.10900E-004	-3.27672E+002	7	...........
	365	366	3.74870E+000	-1.54661E-007	0.00000E+000	-5.79778E-007	0.00000E+000	4.10867E-004	-3.27672E+002	7	...........
	366	367	3.74870E+000	-1.55246E-007	0.00000E+000	-5.81971E-007	0.00000E+000	4.09000E-004	-3.27672E+002	7	...........
	367	368	3.74872E+000	-1.54927E-007	0.00000E+000	-5.80776E-007	0.00000E+000	4.09533E-004	-3.27672E+002	7	...........
	368	369	3.74872E+000	-1.54772E-007	0.00000E+000	-5.80198E-007	0.00000E+000	4.10617E-004	-3.27672E+002	7	...........
	369	370	3.74871E+000	-1.54758E-007	0.00000E+000	-5.80143E-007	0.00000E+000	4.10717E-004	-3.27672E+002	7	...........
	370	371	3.74872E+000	-1.54450E-007	0.00000E+000	-5.78991E-007	0.00000E+000	4.11783E-004	-3.27672E+002	7	...........
	371	372	3.74873E+000	-1.54503E-007	0.00000E+000	-5.79189E-007	0.00000E+000	4.08467E-004	-3.27672E+002	7	...........
	372	373	3.74874E+000	-1.55060E-007	0.00000E+000	-5.81279E-007	0.00000E+000	4.08517E-004	-3.27672E+002	7	...........
	373	374	3.74873E+000	-1.55166E-007	0.00000E+000	-5.81675E-007	0.00000E+000	4.10550E-004	-3.27672E+002	7	...........
	374	375	3.74873E+000	-1.55162E-007	0.00000E+000	-5.81662E-007	0.00000E+000	4.09767E-004	-3.27672E+002	7	...........
	375	376	3.74874E+000	-1.54851E-007	0.00000E+000	-5.80496E-007	0.00000E+000	4.11500E-004	-3.27672E+002	7	...........
	376	377	3.74874E+000	-1.55061E-007	0.00000E+000	-5.81282E-007	0.00000E+000	4.14783E-004	-3.27672E+002	7	...........
	377	378	3.74875E+000	-1.54323E-007	0.00000E+000	-5.78516E-007	0.00000E+000	4.12733E-004	-3.27672E+002	7	...........
	378	379	3.74875E+000	-1.54596E-007	0.00000E+000	-5.79543E-007	0.00000E+000	4.13683E-004	-3.27672E+002	7	...........
	379	380	3.74876E+000	-1.54881E-007	0.00000E+000	-5.80613E-007	0.00000E+000	4.11433E-004	-3.27672E+002	7	...........
	380	381	3.74877E+000	-1.54657E-007	0.00000E+000	-5.79774E-007	0.00000E+000	4.13267E-004	-3.27672E+002	7	...........
	381	382	3.74878E+000	-1.54746E-007	0.00000E+000	-5.80109E-007	0.00000E+000	4.13200E-004	-3.27672E+002	7	...........
	382	383	3.74878E+000	-1.53912E-007	0.00000E+000	-5.76983E-007	0.00000E+000	4.09400E-004	-3.27672E+002	7	...........
	383	384	3.74878E+000	-1.54877E-007	0.00000E+000	-5.80600E-007	0.00000E+000	4.09467E-004	-3.27672E+002	7	...........
	384	385	3.74877E+000	-1.54307E-007	0.00000E+000	-5.78460E-007	0.00000E+000	4.11783E-004	-3.27672E+002	7	...........
	385	386	3.74878E+000	-1.52945E-007	0.00000E+000	-5.73355E-007	0.00000E+000	4.11717E-004	-3.27672E+002	7	...........
	386	387	3.74878E+000	-1.55421E-007	0.00000E+000	-5.82638E-007	0.00000E+000	4.12467E-004	-3.27672E+002	7	...........
	387	388	3.74878E+000	-1.54194E-007	0.00000E+000	-5.78041E-007	0.00000E+000	4.08717E-004	-3.27672E+002	7	...........
	388	389	3.74878E+000	-1.53915E-007	0.00000E+000	-5.76994E-007	0.00000E+000	4.11800E-004	-3.27672E+002	7	...........
	389	390	3.74879E+000	-1.54373E-007	0.00000E+000	-5.78713E-007	0.00000E+000	4.07917E-004	-3.27672E+002	7	...........
	390	391	3.74880E+000	-1.55080E-007	0.00000E+000	-5.81364E-007	0.00000E+000	4.12917E-004	-3.27672E+002	7	...........
	391	392	3.74881E+000	-1.53634E-007	0.00000E+000	-5.75945E-007	0.00000E+000	4.10617E-004	-3.27672E+002	7	...........
	392	393	3.74880E+000	-1.54006E-007	0.00000E+000	-5.77337E-007	0.00000E+000	4.12050E-004	-3.27672E+002	7	...........
	393	394	3.74881E+000	-1.54078E-007	0.00000E+000	-5.77609E-007	0.00000E+000	4.13017E-004	-3.27672E+002	7	...........
	394	395	3.74881E+000	-1.53499E-007	0.00000E+000	-5.75439E-007	0.00000E+000	4.11883E-004	-3.27672E+002	7	...........
	395	396	3.74882E+000	-1.53714E-007	0.00000E+000	-5.76247E-007	0.00000E+000	4.11167E-004	-3.27672E+002	7	...........
	396	397	3.74882E+000	-1.54232E-007	0.00000E+000	-5.78188E-007	0.00000E+000	4.14517E-004	-3.27672E+002	7	...........
	397	398	3.74883E+000	-1.53334E-007	0.00000E+000	-5.74823E-007	0.00000E+000	4.10667E-004	-3.27672E+002	7	...........
	398	399	3.74884E+000	-1.54463E-007	0.00000E+000	-5.79056E-007	0.00000E+000	4.12000E-004	-3.27672E+002	7	...........
	399	400	3.74884E+000	-1.54548E-007	0.00000E+000	-5.79375E-007	0.00000E+000	4.11633E-004	-3.27672E+002	7	...........
	400	401	3.74885E+000	-1.54337E-007	0.00000E+000	-5.78586E-007	0.00000E+000	4.08817E-004	-3.27672E+002	7	...........
	401	402	3.74885E+000	-1.53812E-007	0.00000E+000	-5.76619E-007	0.00000E+000	4.11367E-004	-3.27672E+002	7	...........
	402	403	3.74886E+000	-1.53300E-007	0.00000E+000	-5.74701E-007	0.00000E+000	4.11033E-004	-3.27672E+002	7	...........
	403	404	3.74885E+000	-1.54030E-007	0.00000E+000	-5.77438E-007	0.00000E+000	4.12833E-004	-3.27672E+002	7	...........
	404	405	3.74886E+000	-1.53724E-007	0.00000E+000	-5.76291E-007	0.00000E+000	4.13317E-004	-3.27672E+002	7	...........
	405	406	3.74886E+000	-1.53272E-007	0.00000E+000	-5.74597E-007	0.00000E+000	4.12050E-004	-3.27672E+002	7	...........
	406	407	3.74887E+000	-1.52783E-007	0.00000E+000	-5.72762E-007	0.00000E+000	4.11567E-004	-3.27672E+002	7	...........
	407	408	3.74887E+000	-1.52250E-007	0.00000E+000	-5.70764E-007	0.00000E+000	4.12950E-004	-3.27672E+002	7	...........
	408	409	3.74888E+000	-1.52981E-007	0.00000E+000	-5.73506E-007	0.00000E+000	4.15717E-004	-3.27672E+002	7	...........
	409	410	3.74889E+000	-1.53717E-007	0.00000E+000	-5.76268E-007	0.00000E+000	4.13800E-004	-3.27672E+002	7	...........
	410	411	3.74889E+000	-1.53535E-007	0.00000E+000	-5.75587E-007	0.00000E+000	4.10167E-004	-3.27672E+002	7	...........
	411	412	3.74889E+000	-1.53067E-007	0.00000E+000	-5.73833E-007	0.00000E+000	4.11600E-004	-3.27672E+002	7	...........
	412	413	3.74889E+000	-1.52464E-007	0.00000E+000	-5.71570E-007	0.00000E+000	4.11200E-004	-3.27672E+002	7	...........
	413	414	3.74890E+000	-1.53368E-007	0.00000E+000	-5.74962E-007	0.00000E+000	4.11250E-004	-3.27672E+002	7	...........
	414	415	3.74891E+000	-1.52247E-007	0.00000E+000	-5.70761E-007	0.00000E+000	4.10233E-004	-3.27672E+002	7	...........
	415	416	3.74891E+000	-1.51437E-007	0.00000E+000	-5.67725E-007	0.00000E+000	4.11700E-004	-3.27672E+002	7	...........
	416	417	3.74891E+000	-1.52169E-007	0.00000E+000	-5.70469E-007	0.00000E+000	4.12650E-004	-3.27672E+002	7	...........
	417	418	3.74891E+000	-1.52222E-007	0.00000E+000	-5.70665E-007	0.00000E+000	4.11683E-004	-3.27672E+002	7	...........
	418	419	3.74892E+000	-1.52213E-007	0.00000E+000	-5.70633E-007	0.00000E+000	4.12683E-004	-3.27672E+002	7	...........
	419	420	3.74892E+000	-1.52266E-007	0.00000E+000	-5.70832E-007	0.00000E+000	4.13400E-004	-3.27672E+002	7	...........
	420	421	3.74892E+000	-1.52471E-007	0.00000E+000	-5.71603E-007	0.00000E+000	4.11600E-004	-3.27672E+002	7	...........
	421	422	3.74893E+000	-1.52471E-007	0.00000E+000	-5.71603E-007	0.00000E+000	4.13317E-004	-3.27672E+002	7	...........
	422	423	3.74893E+000	-1.52172E-007	0.00000E+000	-5.70484E-007	0.00000E+000	4.11067E-004	-3.27672E+002	7	...........
	423	424	3.74894E+000	-1.52636E-007	0.00000E+000	-5.72222E-007	0.00000E+000	4.11600E-004	-3.27672E+002	7	...........
	424	425	3.74894E+000	-1.51950E-007	0.00000E+000	-5.69652E-007	0.00000E+000	4.09550E-004	-3.27672E+002	7	...........
	425	426	3.74895E+000	-1.52466E-007	0.00000E+000	-5.71588E-007	0.00000E+000	4.12883E-004	-3.27672E+002	7	...........
	426	427	3.74895E+000	-1.52577E-007	0.00000E+000	-5.72004E-007	0.00000E+000	4.16250E-004	-3.27672E+002	7	...........
	427	428	3.74894E+000	-1.51710E-007	0.00000E+000	-5.68752E-007	0.00000E+000	4.11750E-004	-3.27672E+002	7	...........
	428	429	3.74895E+000	-1.51540E-007	0.00000E+000	-5.68114E-007	0.00000E+000	4.10917E-004	-3.27672E+002	7	...........
	429	430	3.74896E+000	-1.50781E-007	0.00000E+000	-5.65270E-007	0.00000E+000	4.12917E-004	-3.27672E+002	7	...........
	430	431	3.74896E+000	-1.51872E-007	0.00000E+000	-5.69362E-007	0.00000E+000	4.12500E-004	-3.27672E+002	7	...........
	431	432	3.74897E+000	-1.52095E-007	0.00000E+000	-5.70199E-007	0.00000E+000	4.12233E-004	-3.27672E+002	7	...........
	432	433	3.74896E+000	-1.52091E-007	0.00000E+000	-5.70184E-007	0.00000E+000	4.10317E-004	-3.27672E+002	7	...........
	433	434	3.74897E+000	-1.51620E-007	0.00000E+000	-5.68418E-007	0.00000E+000	4.12900E-004	-3.27672E+002	7	...........
	434	435	3.74896E+000	-1.51819E-007	0.00000E+000	-5.69162E-007	0.00000E+000	4.13383E-004	-3.27672E+002	7	...........
	435	436	3.74897E+000	-1.51787E-007	0.00000E+000	-5.69045E-007	0.00000E+000	4.13700E-004	-3.27672E+002	7	...........
	436	437	3.74898E+000	-1.51633E-007	0.00000E+000	-5.68469E-007	0.00000E+000	4.11717E-004	-3.27672E+002	7	...........
	437	438	3.74899E+000	-1.51596E-007	0.00000E+000	-5.68332E-007	0.00000E+000	4.11933E-004	-3.27672E+002	7	...........
	438	439	3.74898E+000	-1.51561E-007	0.00000E+000	-5.68199E-007	0.00000E+000	4.14733E-004	-3.27672E+002	7	...........
	439	440	3.74899E+000	-1.51828E-007	0.00000E+000	-5.69200E-007	0.00000E+000	4.11467E-004	-3.27672E+002	7	...........
	440	441	3.74899E+000	-1.51893E-007	0.00000E+000	-5.69445E-007	0.00000E+000	4.11617E-004	-3.27672E+002	7	...........
	441	442	3.74899E+000	-1.51324E-007	0.00000E+000	-5.67314E-007	0.00000E+000	4.09983E-004	-3.27672E+002	7	...........
	442	443	3.74900E+000	-1.51878E-007	0.00000E+000	-5.69392E-007	0.00000E+000	4.13517E-004	-3.27672E+002	7	...........
	443	444	3.74901E+000	-1.52399E-007	0.00000E+000	-5.71344E-007	0.00000E+000	4.11100E-004	-3.27672E+002	7	...........
	444	445	3.74900E+000	-1.52384E-007	0.00000E+000	-5.71288E-007	0.00000E+000	4.10933E-004	-3.27672E+002	7	...........
	445	446	3.74901E+000	-1.51844E-007	0.00000E+000	-5.69263E-007	0.00000E+000	4.13733E-004	-3.27672E+002	7	...........
	446	447	3.74901E+000	-1.51932E-007	0.00000E+000	-5.69595E-007	0.00000E+000	4.10050E-004	-3.27672E+002	7	...........
	447	448	3.74901E+000	-1.51648E-007	0.00000E+000	-5.68532E-007	0.00000E+000	4.10850E-004	-3.27672E+002	7	...........
	448	449	3.74902E+000	-1.50678E-007	0.00000E+000	-5.64893E-007	0.00000E+000	4.11133E-004	-3.27672E+002	7	...........
	449	450	3.74901E+000	-1.50561E-007	0.00000E+000	-5.64455E-007	0.00000E+000	4.14983E-004	-3.27672E+002	7	...........
	450	451	3.74901E+000	-1.50975E-007	0.00000E+000	-5.66006E-007	0.00000E+000	4.14517E-004	-3.27672E+002	7	...........
	451	452	3.74902E+000	-1.51183E-007	0.00000E+000	-5.66789E-007	0.00000E+000	4.09167E-004	-3.27672E+002	7	...........
	452	453	3.74902E+000	-1.50993E-007	0.00000E+000	-5.66076E-007	0.00000E+000	4.09233E-004	-3.27672E+002	7	...........
	453	454	3.74903E+000	-1.51226E-007	0.00000E+000	-5.66951E-007	0.00000E+000	4.14250E-004	-3.27672E+002	7	...........
	454	455	3.74903E+000	-1.51263E-007	0.00000E+000	-5.67089E-007	0.00000E+000	4.12500E-004	-3.27672E+002	7	...........
	455	456	3.74904E+000	-1.51464E-007	0.00000E+000	-5.67846E-007	0.00000E+000	4.11950E-004	-3.27672E+002	7	...........
	456	457	3.74903E+000	-1.51457E-007	0.00000E+000	-5.67817E-007	0.00000E+000	4.11617E-004	-3.27672E+002	7	...........
	457	458	3.74904E+000	-1.51389E-007	0.00000E+000	-5.67562E-007	0.00000E+000	4.07350E-004	-3.27672E+002	7	...........
	458	459	3.74904E+000	-1.50907E-007	0.00000E+000	-5.65757E-007	0.00000E+000	4.11350E-004	-3.27672E+002	7	...........
	459	460	3.74904E+000	-1.51184E-007	0.00000E+000	-5.66795E-007	0.00000E+000	4.11100E-004	-3.27672E+002	7	...........
	460	461	3.74905E+000	-1.51142E-007	0.00000E+000	-5.66640E-007	0.00000E+000	4.10750E-004	-3.27672E+002	7	...........
	461	462	3.74905E+000	-1.51128E-007	0.00000E+000	-5.66586E-007	0.00000E+000	4.12233E-004	-3.27672E+002	7	...........
	462	463	3.74905E+000	-1.50775E-007	0.00000E+000	-5.65263E-007	0.00000E+000	4.09767E-004	-3.27672E+002	7	...........
	463	464	3.74906E+000	-1.51500E-007	0.00000E+000	-5.67985E-007	0.00000E+000	4.11950E-004	-3.27672E+002	7	...........
	464	465	3.74907E+000	-1.50421E-007	0.00000E+000	-5.63939E-007	0.00000E+000	4.12783E-004	-3.27672E+002	7	...........
	465	466	3.74906E+000	-1.51485E-007	0.00000E+000	-5.67926E-007	0.00000E+000	4.10917E-004	-3.27672E+002	7	...........
	466	467	3.74907E+000	-1.50777E-007	0.00000E+000	-5.65274E-007	0.00000E+000	4.14833E-004	-3.27672E+002	7	...........
	467	468	3.74908E+000	-1.50987E-007	0.00000E+000	-5.66063E-007	0.00000E+000	4.13283E-004	-3.27672E+002	7	...........
	468	469	3.74908E+000	-1.51962E-007	0.00000E+000	-5.69718E-007	0.00000E+000	4.11867E-004	-3.27672E+002	7	...........
	469	470	3.74908E+000	-1.51436E-007	0.00000E+000	-5.67745E-007	0.00000E+000	4.16100E-004	-3.27672E+002	7	...........
	470	471	3.74908E+000	-1.51246E-007	0.00000E+000	-5.67032E-007	0.00000E+000	4.14067E-004	-3.27672E+002	7	...........
	471	472	3.74909E+000	-1.50631E-007	0.00000E+000	-5.64727E-007	0.00000E+000	4.15067E-004	-3.27672E+002	7	...........
	472	473	3.74908E+000	-1.51236E-007	0.00000E+000	-5.66996E-007	0.00000E+000	4.15567E-004	-3.27672E+002	7	...........
	473	474	3.74908E+000	-1.50146E-007	0.00000E+000	-5.62909E-007	0.00000E+000	4.12400E-004	-3.27672E+002	7	...........
	474	475	3.74909E+000	-1.49911E-007	0.00000E+000	-5.62030E-007	0.00000E+000	4.12767E-004	-3.27672E+002	7	...........
	475	476	3.74909E+000	-1.50903E-007	0.00000E+000	-5.65748E-007	0.00000E+000	4.13733E-004	-3.27672E+002	7	...........
	476	477	3.74909E+000	-1.51424E-007	0.00000E+000	-5.67702E-007	0.00000E+000	4.15333E-004	-3.27672E+002	7	...........
	477	478	3.74910E+000	-1.50684E-007	0.00000E+000	-5.64931E-007	0.00000E+000	4.11817E-004	-3.27672E+002	7	...........
	478	479	3.74910E+000	-1.50031E-007	0.00000E+000	-5.62481E-007	0.00000E+000	4.12550E-004	-3.27672E+002	7	...........
	479	480	3.74911E+000	-1.49618E-007	0.00000E+000	-5.60933E-007	0.00000E+000	4.16967E-004	-3.27672E+002	7	...........
	480	481	3.74910E+000	-1.50442E-007	0.00000E+000	-5.64023E-007	0.00000E+000	4.15333E-004	-3.27672E+002	7	...........
	481	482	3.74911E+000	-1.50052E-007	0.00000E+000	-5.62562E-007	0.00000E+000	4.13350E-004	-3.27672E+002	7	...........
	482	483	3.74911E+000	-1.49571E-007	0.00000E+000	-5.60758E-007	0.00000E+000	4.12683E-004	-3.27672E+002	7	...........
	483	484	3.74911E+000	-1.50446E-007	0.00000E+000	-5.64038E-007	0.00000E+000	4.15000E-004	-3.27672E+002	7	...........
	484	485	3.74911E+000	-1.49826E-007	0.00000E+000	-5.61714E-007	0.00000E+000	4.14900E-004	-3.27672E+002	7	...........
	485	486	3.74912E+000	-1.50764E-007	0.00000E+000	-5.65231E-007	0.00000E+000	4.12917E-004	-3.27672E+002	7	...........
	486	487	3.74912E+000	-1.50699E-007	0.00000E+000	-5.64988E-007	0.00000E+000	4.15717E-004	-3.27672E+002	7	...........
	487	488	3.74913E+000	-1.50622E-007	0.00000E+000	-5.64700E-007	0.00000E+000	4.13283E-004	-3.27672E+002	7	...........
	488	489	3.74914E+000	-1.50309E-007	0.00000E+000	-5.63531E-007	0.00000E+000	4.12400E-004	-3.27672E+002	7	...........
	489	490	3.74913E+000	-1.50623E-007	0.00000E+000	-5.64707E-007	0.00000E+000	4.12133E-004	-3.27672E+002	7	...........
	490	491	3.74913E+000	-1.50177E-007	0.00000E+000	-5.63034E-007	0.00000E+000	4.09017E-004	-3.27672E+002	7	...........
	491	492	3.74913E+000	-1.49605E-007	0.00000E+000	-5.60890E-007	0.00000E+000	4.13767E-004	-3.27672E+002	7	...........
	492	493	3.74914E+000	-1.50227E-007	0.00000E+000	-5.63222E-007	0.00000E+000	4.12033E-004	-3.27672E+002	7	...........
	493	494	3.74915E+000	-1.49980E-007	0.00000E+000	-5.62296E-007	0.00000E+000	4.12700E-004	-3.27672E+002	7	...........
	494	495	3.74914E+000	-1.49521E-007	0.00000E+000	-5.60575E-007	0.00000E+000	4.16400E-004	-3.27672E+002	7	...........
	495	496	3.74914E+000	-1.49073E-007	0.00000E+000	-5.58894E-007	0.00000E+000	4.10117E-004	-3.27672E+002	7	...........
	496	497	3.74915E+000	-1.48496E-007	0.00000E+000	-5.56734E-007	0.00000E+000	4.15350E-004	-3.27672E+002	7	...........
	497	498	3.74915E+000	-1.49884E-007	0.00000E+000	-5.61938E-007	0.00000E+000	4.11467E-004	-3.27672E+002	7	...........
	498	499	3.74915E+000	-1.49844E-007	0.00000E+000	-5.61789E-007	0.00000E+000	4.12100E-004	-3.27672E+002	7	...........
	499	500	3.74915E+000	-1.48847E-007	0.00000E+000	-5.58050E-007	0.00000E+000	4.13367E-004	-3.27672E+002	7	...........
	500	501	3.74917E+000	-1.49524E-007	0.00000E+000	-5.60589E-007	0.00000E+000	4.12800E-004	-3.27672E+002	7	...........
	501	502	3.74917E+000	-1.49641E-007	0.00000E+000	-5.61029E-007	0.00000E+000	4.14367E-004	-3.27672E+002	7	...........
	502	503	3.74916E+000	-1.49227E-007	0.00000E+000	-5.59477E-007	0.00000E+000	4.13383E-004	-3.27672E+002	7	...........
	503	504	3.74917E+000	-1.49019E-007	0.00000E+000	-5.58697E-007	0.00000E+000	4.13650E-004	-3.27672E+002	7	...........
	504	505	3.74917E+000	-1.49136E-007	0.00000E+000	-5.59136E-007	0.00000E+000	4.14267E-004	-3.27672E+002	7	...........
	505	506	3.74918E+000	-1.48972E-007	0.00000E+000	-5.58523E-007	0.00000E+000	4.16133E-004	-3.27672E+002	7	...........
	506	507	3.74917E+000	-1.48263E-007	0.00000E+000	-5.55864E-007	0.00000E+000	4.13917E-004	-3.27672E+002	7	...........
	507	508	3.74917E+000	-1.48255E-007	0.00000E+000	-5.55835E-007	0.00000E+000	4.14183E-004	-3.27672E+002	7	...........
	508	509	3.74918E+000	-1.48771E-007	0.00000E+000	-5.57771E-007	0.00000E+000	4.11750E-004	-3.27672E+002	7	...........
	509	510	3.74918E+000	-1.48479E-007	0.00000E+000	-5.56674E-007	0.00000E+000	4.15000E-004	-3.27672E+002	7	...........
	510	511	3.74919E+000	-1.48565E-007	0.00000E+000	-5.56999E-007	0.00000E+000	4.17917E-004	-3.27672E+002	7	...........
	511	512	3.74919E+000	-1.48613E-007	0.00000E+000	-5.57177E-007	0.00000E+000	4.14133E-004	-3.27672E+002	7	...........
	512	513	3.74919E+000	-1.49022E-007	0.00000E+000	-5.58711E-007	0.00000E+000	4.13467E-004	-3.27672E+002	7	...........
	513	514	3.74919E+000	-1.49164E-007	0.00000E+000	-5.59243E-007	0.00000E+000	4.16683E-004	-3.27672E+002	7	...........
	514	515	3.74919E+000	-1.49147E-007	0.00000E+000	-5.59180E-007	0.00000E+000	4.14533E-004	-3.27672E+002	7	...........
	515	516	3.74919E+000	-1.49275E-007	0.00000E+000	-5.59660E-007	0.00000E+000	4.15033E-004	-3.27672E+002	7	...........
	516	517	3.74919E+000	-1.49374E-007	0.00000E+000	-5.60032E-007	0.00000E+000	4.17000E-004	-3.27672E+002	7	...........
	517	518	3.74920E+000	-1.48677E-007	0.00000E+000	-5.57420E-007	0.00000E+000	4.13300E-004	-3.27672E+002	7	...........
	518	519	3.74920E+000	-1.48076E-007	0.00000E+000	-5.55166E-007	0.00000E+000	4.17183E-004	-3.27672E+002	7	...........
	519	520	3.74920E+000	-1.48095E-007	0.00000E+000	-5.55237E-007	0.00000E+000	4.16067E-004	-3.27672E+002	7	...........
	520	521	3.74920E+000	-1.49141E-007	0.00000E+000	-5.59161E-007	0.00000E+000	4.14783E-004	-3.27672E+002	7	...........
	521	522	3.74921E+000	-1.49176E-007	0.00000E+000	-5.59293E-007	0.00000E+000	4.16300E-004	-3.27672E+002	7	...........
	522	523	3.74921E+000	-1.49258E-007	0.00000E+000	-5.59599E-007	0.00000E+000	4.15067E-004	-3.27672E+002	7	...........
	523	524	3.74922E+000	-1.48686E-007	0.00000E+000	-5.57456E-007	0.00000E+000	4.12983E-004	-3.27672E+002	7	...........
	524	525	3.74921E+000	-1.49141E-007	0.00000E+000	-5.59163E-007	0.00000E+000	4.16033E-004	-3.27672E+002	7	...........
	525	526	3.74922E+000	-1.48189E-007	0.00000E+000	-5.55593E-007	0.00000E+000	4.17467E-004	-3.27672E+002	7	...........
	526	527	3.74922E+000	-1.47986E-007	0.00000E+000	-5.54830E-007	0.00000E+000	4.15467E-004	-3.27672E+002	7	...........
	527	528	3.74922E+000	-1.47997E-007	0.00000E+000	-5.54876E-007	0.00000E+000	4.17183E-004	-3.27672E+002	7	...........
	528	529	3.74922E+000	-1.48866E-007	0.00000E+000	-5.58130E-007	0.00000E+000	4.16617E-004	-3.27672E+002	7	...........
	529	530	3.74923E+000	-1.48345E-007	0.00000E+000	-5.56178E-007	0.00000E+000	4.12800E-004	-3.27672E+002	7	...........
	530	531	3.74923E+000	-1.48598E-007	0.00000E+000	-5.57129E-007	0.00000E+000	4.15867E-004	-3.27672E+002	7	...........
	531	532	3.74923E+000	-1.48209E-007	0.00000E+000	-5.55671E-007	0.00000E+000	4.11383E-004	-3.27672E+002	7	...........
	532	533	3.74923E+000	-1.48506E-007	0.00000E+000	-5.56785E-007	0.00000E+000	4.12233E-004	-3.27672E+002	7	...........
	533	534	3.74924E+000	-1.48550E-007	0.00000E+000	-5.56950E-007	0.00000E+000	4.14617E-004	-3.27672E+002	7	...........
	534	535	3.74924E+000	-1.48955E-007	0.00000E+000	-5.58469E-007	0.00000E+000	4.16633E-004	-3.27672E+002	7	...........
	535	536	3.74924E+000	-1.48248E-007	0.00000E+000	-5.55818E-007	0.00000E+000	4.18000E-004	-3.27672E+002	7	...........
	536	537	3.74925E+000	-1.48179E-007	0.00000E+000	-5.55560E-007	0.00000E+000	4.16733E-004	-3.27672E+002	7	...........
	537	538	3.74925E+000	-1.48347E-007	0.00000E+000	-5.56190E-007	0.00000E+000	4.18267E-004	-3.27672E+002	7	...........
	538	539	3.74925E+000	-1.48525E-007	0.00000E+000	-5.56857E-007	0.00000E+000	4.18167E-004	-3.27672E+002	7	...........
	539	540	3.74924E+000	-1.47265E-007	0.00000E+000	-5.52133E-007	0.00000E+000	4.17517E-004	-3.27672E+002	7	...........
	540	541	3.74926E+000	-1.46523E-007	0.00000E+000	-5.49352E-007	0.00000E+000	4.16800E-004	-3.27672E+002	7	...........
	541	542	3.74926E+000	-1.46920E-007	0.00000E+000	-5.50840E-007	0.00000E+000	4.16817E-004	-3.27672E+002	7	...........
	542	543	3.74926E+000	-1.46711E-007	0.00000E+000	-5.50058E-007	0.00000E+000	4.16317E-004	-3.27672E+002	7	...........
	543	544	3.74926E+000	-1.47327E-007	0.00000E+000	-5.52368E-007	0.00000E+000	4.18583E-004	-3.27672E+002	7	...........
	544	545	3.74926E+000	-1.47699E-007	0.00000E+000	-5.53762E-007	0.00000E+000	4.17783E-004	-3.27672E+002	7	...........
	545	546	3.74926E+000	-1.47876E-007	0.00000E+000	-5.54427E-007	0.00000E+000	4.13733E-004	-3.27672E+002	7	...........
	546	547	3.74926E+000	-1.46892E-007	0.00000E+000	-5.50736E-007	0.00000E+000	4.18617E-004	-3.27672E+002	7	...........
	547	548	3.74927E+000	-1.47471E-007	0.00000E+000	-5.52907E-007	0.00000E+000	4.18383E-004	-3.27672E+002	7	...........
	548	549	3.74926E+000	-1.47173E-007	0.00000E+000	-5.51789E-007	0.00000E+000	4.17983E-004	-3.27672E+002	7	...........
	549	550	3.74927E+000	-1.46477E-007	0.00000E+000	-5.49180E-007	0.00000E+000	4.15750E-004	-3.27672E+002	7	...........
	550	551	3.74927E+000	-1.47208E-007	0.00000E+000	-5.51921E-007	0.00000E+000	4.20233E-004	-3.27672E+002	7	...........
	551	552	3.74927E+000	-1.47289E-007	0.00000E+000	-5.52226E-007	0.00000E+000	4.21700E-004	-3.27672E+002	7	...........
	552	553	3.74927E+000	-1.47196E-007	0.00000E+000	-5.51878E-007	0.00000E+000	4.16350E-004	-3.27672E+002	7	...........
	553	554	3.74928E+000	-1.47473E-007	0.00000E+000	-5.52919E-007	0.00000E+000	4.18800E-004	-3.27672E+002	7	...........
	554	555	3.74929E+000	-1.47063E-007	0.00000E+000	-5.51381E-007	0.00000E+000	4.20717E-004	-3.27672E+002	7	...........
	555	556	3.74929E+000	-1.47399E-007	0.00000E+000	-5.52643E-007	0.00000E+000	4.16333E-004	-3.27672E+002	7	...........
	556	557	3.74929E+000	-1.47349E-007	0.00000E+000	-5.52453E-007	0.00000E+000	4.19233E-004	-3.27672E+002	7	...........
	557	558	3.74929E+000	-1.47585E-007	0.00000E+000	-5.53338E-007	0.00000E+000	4.20733E-004	-3.27672E+002	7	...........
	558	559	3.74929E+000	-1.48053E-007	0.00000E+000	-5.55093E-007	0.00000E+000	4.16100E-004	-3.27672E+002	7	...........
	559	560	3.74930E+000	-1.47800E-007	0.00000E+000	-5.54147E-007	0.00000E+000	4.14767E-004	-3.27672E+002	7	...........
	560	561	3.74930E+000	-1.47445E-007	0.00000E+000	-5.52815E-007	0.00000E+000	4.16117E-004	-3.27672E+002	7	...........
	561	562	3.74930E+000	-1.47618E-007	0.00000E+000	-5.53464E-007	0.00000E+000	4.12200E-004	-3.27672E+002	7	...........
	562	563	3.74931E+000	-1.46637E-007	0.00000E+000	-5.49788E-007	0.00000E+000	4.16400E-004	-3.27672E+002	7	...........
	563	564	3.74931E+000	-1.46852E-007	0.00000E+000	-5.50591E-007	0.00000E+000	4.15900E-004	-3.27672E+002	7	...........
	564	565	3.74931E+000	-1.46505E-007	0.00000E+000	-5.49292E-007	0.00000E+000	4.15983E-004	-3.27672E+002	7	...........
	565	566	3.74931E+000	-1.47527E-007	0.00000E+000	-5.53126E-007	0.00000E+000	4.16300E-004	-3.27672E+002	7	...........
	566	567	3.74931E+000	-1.47560E-007	0.00000E+000	-5.53250E-007	0.00000E+000	4.15933E-004	-3.27672E+002	7	...........
	567	568	3.74931E+000	-1.48026E-007	0.00000E+000	-5.54994E-007	0.00000E+000	4.14833E-004	-3.27672E+002	7	...........
	568	569	3.74931E+000	-1.47487E-007	0.00000E+000	-5.52976E-007	0.00000E+000	4.15700E-004	-3.27672E+002	7	...........
	569	570	3.74931E+000	-1.47189E-007	0.00000E+000	-5.51857E-007	0.00000E+000	4.16483E-004	-3.27672E+002	7	...........
	570	571	3.74933E+000	-1.46850E-007	0.00000E+000	-5.50588E-007	0.00000E+000	4.15817E-004	-3.27672E+002	7	...........
	571	572	3.74932E+000	-1.46871E-007	0.00000E+000	-5.50666E-007	0.00000E+000	4.17017E-004	-3.27672E+002	7	...........
	572	573	3.74932E+000	-1.47026E-007	0.00000E+000	-5.51246E-007	0.00000E+000	4.13450E-004	-3.27672E+002	7	...........
	573	574	3.74932E+000	-1.46831E-007	0.00000E+000	-5.50517E-007	0.00000E+000	4.13367E-004	-3.27672E+002	7	...........
	574	575	3.74932E+000	-1.46076E-007	0.00000E+000	-5.47687E-007	0.00000E+000	4.18767E-004	-3.27672E+002	7	...........
	575	576	3.74933E+000	-1.47402E-007	0.00000E+000	-5.52657E-007	0.00000E+000	4.16117E-004	-3.27672E+002	7	...........
	576	577	3.74934E+000	-1.47292E-007	0.00000E+000	-5.52248E-007	0.00000E+000	4.17483E-004	-3.27672E+002	7	...........
	577	578	3.74933E+000	-1.46989E-007	0.00000E+000	-5.51110E-007	0.00000E+000	4.16267E-004	-3.27672E+002	7	...........
	578	579	3.74934E+000	-1.47379E-007	0.00000E+000	-5.52575E-007	0.00000E+000	4.17583E-004	-3.27672E+002	7	...........
	579	580	3.74934E+000	-1.46973E-007	0.00000E+000	-5.51052E-007	0.00000E+000	4.17517E-004	-3.27672E+002	7	...........
	580	581	3.74935E+000	-1.46977E-007	0.00000E+000	-5.51067E-007	0.00000E+000	4.17150E-004	-3.27672E+002	7	...........
	581	582	3.74934E+000	-1.46071E-007	0.00000E+000	-5.47670E-007	0.00000E+000	4.15067E-004	-3.27672E+002	7	...........
	582	583	3.74935E+000	-1.46164E-007	0.00000E+000	-5.48019E-007	0.00000E+000	4.19500E-004	-3.27672E+002	7	...........
	583	584	3.74935E+000	-1.46183E-007	0.00000E+000	-5.48091E-007	0.00000E+000	4.16783E-004	-3.27672E+002	7	...........
	584	585	3.74935E+000	-1.46851E-007	0.00000E+000	-5.50594E-007	0.00000E+000	4.19083E-004	-3.27672E+002	7	...........
	585	586	3.74934E+000	-1.45964E-007	0.00000E+000	-5.47269E-007	0.00000E+000	4.19517E-004	-3.27672E+002	7	...........
	586	587	3.74935E+000	-1.46232E-007	0.00000E+000	-5.48276E-007	0.00000E+000	4.17000E-004	-3.27672E+002	7	...........
	587	588	3.74935E+000	-1.46321E-007	0.00000E+000	-5.48611E-007	0.00000E+000	4.17367E-004	-3.27672E+002	7	...........
	588	589	3.74936E+000	-1.46175E-007	0.00000E+000	-5.48063E-007	0.00000E+000	4.18667E-004	-3.27672E+002	7	...........
	589	590	3.74936E+000	-1.46458E-007	0.00000E+000	-5.49126E-007	0.00000E+000	4.17267E-004	-3.27672E+002	7	...........
	590	591	3.74936E+000	-1.46223E-007	0.00000E+000	-5.48242E-007	0.00000E+000	4.18217E-004	-3.27672E+002	7	...........
	591	592	3.74936E+000	-1.45609E-007	0.00000E+000	-5.45941E-007	0.00000E+000	4.17683E-004	-3.27672E+002	7	...........
	592	593	3.74936E+000	-1.45289E-007	0.00000E+000	-5.44743E-007	0.00000E+000	4.21517E-004	-3.27672E+002	7	...........
	593	594	3.74936E+000	-1.45118E-007	0.00000E+000	-5.44099E-007	0.00000E+000	4.18017E-004	-3.27672E+002	7	...........
	594	595	3.74937E+000	-1.45837E-007	0.00000E+000	-5.46795E-007	0.00000E+000	4.17250E-004	-3.27672E+002	7	...........
	595	596	3.74937E+000	-1.45433E-007	0.00000E+000	-5.45281E-007	0.00000E+000	4.17067E-004	-3.27672E+002	7	...........
	596	597	3.74937E+000	-1.46277E-007	0.00000E+000	-5.48448E-007	0.00000E+000	4.21367E-004	-3.27672E+002	7	...........
	597	598	3.74937E+000	-1.46545E-007	0.00000E+000	-5.49452E-007	0.00000E+000	4.20117E-004	-3.27672E+002	7	...........
	598	599	3.74938E+000	-1.46452E-007	0.00000E+000	-5.49105E-007	0.00000E+000	4.17733E-004	-3.27672E+002	7	...........
	599	600	3.74937E+000	-1.46408E-007	0.00000E+000	-5.48940E-007	0.00000E+000	4.22017E-004	-3.27672E+002	7	...........
