EXPLAIN
TAG	PWR800_READVOLTAGE
TITLE	LABEL	PWR Read Voltage	Test Identifier
DATE	LABEL	8.2.2024	Date
TIME	LABEL	12:52:03	Time
NOTES	NOTES	1	Notes...
	
PSTAT	PSTAT	REF600-12055	Potentiostat
CAPACITY	QUANT	1.00000E+000	Capacity (A-hr)
CELLTYPE	SELECTOR	1	Cell Type
WORKINGCONNECTION	SELECTOR	0	Working Connection
MAXTIME	VARIABLEANDUNITS	6.00000E+002	s	6.00000E+002	second(s)	Max Time
SAMPLETIME	QUANT	1.00000E+000	Sample Period (s)
STOPAT1	MULTIPARAM	0	0.00000E+000	Stop At 1	None	N/A
STOPAT2	MULTIPARAM	0	0.00000E+000	Stop At 2	None	N/A
AESBHCSELECTOR	TOGGLE	F	Save Both Half Cells
EOC	QUANT	3.663071	Open Circuit (V)
SEQUENCER	TOGGLE	TRUE	Run as Sequence
PSTATMODEL	IQUANT	4	Pstat Model
PSTATSECTION	LABEL	REF600-12055	Pstat Section
PSTATSERIALNO	LABEL	12055	Pstat Serial Number
CTRLMODE	IQUANT	0	Control Mode
ELECTROMETER	IQUANT	0	RE=0 or CS=1
IESTAB	IQUANT	0	I/E Stability
CASPEED	IQUANT	4	Control Amp Speed
CONVENTION	IQUANT	1	Current Convention
ICHRANGE	IQUANT	2	Ich Range
ICHRANGEMODE	TOGGLE	T	Ich Auto Range
ICHOFFSETENABLE	TOGGLE	F	Ich Offset Enable
ICHOFFSET	QUANT	0	Ich Offset (V)
ICHFILTER	IQUANT	1	Ich Filter
VCHRANGE	IQUANT	3	Vch Range
VCHRANGEMODE	TOGGLE	T	Vch Auto Range
VCHOFFSETENABLE	TOGGLE	F	Vch Offset Enable
VCHOFFSET	QUANT	0	Vch Offset (V)
VCHFILTER	IQUANT	1	Vch Filter
ACHRANGE	IQUANT	2	Ach Range
ACHOFFSETENABLE	TOGGLE	F	Ach Offset Enable
ACHOFFSET	QUANT	0	Ach Offset (V)
ACHFILTER	IQUANT	1	Ach Filter
IERANGELOWERLIMIT	IQUANT	7	I/E Range Lower Limit
IERANGEMODE	TOGGLE	F	I/E AutoRange
IERANGE	IQUANT	11	I/E Range
POSFEEDENABLE	TOGGLE	F	Positive Feedback IR Comp
POSFEEDRESISTANCE	QUANT	0	Positive Feedback Resistance (ohm)
ACHSELECT	IQUANT	4	Ach Select
SENSECABLEID	IQUANT	14	Sense Cable ID
PWRCABLEID	IQUANT	14	Power Cable ID
DCCALDATE	LABEL		DC Calibration Date
ACCALDATE	LABEL		AC Calibration Date
THERMOSELECT	IQUANT	1	Thermo Select
FRAMEWORKVERSION	LABEL	7.10.3	Framework Version
INSTRUMENTVERSION	LABEL	4.91	Instrument Version
COMMVERSION	LABEL	2.24	Communications Version
CPUPLDVERSION	LABEL	0.00	CPU PLD Version
CTRLPLDVERSION	LABEL	0.00	CTRL PLD Version
PSTATPLDVERSION	LABEL	0.00	PSTAT PLD Version
CURVE	TABLE	600
	Pt	T	Vf	Im	Vu	Pwr	Sig	Ach	Temp	IERange	Over
	#	s	V	A	V	W	V	V	deg C	#	bits
	0	1	3.59295E+000	1.11658E-006	0.00000E+000	4.01180E-006	0.00000E+000	7.67500E-004	-3.27672E+002	7	...........
	1	2	3.59318E+000	1.11628E-006	0.00000E+000	4.01099E-006	0.00000E+000	7.66950E-004	-3.27672E+002	7	...........
	2	3	3.59336E+000	1.11682E-006	0.00000E+000	4.01313E-006	0.00000E+000	7.63883E-004	-3.27672E+002	7	...........
	3	4	3.59350E+000	1.11647E-006	0.00000E+000	4.01203E-006	0.00000E+000	7.65633E-004	-3.27672E+002	7	...........
	4	5	3.59363E+000	1.11671E-006	0.00000E+000	4.01304E-006	0.00000E+000	7.65967E-004	-3.27672E+002	7	...........
	5	6	3.59374E+000	1.11711E-006	0.00000E+000	4.01459E-006	0.00000E+000	7.67317E-004	-3.27672E+002	7	...........
	6	7	3.59383E+000	1.11591E-006	0.00000E+000	4.01040E-006	0.00000E+000	7.68133E-004	-3.27672E+002	7	...........
	7	8	3.59392E+000	1.11528E-006	0.00000E+000	4.00824E-006	0.00000E+000	7.66550E-004	-3.27672E+002	7	...........
	8	9	3.59398E+000	1.11528E-006	0.00000E+000	4.00830E-006	0.00000E+000	7.66550E-004	-3.27672E+002	7	...........
	9	10	3.59405E+000	1.11547E-006	0.00000E+000	4.00908E-006	0.00000E+000	7.64383E-004	-3.27672E+002	7	...........
	10	11	3.59413E+000	1.11552E-006	0.00000E+000	4.00933E-006	0.00000E+000	7.67200E-004	-3.27672E+002	7	...........
	11	12	3.59420E+000	1.11611E-006	0.00000E+000	4.01154E-006	0.00000E+000	7.64917E-004	-3.27672E+002	7	...........
	12	13	3.59427E+000	1.11584E-006	0.00000E+000	4.01061E-006	0.00000E+000	7.68067E-004	-3.27672E+002	7	...........
	13	14	3.59434E+000	1.11577E-006	0.00000E+000	4.01045E-006	0.00000E+000	7.65583E-004	-3.27672E+002	7	...........
	14	15	3.59440E+000	1.11575E-006	0.00000E+000	4.01044E-006	0.00000E+000	7.62967E-004	-3.27672E+002	7	...........
	15	16	3.59448E+000	1.11593E-006	0.00000E+000	4.01118E-006	0.00000E+000	7.59333E-004	-3.27672E+002	7	...........
	16	17	3.59455E+000	1.11543E-006	0.00000E+000	4.00949E-006	0.00000E+000	7.59050E-004	-3.27672E+002	7	...........
	17	18	3.59461E+000	1.11527E-006	0.00000E+000	4.00896E-006	0.00000E+000	7.59217E-004	-3.27672E+002	7	...........
	18	19	3.59468E+000	1.11532E-006	0.00000E+000	4.00920E-006	0.00000E+000	7.54700E-004	-3.27672E+002	7	...........
	19	20	3.59474E+000	1.11507E-006	0.00000E+000	4.00839E-006	0.00000E+000	7.55217E-004	-3.27672E+002	7	...........
	20	21	3.59481E+000	1.11533E-006	0.00000E+000	4.00939E-006	0.00000E+000	5.72850E-004	-3.27672E+002	7	...........
	21	22	3.59487E+000	1.11479E-006	0.00000E+000	4.00754E-006	0.00000E+000	4.92550E-004	-3.27672E+002	7	...........
	22	23	3.59493E+000	1.11496E-006	0.00000E+000	4.00821E-006	0.00000E+000	4.91000E-004	-3.27672E+002	7	...........
	23	24	3.59497E+000	1.11525E-006	0.00000E+000	4.00929E-006	0.00000E+000	4.87817E-004	-3.27672E+002	7	...........
	24	25	3.59503E+000	1.11537E-006	0.00000E+000	4.00979E-006	0.00000E+000	4.90467E-004	-3.27672E+002	7	...........
	25	26	3.59509E+000	1.11519E-006	0.00000E+000	4.00920E-006	0.00000E+000	4.88000E-004	-3.27672E+002	7	...........
	26	27	3.59514E+000	1.11559E-006	0.00000E+000	4.01071E-006	0.00000E+000	4.88250E-004	-3.27672E+002	7	...........
	27	28	3.59520E+000	1.11526E-006	0.00000E+000	4.00958E-006	0.00000E+000	4.86917E-004	-3.27672E+002	7	...........
	28	29	3.59524E+000	1.11542E-006	0.00000E+000	4.01020E-006	0.00000E+000	4.87017E-004	-3.27672E+002	7	...........
	29	30	3.59529E+000	1.11549E-006	0.00000E+000	4.01050E-006	0.00000E+000	4.81817E-004	-3.27672E+002	7	...........
	30	31	3.59533E+000	1.11507E-006	0.00000E+000	4.00905E-006	0.00000E+000	4.85017E-004	-3.27672E+002	7	...........
	31	32	3.59537E+000	1.11498E-006	0.00000E+000	4.00878E-006	0.00000E+000	4.81933E-004	-3.27672E+002	7	...........
	32	33	3.59541E+000	1.11502E-006	0.00000E+000	4.00897E-006	0.00000E+000	4.84300E-004	-3.27672E+002	7	...........
	33	34	3.59546E+000	1.11543E-006	0.00000E+000	4.01048E-006	0.00000E+000	4.82100E-004	-3.27672E+002	7	...........
	34	35	3.59549E+000	1.11554E-006	0.00000E+000	4.01092E-006	0.00000E+000	4.83617E-004	-3.27672E+002	7	...........
	35	36	3.59553E+000	1.11551E-006	0.00000E+000	4.01085E-006	0.00000E+000	4.82867E-004	-3.27672E+002	7	...........
	36	37	3.59557E+000	1.11479E-006	0.00000E+000	4.00829E-006	0.00000E+000	4.81483E-004	-3.27672E+002	7	...........
	37	38	3.59560E+000	1.11487E-006	0.00000E+000	4.00863E-006	0.00000E+000	4.82467E-004	-3.27672E+002	7	...........
	38	39	3.59564E+000	1.11478E-006	0.00000E+000	4.00834E-006	0.00000E+000	4.85067E-004	-3.27672E+002	7	...........
	39	40	3.59567E+000	1.11558E-006	0.00000E+000	4.01125E-006	0.00000E+000	4.83017E-004	-3.27672E+002	7	...........
	40	41	3.59571E+000	1.11577E-006	0.00000E+000	4.01200E-006	0.00000E+000	4.83717E-004	-3.27672E+002	7	...........
	41	42	3.59573E+000	1.11523E-006	0.00000E+000	4.01007E-006	0.00000E+000	4.83150E-004	-3.27672E+002	7	...........
	42	43	3.59576E+000	1.11561E-006	0.00000E+000	4.01148E-006	0.00000E+000	4.87900E-004	-3.27672E+002	7	...........
	43	44	3.59580E+000	1.11595E-006	0.00000E+000	4.01272E-006	0.00000E+000	4.82350E-004	-3.27672E+002	7	...........
	44	45	3.59584E+000	1.11528E-006	0.00000E+000	4.01036E-006	0.00000E+000	4.87783E-004	-3.27672E+002	7	...........
	45	46	3.59588E+000	1.11555E-006	0.00000E+000	4.01139E-006	0.00000E+000	4.87600E-004	-3.27672E+002	7	...........
	46	47	3.59590E+000	1.11631E-006	0.00000E+000	4.01415E-006	0.00000E+000	4.88450E-004	-3.27672E+002	7	...........
	47	48	3.59593E+000	1.11624E-006	0.00000E+000	4.01393E-006	0.00000E+000	4.86833E-004	-3.27672E+002	7	...........
	48	49	3.59597E+000	1.11583E-006	0.00000E+000	4.01248E-006	0.00000E+000	4.86683E-004	-3.27672E+002	7	...........
	49	50	3.59600E+000	1.11540E-006	0.00000E+000	4.01097E-006	0.00000E+000	4.86483E-004	-3.27672E+002	7	...........
	50	51	3.59603E+000	1.11556E-006	0.00000E+000	4.01160E-006	0.00000E+000	4.87317E-004	-3.27672E+002	7	...........
	51	52	3.59606E+000	1.11471E-006	0.00000E+000	4.00855E-006	0.00000E+000	4.87400E-004	-3.27672E+002	7	...........
	52	53	3.59610E+000	1.11552E-006	0.00000E+000	4.01153E-006	0.00000E+000	4.89150E-004	-3.27672E+002	7	...........
	53	54	3.59613E+000	1.11583E-006	0.00000E+000	4.01265E-006	0.00000E+000	4.86383E-004	-3.27672E+002	7	...........
	54	55	3.59616E+000	1.11558E-006	0.00000E+000	4.01179E-006	0.00000E+000	4.87817E-004	-3.27672E+002	7	...........
	55	56	3.59619E+000	1.11583E-006	0.00000E+000	4.01273E-006	0.00000E+000	4.89883E-004	-3.27672E+002	7	...........
	56	57	3.59622E+000	1.11544E-006	0.00000E+000	4.01136E-006	0.00000E+000	4.87317E-004	-3.27672E+002	7	...........
	57	58	3.59625E+000	1.11594E-006	0.00000E+000	4.01321E-006	0.00000E+000	4.91433E-004	-3.27672E+002	7	...........
	58	59	3.59627E+000	1.11596E-006	0.00000E+000	4.01331E-006	0.00000E+000	4.89217E-004	-3.27672E+002	7	...........
	59	60	3.59630E+000	1.11613E-006	0.00000E+000	4.01394E-006	0.00000E+000	4.89317E-004	-3.27672E+002	7	...........
	60	61	3.59633E+000	1.11582E-006	0.00000E+000	4.01285E-006	0.00000E+000	4.88517E-004	-3.27672E+002	7	...........
	61	62	3.59635E+000	1.11553E-006	0.00000E+000	4.01185E-006	0.00000E+000	4.86817E-004	-3.27672E+002	7	...........
	62	63	3.59637E+000	1.11567E-006	0.00000E+000	4.01238E-006	0.00000E+000	4.89233E-004	-3.27672E+002	7	...........
	63	64	3.59640E+000	1.11479E-006	0.00000E+000	4.00922E-006	0.00000E+000	4.86750E-004	-3.27672E+002	7	...........
	64	65	3.59642E+000	1.11477E-006	0.00000E+000	4.00919E-006	0.00000E+000	4.88500E-004	-3.27672E+002	7	...........
	65	66	3.59645E+000	1.11527E-006	0.00000E+000	4.01102E-006	0.00000E+000	4.86050E-004	-3.27672E+002	7	...........
	66	67	3.59647E+000	1.11575E-006	0.00000E+000	4.01275E-006	0.00000E+000	4.85083E-004	-3.27672E+002	7	...........
	67	68	3.59650E+000	1.11645E-006	0.00000E+000	4.01532E-006	0.00000E+000	4.88200E-004	-3.27672E+002	7	...........
	68	69	3.59652E+000	1.11668E-006	0.00000E+000	4.01615E-006	0.00000E+000	4.84400E-004	-3.27672E+002	7	...........
	69	70	3.59653E+000	1.11676E-006	0.00000E+000	4.01647E-006	0.00000E+000	4.87000E-004	-3.27672E+002	7	...........
	70	71	3.59656E+000	1.11686E-006	0.00000E+000	4.01684E-006	0.00000E+000	4.87750E-004	-3.27672E+002	7	...........
	71	72	3.59658E+000	1.11624E-006	0.00000E+000	4.01466E-006	0.00000E+000	4.85850E-004	-3.27672E+002	7	...........
	72	73	3.59659E+000	1.11600E-006	0.00000E+000	4.01381E-006	0.00000E+000	4.85617E-004	-3.27672E+002	7	...........
	73	74	3.59662E+000	1.11587E-006	0.00000E+000	4.01336E-006	0.00000E+000	4.89933E-004	-3.27672E+002	7	...........
	74	75	3.59664E+000	1.11657E-006	0.00000E+000	4.01589E-006	0.00000E+000	4.89383E-004	-3.27672E+002	7	...........
	75	76	3.59666E+000	1.11659E-006	0.00000E+000	4.01599E-006	0.00000E+000	4.92583E-004	-3.27672E+002	7	...........
	76	77	3.59669E+000	1.11673E-006	0.00000E+000	4.01651E-006	0.00000E+000	4.90217E-004	-3.27672E+002	7	...........
	77	78	3.59671E+000	1.11708E-006	0.00000E+000	4.01781E-006	0.00000E+000	4.92950E-004	-3.27672E+002	7	...........
	78	79	3.59674E+000	1.11686E-006	0.00000E+000	4.01705E-006	0.00000E+000	4.92317E-004	-3.27672E+002	7	...........
	79	80	3.59676E+000	1.11644E-006	0.00000E+000	4.01557E-006	0.00000E+000	4.92983E-004	-3.27672E+002	7	...........
	80	81	3.59678E+000	1.11660E-006	0.00000E+000	4.01615E-006	0.00000E+000	4.91967E-004	-3.27672E+002	7	...........
	81	82	3.59681E+000	1.11603E-006	0.00000E+000	4.01413E-006	0.00000E+000	4.94483E-004	-3.27672E+002	7	...........
	82	83	3.59684E+000	1.11655E-006	0.00000E+000	4.01606E-006	0.00000E+000	4.92617E-004	-3.27672E+002	7	...........
	83	84	3.59685E+000	1.11629E-006	0.00000E+000	4.01513E-006	0.00000E+000	4.95217E-004	-3.27672E+002	7	...........
	84	85	3.59689E+000	1.11536E-006	0.00000E+000	4.01181E-006	0.00000E+000	4.94117E-004	-3.27672E+002	7	...........
	85	86	3.59691E+000	1.11584E-006	0.00000E+000	4.01356E-006	0.00000E+000	4.99317E-004	-3.27672E+002	7	...........
	86	87	3.59694E+000	1.11577E-006	0.00000E+000	4.01335E-006	0.00000E+000	4.98267E-004	-3.27672E+002	7	...........
	87	88	3.59696E+000	1.11583E-006	0.00000E+000	4.01359E-006	0.00000E+000	4.97700E-004	-3.27672E+002	7	...........
	88	89	3.59699E+000	1.11565E-006	0.00000E+000	4.01299E-006	0.00000E+000	4.99200E-004	-3.27672E+002	7	...........
	89	90	3.59702E+000	1.11663E-006	0.00000E+000	4.01655E-006	0.00000E+000	4.99233E-004	-3.27672E+002	7	...........
	90	91	3.59705E+000	1.11602E-006	0.00000E+000	4.01439E-006	0.00000E+000	5.02900E-004	-3.27672E+002	7	...........
	91	92	3.59707E+000	1.11662E-006	0.00000E+000	4.01658E-006	0.00000E+000	4.98533E-004	-3.27672E+002	7	...........
	92	93	3.59709E+000	1.11668E-006	0.00000E+000	4.01679E-006	0.00000E+000	4.99200E-004	-3.27672E+002	7	...........
	93	94	3.59713E+000	1.11594E-006	0.00000E+000	4.01416E-006	0.00000E+000	5.02367E-004	-3.27672E+002	7	...........
	94	95	3.59716E+000	1.11663E-006	0.00000E+000	4.01669E-006	0.00000E+000	5.04383E-004	-3.27672E+002	7	...........
	95	96	3.59719E+000	1.11643E-006	0.00000E+000	4.01602E-006	0.00000E+000	5.08583E-004	-3.27672E+002	7	...........
	96	97	3.59721E+000	1.11645E-006	0.00000E+000	4.01611E-006	0.00000E+000	5.09183E-004	-3.27672E+002	7	...........
	97	98	3.59725E+000	1.11679E-006	0.00000E+000	4.01735E-006	0.00000E+000	5.07700E-004	-3.27672E+002	7	...........
	98	99	3.59727E+000	1.11705E-006	0.00000E+000	4.01832E-006	0.00000E+000	5.08800E-004	-3.27672E+002	7	...........
	99	100	3.59730E+000	1.11676E-006	0.00000E+000	4.01731E-006	0.00000E+000	5.09083E-004	-3.27672E+002	7	...........
	100	101	3.59732E+000	1.11674E-006	0.00000E+000	4.01728E-006	0.00000E+000	5.07533E-004	-3.27672E+002	7	...........
	101	102	3.59736E+000	1.11691E-006	0.00000E+000	4.01791E-006	0.00000E+000	5.13283E-004	-3.27672E+002	7	...........
	102	103	3.59738E+000	1.11675E-006	0.00000E+000	4.01737E-006	0.00000E+000	5.10317E-004	-3.27672E+002	7	...........
	103	104	3.59741E+000	1.11724E-006	0.00000E+000	4.01916E-006	0.00000E+000	5.12350E-004	-3.27672E+002	7	...........
	104	105	3.59743E+000	1.11648E-006	0.00000E+000	4.01645E-006	0.00000E+000	5.09850E-004	-3.27672E+002	7	...........
	105	106	3.59747E+000	1.11686E-006	0.00000E+000	4.01786E-006	0.00000E+000	5.15067E-004	-3.27672E+002	7	...........
	106	107	3.59750E+000	1.11680E-006	0.00000E+000	4.01770E-006	0.00000E+000	5.12683E-004	-3.27672E+002	7	...........
	107	108	3.59751E+000	1.11637E-006	0.00000E+000	4.01616E-006	0.00000E+000	5.15067E-004	-3.27672E+002	7	...........
	108	109	3.59753E+000	1.11675E-006	0.00000E+000	4.01756E-006	0.00000E+000	5.13017E-004	-3.27672E+002	7	...........
	109	110	3.59757E+000	1.11686E-006	0.00000E+000	4.01800E-006	0.00000E+000	5.11017E-004	-3.27672E+002	7	...........
	110	111	3.59760E+000	1.11715E-006	0.00000E+000	4.01906E-006	0.00000E+000	5.13483E-004	-3.27672E+002	7	...........
	111	112	3.59763E+000	1.11770E-006	0.00000E+000	4.02106E-006	0.00000E+000	5.15400E-004	-3.27672E+002	7	...........
	112	113	3.59765E+000	1.11718E-006	0.00000E+000	4.01921E-006	0.00000E+000	5.14483E-004	-3.27672E+002	7	...........
	113	114	3.59767E+000	1.11709E-006	0.00000E+000	4.01892E-006	0.00000E+000	5.15500E-004	-3.27672E+002	7	...........
	114	115	3.59769E+000	1.11695E-006	0.00000E+000	4.01845E-006	0.00000E+000	5.17100E-004	-3.27672E+002	7	...........
	115	116	3.59772E+000	1.11704E-006	0.00000E+000	4.01880E-006	0.00000E+000	5.15683E-004	-3.27672E+002	7	...........
	116	117	3.59774E+000	1.11623E-006	0.00000E+000	4.01589E-006	0.00000E+000	5.15683E-004	-3.27672E+002	7	...........
	117	118	3.59776E+000	1.11694E-006	0.00000E+000	4.01847E-006	0.00000E+000	5.15150E-004	-3.27672E+002	7	...........
	118	119	3.59779E+000	1.11720E-006	0.00000E+000	4.01943E-006	0.00000E+000	5.13367E-004	-3.27672E+002	7	...........
	119	120	3.59781E+000	1.11659E-006	0.00000E+000	4.01727E-006	0.00000E+000	5.13517E-004	-3.27672E+002	7	...........
	120	121	3.59783E+000	1.11654E-006	0.00000E+000	4.01714E-006	0.00000E+000	5.14117E-004	-3.27672E+002	7	...........
	121	122	3.59785E+000	1.11706E-006	0.00000E+000	4.01903E-006	0.00000E+000	5.17233E-004	-3.27672E+002	7	...........
	122	123	3.59787E+000	1.11606E-006	0.00000E+000	4.01545E-006	0.00000E+000	5.15450E-004	-3.27672E+002	7	...........
	123	124	3.59789E+000	1.11635E-006	0.00000E+000	4.01650E-006	0.00000E+000	5.14150E-004	-3.27672E+002	7	...........
	124	125	3.59792E+000	1.11592E-006	0.00000E+000	4.01500E-006	0.00000E+000	5.14200E-004	-3.27672E+002	7	...........
	125	126	3.59793E+000	1.11612E-006	0.00000E+000	4.01571E-006	0.00000E+000	5.13117E-004	-3.27672E+002	7	...........
	126	127	3.59794E+000	1.11594E-006	0.00000E+000	4.01508E-006	0.00000E+000	5.10683E-004	-3.27672E+002	7	...........
	127	128	3.59798E+000	1.11549E-006	0.00000E+000	4.01350E-006	0.00000E+000	5.12017E-004	-3.27672E+002	7	...........
	128	129	3.59800E+000	1.11580E-006	0.00000E+000	4.01464E-006	0.00000E+000	5.11300E-004	-3.27672E+002	7	...........
	129	130	3.59801E+000	1.11571E-006	0.00000E+000	4.01436E-006	0.00000E+000	5.12017E-004	-3.27672E+002	7	...........
	130	131	3.59804E+000	1.11635E-006	0.00000E+000	4.01668E-006	0.00000E+000	5.12683E-004	-3.27672E+002	7	...........
	131	132	3.59806E+000	1.11664E-006	0.00000E+000	4.01774E-006	0.00000E+000	5.11583E-004	-3.27672E+002	7	...........
	132	133	3.59808E+000	1.11690E-006	0.00000E+000	4.01868E-006	0.00000E+000	5.11700E-004	-3.27672E+002	7	...........
	133	134	3.59809E+000	1.11688E-006	0.00000E+000	4.01864E-006	0.00000E+000	5.09250E-004	-3.27672E+002	7	...........
	134	135	3.59811E+000	1.11687E-006	0.00000E+000	4.01860E-006	0.00000E+000	5.11300E-004	-3.27672E+002	7	...........
	135	136	3.59813E+000	1.11663E-006	0.00000E+000	4.01778E-006	0.00000E+000	5.08967E-004	-3.27672E+002	7	...........
	136	137	3.59814E+000	1.11607E-006	0.00000E+000	4.01576E-006	0.00000E+000	5.10917E-004	-3.27672E+002	7	...........
	137	138	3.59817E+000	1.11614E-006	0.00000E+000	4.01604E-006	0.00000E+000	5.09100E-004	-3.27672E+002	7	...........
	138	139	3.59818E+000	1.11628E-006	0.00000E+000	4.01658E-006	0.00000E+000	5.12233E-004	-3.27672E+002	7	...........
	139	140	3.59821E+000	1.11669E-006	0.00000E+000	4.01808E-006	0.00000E+000	5.09833E-004	-3.27672E+002	7	...........
	140	141	3.59822E+000	1.11687E-006	0.00000E+000	4.01874E-006	0.00000E+000	5.04733E-004	-3.27672E+002	7	...........
	141	142	3.59824E+000	1.11646E-006	0.00000E+000	4.01729E-006	0.00000E+000	5.08717E-004	-3.27672E+002	7	...........
	142	143	3.59827E+000	1.11719E-006	0.00000E+000	4.01994E-006	0.00000E+000	5.08400E-004	-3.27672E+002	7	...........
	143	144	3.59828E+000	1.11744E-006	0.00000E+000	4.02088E-006	0.00000E+000	5.08133E-004	-3.27672E+002	7	...........
	144	145	3.59830E+000	1.11685E-006	0.00000E+000	4.01874E-006	0.00000E+000	5.06917E-004	-3.27672E+002	7	...........
	145	146	3.59833E+000	1.11673E-006	0.00000E+000	4.01836E-006	0.00000E+000	5.05350E-004	-3.27672E+002	7	...........
	146	147	3.59834E+000	1.11662E-006	0.00000E+000	4.01798E-006	0.00000E+000	5.08517E-004	-3.27672E+002	7	...........
	147	148	3.59835E+000	1.11707E-006	0.00000E+000	4.01960E-006	0.00000E+000	5.03133E-004	-3.27672E+002	7	...........
	148	149	3.59837E+000	1.11730E-006	0.00000E+000	4.02046E-006	0.00000E+000	5.05250E-004	-3.27672E+002	7	...........
	149	150	3.59839E+000	1.11663E-006	0.00000E+000	4.01806E-006	0.00000E+000	5.03483E-004	-3.27672E+002	7	...........
	150	151	3.59840E+000	1.11634E-006	0.00000E+000	4.01705E-006	0.00000E+000	5.02167E-004	-3.27672E+002	7	...........
	151	152	3.59842E+000	1.11700E-006	0.00000E+000	4.01943E-006	0.00000E+000	5.02133E-004	-3.27672E+002	7	...........
	152	153	3.59844E+000	1.11728E-006	0.00000E+000	4.02046E-006	0.00000E+000	5.01367E-004	-3.27672E+002	7	...........
	153	154	3.59845E+000	1.11744E-006	0.00000E+000	4.02107E-006	0.00000E+000	5.00550E-004	-3.27672E+002	7	...........
	154	155	3.59847E+000	1.11809E-006	0.00000E+000	4.02340E-006	0.00000E+000	5.01783E-004	-3.27672E+002	7	...........
	155	156	3.59850E+000	1.11785E-006	0.00000E+000	4.02259E-006	0.00000E+000	4.99067E-004	-3.27672E+002	7	...........
	156	157	3.59852E+000	1.11708E-006	0.00000E+000	4.01983E-006	0.00000E+000	4.96950E-004	-3.27672E+002	7	...........
	157	158	3.59855E+000	1.11773E-006	0.00000E+000	4.02220E-006	0.00000E+000	5.00417E-004	-3.27672E+002	7	...........
	158	159	3.59854E+000	1.11755E-006	0.00000E+000	4.02154E-006	0.00000E+000	5.00717E-004	-3.27672E+002	7	...........
	159	160	3.59857E+000	1.11736E-006	0.00000E+000	4.02089E-006	0.00000E+000	4.99733E-004	-3.27672E+002	7	...........
	160	161	3.59858E+000	1.11722E-006	0.00000E+000	4.02041E-006	0.00000E+000	4.99900E-004	-3.27672E+002	7	...........
	161	162	3.59859E+000	1.11720E-006	0.00000E+000	4.02035E-006	0.00000E+000	4.99217E-004	-3.27672E+002	7	...........
	162	163	3.59861E+000	1.11726E-006	0.00000E+000	4.02057E-006	0.00000E+000	4.97233E-004	-3.27672E+002	7	...........
	163	164	3.59861E+000	1.11725E-006	0.00000E+000	4.02055E-006	0.00000E+000	4.98617E-004	-3.27672E+002	7	...........
	164	165	3.59863E+000	1.11734E-006	0.00000E+000	4.02088E-006	0.00000E+000	4.98700E-004	-3.27672E+002	7	...........
	165	166	3.59864E+000	1.11739E-006	0.00000E+000	4.02109E-006	0.00000E+000	4.95300E-004	-3.27672E+002	7	...........
	166	167	3.59866E+000	1.11699E-006	0.00000E+000	4.01966E-006	0.00000E+000	4.97917E-004	-3.27672E+002	7	...........
	167	168	3.59867E+000	1.11701E-006	0.00000E+000	4.01976E-006	0.00000E+000	4.97500E-004	-3.27672E+002	7	...........
	168	169	3.59868E+000	1.11669E-006	0.00000E+000	4.01861E-006	0.00000E+000	4.97800E-004	-3.27672E+002	7	...........
	169	170	3.59870E+000	1.11742E-006	0.00000E+000	4.02127E-006	0.00000E+000	5.00033E-004	-3.27672E+002	7	...........
	170	171	3.59871E+000	1.11627E-006	0.00000E+000	4.01714E-006	0.00000E+000	4.95900E-004	-3.27672E+002	7	...........
	171	172	3.59871E+000	1.11667E-006	0.00000E+000	4.01856E-006	0.00000E+000	4.95983E-004	-3.27672E+002	7	...........
	172	173	3.59873E+000	1.11675E-006	0.00000E+000	4.01889E-006	0.00000E+000	4.94400E-004	-3.27672E+002	7	...........
	173	174	3.59875E+000	1.11738E-006	0.00000E+000	4.02116E-006	0.00000E+000	4.95033E-004	-3.27672E+002	7	...........
	174	175	3.59876E+000	1.11772E-006	0.00000E+000	4.02241E-006	0.00000E+000	4.97467E-004	-3.27672E+002	7	...........
	175	176	3.59878E+000	1.11777E-006	0.00000E+000	4.02262E-006	0.00000E+000	4.96267E-004	-3.27672E+002	7	...........
	176	177	3.59878E+000	1.11814E-006	0.00000E+000	4.02393E-006	0.00000E+000	4.94700E-004	-3.27672E+002	7	...........
	177	178	3.59880E+000	1.11734E-006	0.00000E+000	4.02108E-006	0.00000E+000	4.98683E-004	-3.27672E+002	7	...........
	178	179	3.59880E+000	1.11787E-006	0.00000E+000	4.02299E-006	0.00000E+000	4.96267E-004	-3.27672E+002	7	...........
	179	180	3.59882E+000	1.11749E-006	0.00000E+000	4.02166E-006	0.00000E+000	4.93583E-004	-3.27672E+002	7	...........
	180	181	3.59883E+000	1.11769E-006	0.00000E+000	4.02237E-006	0.00000E+000	4.96983E-004	-3.27672E+002	7	...........
	181	182	3.59884E+000	1.11803E-006	0.00000E+000	4.02360E-006	0.00000E+000	4.97900E-004	-3.27672E+002	7	...........
	182	183	3.59885E+000	1.11793E-006	0.00000E+000	4.02326E-006	0.00000E+000	4.95867E-004	-3.27672E+002	7	...........
	183	184	3.59885E+000	1.11751E-006	0.00000E+000	4.02175E-006	0.00000E+000	4.96283E-004	-3.27672E+002	7	...........
	184	185	3.59887E+000	1.11780E-006	0.00000E+000	4.02281E-006	0.00000E+000	4.93833E-004	-3.27672E+002	7	...........
	185	186	3.59888E+000	1.11750E-006	0.00000E+000	4.02174E-006	0.00000E+000	4.97217E-004	-3.27672E+002	7	...........
	186	187	3.59888E+000	1.11825E-006	0.00000E+000	4.02447E-006	0.00000E+000	4.97783E-004	-3.27672E+002	7	...........
	187	188	3.59890E+000	1.11778E-006	0.00000E+000	4.02278E-006	0.00000E+000	4.96533E-004	-3.27672E+002	7	...........
	188	189	3.59891E+000	1.11789E-006	0.00000E+000	4.02318E-006	0.00000E+000	4.94083E-004	-3.27672E+002	7	...........
	189	190	3.59892E+000	1.11808E-006	0.00000E+000	4.02390E-006	0.00000E+000	4.97717E-004	-3.27672E+002	7	...........
	190	191	3.59893E+000	1.11763E-006	0.00000E+000	4.02228E-006	0.00000E+000	4.95383E-004	-3.27672E+002	7	...........
	191	192	3.59894E+000	1.11743E-006	0.00000E+000	4.02155E-006	0.00000E+000	4.98750E-004	-3.27672E+002	7	...........
	192	193	3.59896E+000	1.11685E-006	0.00000E+000	4.01949E-006	0.00000E+000	4.96333E-004	-3.27672E+002	7	...........
	193	194	3.59897E+000	1.11720E-006	0.00000E+000	4.02078E-006	0.00000E+000	4.98267E-004	-3.27672E+002	7	...........
	194	195	3.59898E+000	1.11703E-006	0.00000E+000	4.02017E-006	0.00000E+000	5.00350E-004	-3.27672E+002	7	...........
	195	196	3.59899E+000	1.11680E-006	0.00000E+000	4.01936E-006	0.00000E+000	4.97300E-004	-3.27672E+002	7	...........
	196	197	3.59900E+000	1.11741E-006	0.00000E+000	4.02155E-006	0.00000E+000	4.96783E-004	-3.27672E+002	7	...........
	197	198	3.59902E+000	1.11816E-006	0.00000E+000	4.02428E-006	0.00000E+000	4.96750E-004	-3.27672E+002	7	...........
	198	199	3.59903E+000	1.11747E-006	0.00000E+000	4.02181E-006	0.00000E+000	4.96017E-004	-3.27672E+002	7	...........
	199	200	3.59904E+000	1.11822E-006	0.00000E+000	4.02452E-006	0.00000E+000	4.98150E-004	-3.27672E+002	7	...........
	200	201	3.59906E+000	1.11760E-006	0.00000E+000	4.02229E-006	0.00000E+000	4.96800E-004	-3.27672E+002	7	...........
	201	202	3.59907E+000	1.11720E-006	0.00000E+000	4.02088E-006	0.00000E+000	4.93950E-004	-3.27672E+002	7	...........
	202	203	3.59909E+000	1.11715E-006	0.00000E+000	4.02071E-006	0.00000E+000	4.95300E-004	-3.27672E+002	7	...........
	203	204	3.59910E+000	1.11693E-006	0.00000E+000	4.01993E-006	0.00000E+000	4.97583E-004	-3.27672E+002	7	...........
	204	205	3.59910E+000	1.11674E-006	0.00000E+000	4.01928E-006	0.00000E+000	4.98017E-004	-3.27672E+002	7	...........
	205	206	3.59911E+000	1.11744E-006	0.00000E+000	4.02179E-006	0.00000E+000	4.95550E-004	-3.27672E+002	7	...........
	206	207	3.59913E+000	1.11711E-006	0.00000E+000	4.02061E-006	0.00000E+000	4.97333E-004	-3.27672E+002	7	...........
	207	208	3.59914E+000	1.11743E-006	0.00000E+000	4.02180E-006	0.00000E+000	4.93333E-004	-3.27672E+002	7	...........
	208	209	3.59916E+000	1.11712E-006	0.00000E+000	4.02070E-006	0.00000E+000	4.92750E-004	-3.27672E+002	7	...........
	209	210	3.59917E+000	1.11699E-006	0.00000E+000	4.02022E-006	0.00000E+000	4.97617E-004	-3.27672E+002	7	...........
	210	211	3.59918E+000	1.11717E-006	0.00000E+000	4.02091E-006	0.00000E+000	4.92717E-004	-3.27672E+002	7	...........
	211	212	3.59920E+000	1.11699E-006	0.00000E+000	4.02025E-006	0.00000E+000	4.95517E-004	-3.27672E+002	7	...........
	212	213	3.59921E+000	1.11707E-006	0.00000E+000	4.02058E-006	0.00000E+000	4.95817E-004	-3.27672E+002	7	...........
	213	214	3.59922E+000	1.11695E-006	0.00000E+000	4.02013E-006	0.00000E+000	4.95183E-004	-3.27672E+002	7	...........
	214	215	3.59923E+000	1.11685E-006	0.00000E+000	4.01982E-006	0.00000E+000	4.96200E-004	-3.27672E+002	7	...........
	215	216	3.59925E+000	1.11696E-006	0.00000E+000	4.02022E-006	0.00000E+000	4.95633E-004	-3.27672E+002	7	...........
	216	217	3.59925E+000	1.11809E-006	0.00000E+000	4.02430E-006	0.00000E+000	4.92633E-004	-3.27672E+002	7	...........
	217	218	3.59927E+000	1.11752E-006	0.00000E+000	4.02227E-006	0.00000E+000	4.93567E-004	-3.27672E+002	7	...........
	218	219	3.59927E+000	1.11842E-006	0.00000E+000	4.02549E-006	0.00000E+000	4.93183E-004	-3.27672E+002	7	...........
	219	220	3.59930E+000	1.11829E-006	0.00000E+000	4.02504E-006	0.00000E+000	4.92867E-004	-3.27672E+002	7	...........
	220	221	3.59930E+000	1.11780E-006	0.00000E+000	4.02331E-006	0.00000E+000	4.91533E-004	-3.27672E+002	7	...........
	221	222	3.59931E+000	1.11756E-006	0.00000E+000	4.02244E-006	0.00000E+000	4.92617E-004	-3.27672E+002	7	...........
	222	223	3.59934E+000	1.11780E-006	0.00000E+000	4.02335E-006	0.00000E+000	4.92800E-004	-3.27672E+002	7	...........
	223	224	3.59934E+000	1.11793E-006	0.00000E+000	4.02382E-006	0.00000E+000	4.91450E-004	-3.27672E+002	7	...........
	224	225	3.59936E+000	1.11720E-006	0.00000E+000	4.02119E-006	0.00000E+000	4.90783E-004	-3.27672E+002	7	...........
	225	226	3.59938E+000	1.11728E-006	0.00000E+000	4.02152E-006	0.00000E+000	4.89700E-004	-3.27672E+002	7	...........
	226	227	3.59939E+000	1.11803E-006	0.00000E+000	4.02423E-006	0.00000E+000	4.89850E-004	-3.27672E+002	7	...........
	227	228	3.59940E+000	1.11757E-006	0.00000E+000	4.02259E-006	0.00000E+000	4.93083E-004	-3.27672E+002	7	...........
	228	229	3.59941E+000	1.11772E-006	0.00000E+000	4.02315E-006	0.00000E+000	4.88067E-004	-3.27672E+002	7	...........
	229	230	3.59943E+000	1.11769E-006	0.00000E+000	4.02305E-006	0.00000E+000	4.90733E-004	-3.27672E+002	7	...........
	230	231	3.59944E+000	1.11701E-006	0.00000E+000	4.02062E-006	0.00000E+000	4.87717E-004	-3.27672E+002	7	...........
	231	232	3.59945E+000	1.11738E-006	0.00000E+000	4.02196E-006	0.00000E+000	4.89800E-004	-3.27672E+002	7	...........
	232	233	3.59946E+000	1.11816E-006	0.00000E+000	4.02477E-006	0.00000E+000	4.90783E-004	-3.27672E+002	7	...........
	233	234	3.59947E+000	1.11764E-006	0.00000E+000	4.02292E-006	0.00000E+000	4.87167E-004	-3.27672E+002	7	...........
	234	235	3.59949E+000	1.11750E-006	0.00000E+000	4.02244E-006	0.00000E+000	4.89900E-004	-3.27672E+002	7	...........
	235	236	3.59949E+000	1.11749E-006	0.00000E+000	4.02241E-006	0.00000E+000	4.88333E-004	-3.27672E+002	7	...........
	236	237	3.59950E+000	1.11692E-006	0.00000E+000	4.02036E-006	0.00000E+000	4.90300E-004	-3.27672E+002	7	...........
	237	238	3.59951E+000	1.11743E-006	0.00000E+000	4.02222E-006	0.00000E+000	4.92000E-004	-3.27672E+002	7	...........
	238	239	3.59953E+000	1.11769E-006	0.00000E+000	4.02315E-006	0.00000E+000	4.90483E-004	-3.27672E+002	7	...........
	239	240	3.59954E+000	1.11777E-006	0.00000E+000	4.02346E-006	0.00000E+000	4.86717E-004	-3.27672E+002	7	...........
	240	241	3.59956E+000	1.11825E-006	0.00000E+000	4.02522E-006	0.00000E+000	4.87633E-004	-3.27672E+002	7	...........
	241	242	3.59956E+000	1.11754E-006	0.00000E+000	4.02265E-006	0.00000E+000	4.87883E-004	-3.27672E+002	7	...........
	242	243	3.59957E+000	1.11754E-006	0.00000E+000	4.02266E-006	0.00000E+000	4.89350E-004	-3.27672E+002	7	...........
	243	244	3.59958E+000	1.11793E-006	0.00000E+000	4.02409E-006	0.00000E+000	4.89350E-004	-3.27672E+002	7	...........
	244	245	3.59959E+000	1.11790E-006	0.00000E+000	4.02399E-006	0.00000E+000	4.90300E-004	-3.27672E+002	7	...........
	245	246	3.59961E+000	1.11847E-006	0.00000E+000	4.02605E-006	0.00000E+000	4.89683E-004	-3.27672E+002	7	...........
	246	247	3.59962E+000	1.11816E-006	0.00000E+000	4.02495E-006	0.00000E+000	4.89150E-004	-3.27672E+002	7	...........
	247	248	3.59963E+000	1.11855E-006	0.00000E+000	4.02639E-006	0.00000E+000	4.86917E-004	-3.27672E+002	7	...........
	248	249	3.59964E+000	1.11770E-006	0.00000E+000	4.02331E-006	0.00000E+000	4.90850E-004	-3.27672E+002	7	...........
	249	250	3.59966E+000	1.11803E-006	0.00000E+000	4.02452E-006	0.00000E+000	4.89550E-004	-3.27672E+002	7	...........
	250	251	3.59967E+000	1.11823E-006	0.00000E+000	4.02525E-006	0.00000E+000	4.87967E-004	-3.27672E+002	7	...........
	251	252	3.59968E+000	1.11848E-006	0.00000E+000	4.02619E-006	0.00000E+000	4.90717E-004	-3.27672E+002	7	...........
	252	253	3.59969E+000	1.11798E-006	0.00000E+000	4.02438E-006	0.00000E+000	4.87950E-004	-3.27672E+002	7	...........
	253	254	3.59970E+000	1.11711E-006	0.00000E+000	4.02127E-006	0.00000E+000	4.89467E-004	-3.27672E+002	7	...........
	254	255	3.59972E+000	1.11774E-006	0.00000E+000	4.02354E-006	0.00000E+000	4.89017E-004	-3.27672E+002	7	...........
	255	256	3.59972E+000	1.11815E-006	0.00000E+000	4.02504E-006	0.00000E+000	4.89367E-004	-3.27672E+002	7	...........
	256	257	3.59974E+000	1.11797E-006	0.00000E+000	4.02440E-006	0.00000E+000	4.88133E-004	-3.27672E+002	7	...........
	257	258	3.59975E+000	1.11764E-006	0.00000E+000	4.02321E-006	0.00000E+000	4.85333E-004	-3.27672E+002	7	...........
	258	259	3.59977E+000	1.11800E-006	0.00000E+000	4.02452E-006	0.00000E+000	4.88300E-004	-3.27672E+002	7	...........
	259	260	3.59977E+000	1.11808E-006	0.00000E+000	4.02483E-006	0.00000E+000	4.87950E-004	-3.27672E+002	7	...........
	260	261	3.59978E+000	1.11842E-006	0.00000E+000	4.02608E-006	0.00000E+000	4.91867E-004	-3.27672E+002	7	...........
	261	262	3.59980E+000	1.11845E-006	0.00000E+000	4.02619E-006	0.00000E+000	4.91400E-004	-3.27672E+002	7	...........
	262	263	3.59981E+000	1.11826E-006	0.00000E+000	4.02553E-006	0.00000E+000	4.91067E-004	-3.27672E+002	7	...........
	263	264	3.59982E+000	1.11793E-006	0.00000E+000	4.02433E-006	0.00000E+000	4.89167E-004	-3.27672E+002	7	...........
	264	265	3.59983E+000	1.11793E-006	0.00000E+000	4.02438E-006	0.00000E+000	4.89000E-004	-3.27672E+002	7	...........
	265	266	3.59985E+000	1.11793E-006	0.00000E+000	4.02437E-006	0.00000E+000	4.90750E-004	-3.27672E+002	7	...........
	266	267	3.59985E+000	1.11757E-006	0.00000E+000	4.02308E-006	0.00000E+000	4.87183E-004	-3.27672E+002	7	...........
	267	268	3.59987E+000	1.11708E-006	0.00000E+000	4.02133E-006	0.00000E+000	4.88133E-004	-3.27672E+002	7	...........
	268	269	3.59988E+000	1.11863E-006	0.00000E+000	4.02694E-006	0.00000E+000	4.87683E-004	-3.27672E+002	7	...........
	269	270	3.59989E+000	1.11886E-006	0.00000E+000	4.02778E-006	0.00000E+000	4.89933E-004	-3.27672E+002	7	...........
	270	271	3.59989E+000	1.11916E-006	0.00000E+000	4.02887E-006	0.00000E+000	4.89217E-004	-3.27672E+002	7	...........
	271	272	3.59990E+000	1.11832E-006	0.00000E+000	4.02584E-006	0.00000E+000	4.88617E-004	-3.27672E+002	7	...........
	272	273	3.59992E+000	1.11861E-006	0.00000E+000	4.02691E-006	0.00000E+000	4.87567E-004	-3.27672E+002	7	...........
	273	274	3.59993E+000	1.11838E-006	0.00000E+000	4.02610E-006	0.00000E+000	4.87683E-004	-3.27672E+002	7	...........
	274	275	3.59994E+000	1.11841E-006	0.00000E+000	4.02622E-006	0.00000E+000	4.91383E-004	-3.27672E+002	7	...........
	275	276	3.59995E+000	1.11772E-006	0.00000E+000	4.02374E-006	0.00000E+000	4.89100E-004	-3.27672E+002	7	...........
	276	277	3.59996E+000	1.11800E-006	0.00000E+000	4.02475E-006	0.00000E+000	4.90600E-004	-3.27672E+002	7	...........
	277	278	3.59997E+000	1.11856E-006	0.00000E+000	4.02677E-006	0.00000E+000	4.91583E-004	-3.27672E+002	7	...........
	278	279	3.59999E+000	1.11796E-006	0.00000E+000	4.02465E-006	0.00000E+000	4.89000E-004	-3.27672E+002	7	...........
	279	280	3.60000E+000	1.11805E-006	0.00000E+000	4.02499E-006	0.00000E+000	4.91317E-004	-3.27672E+002	7	...........
	280	281	3.60000E+000	1.11853E-006	0.00000E+000	4.02672E-006	0.00000E+000	4.88917E-004	-3.27672E+002	7	...........
	281	282	3.60002E+000	1.11802E-006	0.00000E+000	4.02489E-006	0.00000E+000	4.89533E-004	-3.27672E+002	7	...........
	282	283	3.60003E+000	1.11825E-006	0.00000E+000	4.02573E-006	0.00000E+000	4.90533E-004	-3.27672E+002	7	...........
	283	284	3.60004E+000	1.11856E-006	0.00000E+000	4.02686E-006	0.00000E+000	4.94867E-004	-3.27672E+002	7	...........
	284	285	3.60005E+000	1.11862E-006	0.00000E+000	4.02707E-006	0.00000E+000	4.92083E-004	-3.27672E+002	7	...........
	285	286	3.60006E+000	1.11863E-006	0.00000E+000	4.02712E-006	0.00000E+000	4.92883E-004	-3.27672E+002	7	...........
	286	287	3.60007E+000	1.11763E-006	0.00000E+000	4.02354E-006	0.00000E+000	4.94850E-004	-3.27672E+002	7	...........
	287	288	3.60008E+000	1.11838E-006	0.00000E+000	4.02624E-006	0.00000E+000	4.91483E-004	-3.27672E+002	7	...........
	288	289	3.60009E+000	1.11822E-006	0.00000E+000	4.02569E-006	0.00000E+000	4.92883E-004	-3.27672E+002	7	...........
	289	290	3.60009E+000	1.11885E-006	0.00000E+000	4.02796E-006	0.00000E+000	4.98617E-004	-3.27672E+002	7	...........
	290	291	3.60011E+000	1.11858E-006	0.00000E+000	4.02700E-006	0.00000E+000	4.94783E-004	-3.27672E+002	7	...........
	291	292	3.60011E+000	1.11866E-006	0.00000E+000	4.02730E-006	0.00000E+000	4.95317E-004	-3.27672E+002	7	...........
	292	293	3.60012E+000	1.11840E-006	0.00000E+000	4.02639E-006	0.00000E+000	4.96117E-004	-3.27672E+002	7	...........
	293	294	3.60013E+000	1.11862E-006	0.00000E+000	4.02718E-006	0.00000E+000	4.95067E-004	-3.27672E+002	7	...........
	294	295	3.60013E+000	1.11885E-006	0.00000E+000	4.02799E-006	0.00000E+000	4.97500E-004	-3.27672E+002	7	...........
	295	296	3.60015E+000	1.11881E-006	0.00000E+000	4.02788E-006	0.00000E+000	4.98533E-004	-3.27672E+002	7	...........
	296	297	3.60016E+000	1.11872E-006	0.00000E+000	4.02756E-006	0.00000E+000	4.98817E-004	-3.27672E+002	7	...........
	297	298	3.60017E+000	1.11817E-006	0.00000E+000	4.02560E-006	0.00000E+000	4.98017E-004	-3.27672E+002	7	...........
	298	299	3.60018E+000	1.11892E-006	0.00000E+000	4.02831E-006	0.00000E+000	5.01033E-004	-3.27672E+002	7	...........
	299	300	3.60019E+000	1.11857E-006	0.00000E+000	4.02708E-006	0.00000E+000	4.99183E-004	-3.27672E+002	7	...........
	300	301	3.60019E+000	1.11869E-006	0.00000E+000	4.02751E-006	0.00000E+000	4.96433E-004	-3.27672E+002	7	...........
	301	302	3.60020E+000	1.11850E-006	0.00000E+000	4.02682E-006	0.00000E+000	4.99750E-004	-3.27672E+002	7	...........
	302	303	3.60021E+000	1.11831E-006	0.00000E+000	4.02616E-006	0.00000E+000	5.01450E-004	-3.27672E+002	7	...........
	303	304	3.60021E+000	1.11907E-006	0.00000E+000	4.02887E-006	0.00000E+000	4.99683E-004	-3.27672E+002	7	...........
	304	305	3.60023E+000	1.11900E-006	0.00000E+000	4.02867E-006	0.00000E+000	5.00650E-004	-3.27672E+002	7	...........
	305	306	3.60024E+000	1.11921E-006	0.00000E+000	4.02943E-006	0.00000E+000	5.01900E-004	-3.27672E+002	7	...........
	306	307	3.60024E+000	1.11871E-006	0.00000E+000	4.02763E-006	0.00000E+000	5.03333E-004	-3.27672E+002	7	...........
	307	308	3.60025E+000	1.11834E-006	0.00000E+000	4.02632E-006	0.00000E+000	5.00817E-004	-3.27672E+002	7	...........
	308	309	3.60026E+000	1.11868E-006	0.00000E+000	4.02754E-006	0.00000E+000	4.99550E-004	-3.27672E+002	7	...........
	309	310	3.60027E+000	1.11818E-006	0.00000E+000	4.02574E-006	0.00000E+000	5.03550E-004	-3.27672E+002	7	...........
	310	311	3.60028E+000	1.11761E-006	0.00000E+000	4.02369E-006	0.00000E+000	5.02300E-004	-3.27672E+002	7	...........
	311	312	3.60028E+000	1.11725E-006	0.00000E+000	4.02241E-006	0.00000E+000	5.04083E-004	-3.27672E+002	7	...........
	312	313	3.60030E+000	1.11843E-006	0.00000E+000	4.02670E-006	0.00000E+000	5.02650E-004	-3.27672E+002	7	...........
	313	314	3.60031E+000	1.11828E-006	0.00000E+000	4.02614E-006	0.00000E+000	5.01833E-004	-3.27672E+002	7	...........
	314	315	3.60031E+000	1.11873E-006	0.00000E+000	4.02779E-006	0.00000E+000	5.07200E-004	-3.27672E+002	7	...........
	315	316	3.60032E+000	1.11883E-006	0.00000E+000	4.02813E-006	0.00000E+000	5.02233E-004	-3.27672E+002	7	...........
	316	317	3.60032E+000	1.11847E-006	0.00000E+000	4.02685E-006	0.00000E+000	5.03833E-004	-3.27672E+002	7	...........
	317	318	3.60033E+000	1.11858E-006	0.00000E+000	4.02725E-006	0.00000E+000	5.02883E-004	-3.27672E+002	7	...........
	318	319	3.60034E+000	1.11833E-006	0.00000E+000	4.02635E-006	0.00000E+000	5.03900E-004	-3.27672E+002	7	...........
	319	320	3.60034E+000	1.11814E-006	0.00000E+000	4.02570E-006	0.00000E+000	5.07283E-004	-3.27672E+002	7	...........
	320	321	3.60036E+000	1.11813E-006	0.00000E+000	4.02566E-006	0.00000E+000	5.05967E-004	-3.27672E+002	7	...........
	321	322	3.60037E+000	1.11784E-006	0.00000E+000	4.02464E-006	0.00000E+000	5.08533E-004	-3.27672E+002	7	...........
	322	323	3.60037E+000	1.11784E-006	0.00000E+000	4.02465E-006	0.00000E+000	5.03883E-004	-3.27672E+002	7	...........
	323	324	3.60037E+000	1.11872E-006	0.00000E+000	4.02783E-006	0.00000E+000	5.03667E-004	-3.27672E+002	7	...........
	324	325	3.60038E+000	1.11873E-006	0.00000E+000	4.02786E-006	0.00000E+000	5.05550E-004	-3.27672E+002	7	...........
	325	326	3.60039E+000	1.11892E-006	0.00000E+000	4.02854E-006	0.00000E+000	5.09633E-004	-3.27672E+002	7	...........
	326	327	3.60040E+000	1.11905E-006	0.00000E+000	4.02902E-006	0.00000E+000	5.11333E-004	-3.27672E+002	7	...........
	327	328	3.60040E+000	1.11998E-006	0.00000E+000	4.03236E-006	0.00000E+000	5.05800E-004	-3.27672E+002	7	...........
	328	329	3.60042E+000	1.11956E-006	0.00000E+000	4.03089E-006	0.00000E+000	5.08717E-004	-3.27672E+002	7	...........
	329	330	3.60042E+000	1.11922E-006	0.00000E+000	4.02967E-006	0.00000E+000	5.05767E-004	-3.27672E+002	7	...........
	330	331	3.60043E+000	1.11978E-006	0.00000E+000	4.03171E-006	0.00000E+000	5.08350E-004	-3.27672E+002	7	...........
	331	332	3.60044E+000	1.11915E-006	0.00000E+000	4.02944E-006	0.00000E+000	5.10350E-004	-3.27672E+002	7	...........
	332	333	3.60045E+000	1.11914E-006	0.00000E+000	4.02938E-006	0.00000E+000	5.12133E-004	-3.27672E+002	7	...........
	333	334	3.60045E+000	1.11909E-006	0.00000E+000	4.02922E-006	0.00000E+000	5.11950E-004	-3.27672E+002	7	...........
	334	335	3.60046E+000	1.11877E-006	0.00000E+000	4.02810E-006	0.00000E+000	5.11400E-004	-3.27672E+002	7	...........
	335	336	3.60047E+000	1.11849E-006	0.00000E+000	4.02708E-006	0.00000E+000	5.09783E-004	-3.27672E+002	7	...........
	336	337	3.60048E+000	1.11837E-006	0.00000E+000	4.02667E-006	0.00000E+000	5.12033E-004	-3.27672E+002	7	...........
	337	338	3.60048E+000	1.11808E-006	0.00000E+000	4.02561E-006	0.00000E+000	5.09367E-004	-3.27672E+002	7	...........
	338	339	3.60048E+000	1.11792E-006	0.00000E+000	4.02506E-006	0.00000E+000	5.09067E-004	-3.27672E+002	7	...........
	339	340	3.60049E+000	1.11812E-006	0.00000E+000	4.02578E-006	0.00000E+000	5.13183E-004	-3.27672E+002	7	...........
	340	341	3.60050E+000	1.11853E-006	0.00000E+000	4.02727E-006	0.00000E+000	5.11583E-004	-3.27672E+002	7	...........
	341	342	3.60051E+000	1.11759E-006	0.00000E+000	4.02390E-006	0.00000E+000	5.10133E-004	-3.27672E+002	7	...........
	342	343	3.60052E+000	1.11797E-006	0.00000E+000	4.02528E-006	0.00000E+000	5.08050E-004	-3.27672E+002	7	...........
	343	344	3.60053E+000	1.11824E-006	0.00000E+000	4.02626E-006	0.00000E+000	5.10750E-004	-3.27672E+002	7	...........
	344	345	3.60053E+000	1.11782E-006	0.00000E+000	4.02476E-006	0.00000E+000	5.12267E-004	-3.27672E+002	7	...........
	345	346	3.60055E+000	1.11872E-006	0.00000E+000	4.02800E-006	0.00000E+000	5.11917E-004	-3.27672E+002	7	...........
	346	347	3.60055E+000	1.11789E-006	0.00000E+000	4.02501E-006	0.00000E+000	5.13483E-004	-3.27672E+002	7	...........
	347	348	3.60056E+000	1.11845E-006	0.00000E+000	4.02705E-006	0.00000E+000	5.11967E-004	-3.27672E+002	7	...........
	348	349	3.60057E+000	1.11867E-006	0.00000E+000	4.02786E-006	0.00000E+000	5.11733E-004	-3.27672E+002	7	...........
	349	350	3.60058E+000	1.11828E-006	0.00000E+000	4.02646E-006	0.00000E+000	5.11800E-004	-3.27672E+002	7	...........
	350	351	3.60058E+000	1.11801E-006	0.00000E+000	4.02548E-006	0.00000E+000	5.15000E-004	-3.27672E+002	7	...........
	351	352	3.60059E+000	1.11892E-006	0.00000E+000	4.02875E-006	0.00000E+000	5.08317E-004	-3.27672E+002	7	...........
	352	353	3.60060E+000	1.11794E-006	0.00000E+000	4.02526E-006	0.00000E+000	5.10183E-004	-3.27672E+002	7	...........
	353	354	3.60060E+000	1.11831E-006	0.00000E+000	4.02659E-006	0.00000E+000	5.11000E-004	-3.27672E+002	7	...........
	354	355	3.60061E+000	1.11862E-006	0.00000E+000	4.02772E-006	0.00000E+000	5.08950E-004	-3.27672E+002	7	...........
	355	356	3.60062E+000	1.11828E-006	0.00000E+000	4.02651E-006	0.00000E+000	5.11633E-004	-3.27672E+002	7	...........
	356	357	3.60062E+000	1.11843E-006	0.00000E+000	4.02705E-006	0.00000E+000	5.11033E-004	-3.27672E+002	7	...........
	357	358	3.60063E+000	1.11858E-006	0.00000E+000	4.02760E-006	0.00000E+000	5.12300E-004	-3.27672E+002	7	...........
	358	359	3.60064E+000	1.11891E-006	0.00000E+000	4.02880E-006	0.00000E+000	5.12883E-004	-3.27672E+002	7	...........
	359	360	3.60065E+000	1.11859E-006	0.00000E+000	4.02764E-006	0.00000E+000	5.12233E-004	-3.27672E+002	7	...........
	360	361	3.60066E+000	1.11873E-006	0.00000E+000	4.02815E-006	0.00000E+000	5.11017E-004	-3.27672E+002	7	...........
	361	362	3.60066E+000	1.11804E-006	0.00000E+000	4.02568E-006	0.00000E+000	5.11350E-004	-3.27672E+002	7	...........
	362	363	3.60067E+000	1.11780E-006	0.00000E+000	4.02484E-006	0.00000E+000	5.10383E-004	-3.27672E+002	7	...........
	363	364	3.60067E+000	1.11779E-006	0.00000E+000	4.02479E-006	0.00000E+000	5.12067E-004	-3.27672E+002	7	...........
	364	365	3.60069E+000	1.11759E-006	0.00000E+000	4.02410E-006	0.00000E+000	5.10300E-004	-3.27672E+002	7	...........
	365	366	3.60069E+000	1.11752E-006	0.00000E+000	4.02386E-006	0.00000E+000	5.09583E-004	-3.27672E+002	7	...........
	366	367	3.60070E+000	1.11780E-006	0.00000E+000	4.02487E-006	0.00000E+000	5.08417E-004	-3.27672E+002	7	...........
	367	368	3.60070E+000	1.11787E-006	0.00000E+000	4.02512E-006	0.00000E+000	5.09267E-004	-3.27672E+002	7	...........
	368	369	3.60072E+000	1.11874E-006	0.00000E+000	4.02826E-006	0.00000E+000	5.09217E-004	-3.27672E+002	7	...........
	369	370	3.60072E+000	1.11871E-006	0.00000E+000	4.02815E-006	0.00000E+000	5.10733E-004	-3.27672E+002	7	...........
	370	371	3.60073E+000	1.11945E-006	0.00000E+000	4.03084E-006	0.00000E+000	5.07800E-004	-3.27672E+002	7	...........
	371	372	3.60074E+000	1.11826E-006	0.00000E+000	4.02656E-006	0.00000E+000	5.09733E-004	-3.27672E+002	7	...........
	372	373	3.60075E+000	1.11850E-006	0.00000E+000	4.02744E-006	0.00000E+000	5.09983E-004	-3.27672E+002	7	...........
	373	374	3.60076E+000	1.11834E-006	0.00000E+000	4.02686E-006	0.00000E+000	5.11183E-004	-3.27672E+002	7	...........
	374	375	3.60076E+000	1.11818E-006	0.00000E+000	4.02629E-006	0.00000E+000	5.10317E-004	-3.27672E+002	7	...........
	375	376	3.60077E+000	1.11831E-006	0.00000E+000	4.02679E-006	0.00000E+000	5.09167E-004	-3.27672E+002	7	...........
	376	377	3.60078E+000	1.11738E-006	0.00000E+000	4.02345E-006	0.00000E+000	5.06783E-004	-3.27672E+002	7	...........
	377	378	3.60079E+000	1.11867E-006	0.00000E+000	4.02808E-006	0.00000E+000	5.04483E-004	-3.27672E+002	7	...........
	378	379	3.60080E+000	1.11831E-006	0.00000E+000	4.02682E-006	0.00000E+000	5.06933E-004	-3.27672E+002	7	...........
	379	380	3.60081E+000	1.11803E-006	0.00000E+000	4.02581E-006	0.00000E+000	5.06683E-004	-3.27672E+002	7	...........
	380	381	3.60082E+000	1.11827E-006	0.00000E+000	4.02668E-006	0.00000E+000	5.06183E-004	-3.27672E+002	7	...........
	381	382	3.60082E+000	1.11828E-006	0.00000E+000	4.02673E-006	0.00000E+000	5.08000E-004	-3.27672E+002	7	...........
	382	383	3.60082E+000	1.11764E-006	0.00000E+000	4.02442E-006	0.00000E+000	5.08250E-004	-3.27672E+002	7	...........
	383	384	3.60084E+000	1.11836E-006	0.00000E+000	4.02705E-006	0.00000E+000	5.05033E-004	-3.27672E+002	7	...........
	384	385	3.60085E+000	1.11883E-006	0.00000E+000	4.02874E-006	0.00000E+000	5.06300E-004	-3.27672E+002	7	...........
	385	386	3.60086E+000	1.11839E-006	0.00000E+000	4.02716E-006	0.00000E+000	5.06333E-004	-3.27672E+002	7	...........
	386	387	3.60087E+000	1.11792E-006	0.00000E+000	4.02548E-006	0.00000E+000	5.11050E-004	-3.27672E+002	7	...........
	387	388	3.60088E+000	1.11806E-006	0.00000E+000	4.02601E-006	0.00000E+000	5.05850E-004	-3.27672E+002	7	...........
	388	389	3.60089E+000	1.11850E-006	0.00000E+000	4.02759E-006	0.00000E+000	5.04833E-004	-3.27672E+002	7	...........
	389	390	3.60089E+000	1.11855E-006	0.00000E+000	4.02778E-006	0.00000E+000	5.04033E-004	-3.27672E+002	7	...........
	390	391	3.60090E+000	1.11938E-006	0.00000E+000	4.03077E-006	0.00000E+000	5.03083E-004	-3.27672E+002	7	...........
	391	392	3.60090E+000	1.11934E-006	0.00000E+000	4.03065E-006	0.00000E+000	5.03750E-004	-3.27672E+002	7	...........
	392	393	3.60091E+000	1.11898E-006	0.00000E+000	4.02936E-006	0.00000E+000	5.06717E-004	-3.27672E+002	7	...........
	393	394	3.60092E+000	1.11843E-006	0.00000E+000	4.02738E-006	0.00000E+000	5.07667E-004	-3.27672E+002	7	...........
	394	395	3.60092E+000	1.11868E-006	0.00000E+000	4.02830E-006	0.00000E+000	5.06383E-004	-3.27672E+002	7	...........
	395	396	3.60094E+000	1.11843E-006	0.00000E+000	4.02741E-006	0.00000E+000	5.04583E-004	-3.27672E+002	7	...........
	396	397	3.60095E+000	1.11871E-006	0.00000E+000	4.02840E-006	0.00000E+000	5.03717E-004	-3.27672E+002	7	...........
	397	398	3.60096E+000	1.11878E-006	0.00000E+000	4.02869E-006	0.00000E+000	5.03583E-004	-3.27672E+002	7	...........
	398	399	3.60095E+000	1.11880E-006	0.00000E+000	4.02876E-006	0.00000E+000	5.03433E-004	-3.27672E+002	7	...........
	399	400	3.60098E+000	1.11849E-006	0.00000E+000	4.02765E-006	0.00000E+000	5.04383E-004	-3.27672E+002	7	...........
	400	401	3.60098E+000	1.11845E-006	0.00000E+000	4.02752E-006	0.00000E+000	5.02067E-004	-3.27672E+002	7	...........
	401	402	3.60098E+000	1.11845E-006	0.00000E+000	4.02750E-006	0.00000E+000	5.01950E-004	-3.27672E+002	7	...........
	402	403	3.60099E+000	1.11852E-006	0.00000E+000	4.02780E-006	0.00000E+000	5.03767E-004	-3.27672E+002	7	...........
	403	404	3.60100E+000	1.11872E-006	0.00000E+000	4.02852E-006	0.00000E+000	5.01983E-004	-3.27672E+002	7	...........
	404	405	3.60099E+000	1.11789E-006	0.00000E+000	4.02549E-006	0.00000E+000	5.03033E-004	-3.27672E+002	7	...........
	405	406	3.60101E+000	1.11876E-006	0.00000E+000	4.02867E-006	0.00000E+000	5.02400E-004	-3.27672E+002	7	...........
	406	407	3.60101E+000	1.11773E-006	0.00000E+000	4.02497E-006	0.00000E+000	5.03817E-004	-3.27672E+002	7	...........
	407	408	3.60102E+000	1.11819E-006	0.00000E+000	4.02662E-006	0.00000E+000	4.98717E-004	-3.27672E+002	7	...........
	408	409	3.60102E+000	1.11787E-006	0.00000E+000	4.02549E-006	0.00000E+000	5.04817E-004	-3.27672E+002	7	...........
	409	410	3.60103E+000	1.11806E-006	0.00000E+000	4.02618E-006	0.00000E+000	5.01650E-004	-3.27672E+002	7	...........
	410	411	3.60105E+000	1.11880E-006	0.00000E+000	4.02885E-006	0.00000E+000	4.97733E-004	-3.27672E+002	7	...........
	411	412	3.60105E+000	1.11934E-006	0.00000E+000	4.03078E-006	0.00000E+000	4.98700E-004	-3.27672E+002	7	...........
	412	413	3.60106E+000	1.11937E-006	0.00000E+000	4.03092E-006	0.00000E+000	4.98917E-004	-3.27672E+002	7	...........
	413	414	3.60107E+000	1.11954E-006	0.00000E+000	4.03156E-006	0.00000E+000	5.01967E-004	-3.27672E+002	7	...........
	414	415	3.60107E+000	1.11893E-006	0.00000E+000	4.02934E-006	0.00000E+000	5.02150E-004	-3.27672E+002	7	...........
	415	416	3.60108E+000	1.11904E-006	0.00000E+000	4.02974E-006	0.00000E+000	4.99800E-004	-3.27672E+002	7	...........
	416	417	3.60108E+000	1.11833E-006	0.00000E+000	4.02719E-006	0.00000E+000	4.96900E-004	-3.27672E+002	7	...........
	417	418	3.60110E+000	1.11828E-006	0.00000E+000	4.02702E-006	0.00000E+000	4.97150E-004	-3.27672E+002	7	...........
	418	419	3.60111E+000	1.11876E-006	0.00000E+000	4.02878E-006	0.00000E+000	4.96000E-004	-3.27672E+002	7	...........
	419	420	3.60112E+000	1.11912E-006	0.00000E+000	4.03007E-006	0.00000E+000	5.00450E-004	-3.27672E+002	7	...........
	420	421	3.60112E+000	1.11839E-006	0.00000E+000	4.02747E-006	0.00000E+000	4.94483E-004	-3.27672E+002	7	...........
	421	422	3.60113E+000	1.11865E-006	0.00000E+000	4.02841E-006	0.00000E+000	4.97500E-004	-3.27672E+002	7	...........
	422	423	3.60114E+000	1.11935E-006	0.00000E+000	4.03093E-006	0.00000E+000	4.96483E-004	-3.27672E+002	7	...........
	423	424	3.60115E+000	1.11899E-006	0.00000E+000	4.02965E-006	0.00000E+000	4.97217E-004	-3.27672E+002	7	...........
	424	425	3.60116E+000	1.11945E-006	0.00000E+000	4.03132E-006	0.00000E+000	4.99300E-004	-3.27672E+002	7	...........
	425	426	3.60116E+000	1.11834E-006	0.00000E+000	4.02733E-006	0.00000E+000	4.99300E-004	-3.27672E+002	7	...........
	426	427	3.60116E+000	1.11871E-006	0.00000E+000	4.02864E-006	0.00000E+000	4.97650E-004	-3.27672E+002	7	...........
	427	428	3.60117E+000	1.11885E-006	0.00000E+000	4.02918E-006	0.00000E+000	4.94767E-004	-3.27672E+002	7	...........
	428	429	3.60117E+000	1.11818E-006	0.00000E+000	4.02674E-006	0.00000E+000	4.97283E-004	-3.27672E+002	7	...........
	429	430	3.60118E+000	1.11847E-006	0.00000E+000	4.02781E-006	0.00000E+000	4.93783E-004	-3.27672E+002	7	...........
	430	431	3.60119E+000	1.11901E-006	0.00000E+000	4.02977E-006	0.00000E+000	4.96017E-004	-3.27672E+002	7	...........
	431	432	3.60120E+000	1.11861E-006	0.00000E+000	4.02832E-006	0.00000E+000	4.96300E-004	-3.27672E+002	7	...........
	432	433	3.60120E+000	1.11879E-006	0.00000E+000	4.02897E-006	0.00000E+000	4.96850E-004	-3.27672E+002	7	...........
	433	434	3.60121E+000	1.11942E-006	0.00000E+000	4.03128E-006	0.00000E+000	4.95383E-004	-3.27672E+002	7	...........
	434	435	3.60122E+000	1.11868E-006	0.00000E+000	4.02862E-006	0.00000E+000	4.97233E-004	-3.27672E+002	7	...........
	435	436	3.60123E+000	1.11844E-006	0.00000E+000	4.02776E-006	0.00000E+000	4.94950E-004	-3.27672E+002	7	...........
	436	437	3.60123E+000	1.11824E-006	0.00000E+000	4.02705E-006	0.00000E+000	4.92767E-004	-3.27672E+002	7	...........
	437	438	3.60123E+000	1.11890E-006	0.00000E+000	4.02940E-006	0.00000E+000	4.98667E-004	-3.27672E+002	7	...........
	438	439	3.60123E+000	1.11856E-006	0.00000E+000	4.02820E-006	0.00000E+000	4.94633E-004	-3.27672E+002	7	...........
	439	440	3.60125E+000	1.11847E-006	0.00000E+000	4.02788E-006	0.00000E+000	4.96483E-004	-3.27672E+002	7	...........
	440	441	3.60126E+000	1.11878E-006	0.00000E+000	4.02900E-006	0.00000E+000	4.94950E-004	-3.27672E+002	7	...........
	441	442	3.60126E+000	1.11818E-006	0.00000E+000	4.02687E-006	0.00000E+000	4.97150E-004	-3.27672E+002	7	...........
	442	443	3.60126E+000	1.11901E-006	0.00000E+000	4.02985E-006	0.00000E+000	4.94700E-004	-3.27672E+002	7	...........
	443	444	3.60127E+000	1.11925E-006	0.00000E+000	4.03072E-006	0.00000E+000	4.94383E-004	-3.27672E+002	7	...........
	444	445	3.60127E+000	1.11898E-006	0.00000E+000	4.02977E-006	0.00000E+000	4.94067E-004	-3.27672E+002	7	...........
	445	446	3.60128E+000	1.11844E-006	0.00000E+000	4.02780E-006	0.00000E+000	4.92400E-004	-3.27672E+002	7	...........
	446	447	3.60129E+000	1.11866E-006	0.00000E+000	4.02862E-006	0.00000E+000	4.91550E-004	-3.27672E+002	7	...........
	447	448	3.60130E+000	1.11832E-006	0.00000E+000	4.02741E-006	0.00000E+000	4.94333E-004	-3.27672E+002	7	...........
	448	449	3.60130E+000	1.11858E-006	0.00000E+000	4.02834E-006	0.00000E+000	4.90950E-004	-3.27672E+002	7	...........
	449	450	3.60131E+000	1.11766E-006	0.00000E+000	4.02503E-006	0.00000E+000	4.93650E-004	-3.27672E+002	7	...........
	450	451	3.60131E+000	1.11746E-006	0.00000E+000	4.02432E-006	0.00000E+000	4.92000E-004	-3.27672E+002	7	...........
	451	452	3.60132E+000	1.11727E-006	0.00000E+000	4.02364E-006	0.00000E+000	4.95133E-004	-3.27672E+002	7	...........
	452	453	3.60132E+000	1.11792E-006	0.00000E+000	4.02598E-006	0.00000E+000	4.91733E-004	-3.27672E+002	7	...........
	453	454	3.60134E+000	1.11832E-006	0.00000E+000	4.02745E-006	0.00000E+000	4.91300E-004	-3.27672E+002	7	...........
	454	455	3.60134E+000	1.11874E-006	0.00000E+000	4.02896E-006	0.00000E+000	4.91100E-004	-3.27672E+002	7	...........
	455	456	3.60134E+000	1.11854E-006	0.00000E+000	4.02824E-006	0.00000E+000	4.91317E-004	-3.27672E+002	7	...........
	456	457	3.60135E+000	1.11926E-006	0.00000E+000	4.03086E-006	0.00000E+000	4.90917E-004	-3.27672E+002	7	...........
	457	458	3.60136E+000	1.11823E-006	0.00000E+000	4.02715E-006	0.00000E+000	4.94167E-004	-3.27672E+002	7	...........
	458	459	3.60136E+000	1.11830E-006	0.00000E+000	4.02741E-006	0.00000E+000	4.91167E-004	-3.27672E+002	7	...........
	459	460	3.60138E+000	1.11841E-006	0.00000E+000	4.02780E-006	0.00000E+000	4.92233E-004	-3.27672E+002	7	...........
	460	461	3.60138E+000	1.11856E-006	0.00000E+000	4.02836E-006	0.00000E+000	4.89450E-004	-3.27672E+002	7	...........
	461	462	3.60138E+000	1.11819E-006	0.00000E+000	4.02703E-006	0.00000E+000	4.90133E-004	-3.27672E+002	7	...........
	462	463	3.60139E+000	1.11802E-006	0.00000E+000	4.02641E-006	0.00000E+000	4.89933E-004	-3.27672E+002	7	...........
	463	464	3.60139E+000	1.11799E-006	0.00000E+000	4.02633E-006	0.00000E+000	4.90483E-004	-3.27672E+002	7	...........
	464	465	3.60140E+000	1.11912E-006	0.00000E+000	4.03041E-006	0.00000E+000	4.88383E-004	-3.27672E+002	7	...........
	465	466	3.60141E+000	1.11944E-006	0.00000E+000	4.03157E-006	0.00000E+000	4.90333E-004	-3.27672E+002	7	...........
	466	467	3.60141E+000	1.11882E-006	0.00000E+000	4.02935E-006	0.00000E+000	4.90750E-004	-3.27672E+002	7	...........
	467	468	3.60142E+000	1.11943E-006	0.00000E+000	4.03154E-006	0.00000E+000	4.91750E-004	-3.27672E+002	7	...........
	468	469	3.60142E+000	1.11847E-006	0.00000E+000	4.02809E-006	0.00000E+000	4.91800E-004	-3.27672E+002	7	...........
	469	470	3.60142E+000	1.11853E-006	0.00000E+000	4.02830E-006	0.00000E+000	4.91583E-004	-3.27672E+002	7	...........
	470	471	3.60144E+000	1.11838E-006	0.00000E+000	4.02779E-006	0.00000E+000	4.93067E-004	-3.27672E+002	7	...........
	471	472	3.60144E+000	1.11872E-006	0.00000E+000	4.02899E-006	0.00000E+000	4.89833E-004	-3.27672E+002	7	...........
	472	473	3.60145E+000	1.11792E-006	0.00000E+000	4.02613E-006	0.00000E+000	4.86967E-004	-3.27672E+002	7	...........
	473	474	3.60145E+000	1.11836E-006	0.00000E+000	4.02773E-006	0.00000E+000	4.88633E-004	-3.27672E+002	7	...........
	474	475	3.60146E+000	1.11876E-006	0.00000E+000	4.02918E-006	0.00000E+000	4.88200E-004	-3.27672E+002	7	...........
	475	476	3.60146E+000	1.11897E-006	0.00000E+000	4.02993E-006	0.00000E+000	4.91600E-004	-3.27672E+002	7	...........
	476	477	3.60147E+000	1.11907E-006	0.00000E+000	4.03028E-006	0.00000E+000	4.91700E-004	-3.27672E+002	7	...........
	477	478	3.60147E+000	1.11950E-006	0.00000E+000	4.03186E-006	0.00000E+000	4.91633E-004	-3.27672E+002	7	...........
	478	479	3.60148E+000	1.11966E-006	0.00000E+000	4.03242E-006	0.00000E+000	4.88533E-004	-3.27672E+002	7	...........
	479	480	3.60149E+000	1.11854E-006	0.00000E+000	4.02841E-006	0.00000E+000	4.88183E-004	-3.27672E+002	7	...........
	480	481	3.60148E+000	1.11839E-006	0.00000E+000	4.02787E-006	0.00000E+000	4.89900E-004	-3.27672E+002	7	...........
	481	482	3.60150E+000	1.11853E-006	0.00000E+000	4.02840E-006	0.00000E+000	4.91983E-004	-3.27672E+002	7	...........
	482	483	3.60150E+000	1.11796E-006	0.00000E+000	4.02635E-006	0.00000E+000	4.90850E-004	-3.27672E+002	7	...........
	483	484	3.60150E+000	1.11855E-006	0.00000E+000	4.02846E-006	0.00000E+000	4.91433E-004	-3.27672E+002	7	...........
	484	485	3.60151E+000	1.11869E-006	0.00000E+000	4.02897E-006	0.00000E+000	4.90300E-004	-3.27672E+002	7	...........
	485	486	3.60153E+000	1.11801E-006	0.00000E+000	4.02654E-006	0.00000E+000	4.89083E-004	-3.27672E+002	7	...........
	486	487	3.60153E+000	1.11790E-006	0.00000E+000	4.02616E-006	0.00000E+000	4.88433E-004	-3.27672E+002	7	...........
	487	488	3.60154E+000	1.11844E-006	0.00000E+000	4.02809E-006	0.00000E+000	4.90467E-004	-3.27672E+002	7	...........
	488	489	3.60154E+000	1.11843E-006	0.00000E+000	4.02809E-006	0.00000E+000	4.90650E-004	-3.27672E+002	7	...........
	489	490	3.60155E+000	1.11853E-006	0.00000E+000	4.02844E-006	0.00000E+000	4.90283E-004	-3.27672E+002	7	...........
	490	491	3.60155E+000	1.11800E-006	0.00000E+000	4.02655E-006	0.00000E+000	4.88633E-004	-3.27672E+002	7	...........
	491	492	3.60156E+000	1.11839E-006	0.00000E+000	4.02795E-006	0.00000E+000	4.90883E-004	-3.27672E+002	7	...........
	492	493	3.60156E+000	1.11889E-006	0.00000E+000	4.02975E-006	0.00000E+000	4.90300E-004	-3.27672E+002	7	...........
	493	494	3.60156E+000	1.11841E-006	0.00000E+000	4.02803E-006	0.00000E+000	4.89417E-004	-3.27672E+002	7	...........
	494	495	3.60158E+000	1.11768E-006	0.00000E+000	4.02542E-006	0.00000E+000	4.91350E-004	-3.27672E+002	7	...........
	495	496	3.60157E+000	1.11792E-006	0.00000E+000	4.02625E-006	0.00000E+000	4.92583E-004	-3.27672E+002	7	...........
	496	497	3.60159E+000	1.11804E-006	0.00000E+000	4.02670E-006	0.00000E+000	4.86767E-004	-3.27672E+002	7	...........
	497	498	3.60159E+000	1.11878E-006	0.00000E+000	4.02938E-006	0.00000E+000	4.90983E-004	-3.27672E+002	7	...........
	498	499	3.60159E+000	1.11862E-006	0.00000E+000	4.02880E-006	0.00000E+000	4.91267E-004	-3.27672E+002	7	...........
	499	500	3.60160E+000	1.11898E-006	0.00000E+000	4.03011E-006	0.00000E+000	4.88850E-004	-3.27672E+002	7	...........
	500	501	3.60161E+000	1.11928E-006	0.00000E+000	4.03119E-006	0.00000E+000	4.88650E-004	-3.27672E+002	7	...........
	501	502	3.60162E+000	1.11938E-006	0.00000E+000	4.03156E-006	0.00000E+000	4.90383E-004	-3.27672E+002	7	...........
	502	503	3.60161E+000	1.11883E-006	0.00000E+000	4.02959E-006	0.00000E+000	4.90017E-004	-3.27672E+002	7	...........
	503	504	3.60162E+000	1.11895E-006	0.00000E+000	4.03002E-006	0.00000E+000	4.89800E-004	-3.27672E+002	7	...........
	504	505	3.60162E+000	1.11867E-006	0.00000E+000	4.02903E-006	0.00000E+000	4.90083E-004	-3.27672E+002	7	...........
	505	506	3.60164E+000	1.11935E-006	0.00000E+000	4.03151E-006	0.00000E+000	4.85317E-004	-3.27672E+002	7	...........
	506	507	3.60164E+000	1.11839E-006	0.00000E+000	4.02803E-006	0.00000E+000	4.92800E-004	-3.27672E+002	7	...........
	507	508	3.60164E+000	1.11876E-006	0.00000E+000	4.02938E-006	0.00000E+000	4.89683E-004	-3.27672E+002	7	...........
	508	509	3.60166E+000	1.11886E-006	0.00000E+000	4.02975E-006	0.00000E+000	4.88850E-004	-3.27672E+002	7	...........
	509	510	3.60165E+000	1.11918E-006	0.00000E+000	4.03089E-006	0.00000E+000	4.91283E-004	-3.27672E+002	7	...........
	510	511	3.60166E+000	1.11873E-006	0.00000E+000	4.02930E-006	0.00000E+000	4.91683E-004	-3.27672E+002	7	...........
	511	512	3.60167E+000	1.11802E-006	0.00000E+000	4.02676E-006	0.00000E+000	4.91167E-004	-3.27672E+002	7	...........
	512	513	3.60168E+000	1.11816E-006	0.00000E+000	4.02726E-006	0.00000E+000	4.88017E-004	-3.27672E+002	7	...........
	513	514	3.60169E+000	1.11844E-006	0.00000E+000	4.02827E-006	0.00000E+000	4.88217E-004	-3.27672E+002	7	...........
	514	515	3.60170E+000	1.11902E-006	0.00000E+000	4.03039E-006	0.00000E+000	4.89233E-004	-3.27672E+002	7	...........
	515	516	3.60170E+000	1.11865E-006	0.00000E+000	4.02903E-006	0.00000E+000	4.88417E-004	-3.27672E+002	7	...........
	516	517	3.60170E+000	1.11820E-006	0.00000E+000	4.02743E-006	0.00000E+000	4.86750E-004	-3.27672E+002	7	...........
	517	518	3.60171E+000	1.11767E-006	0.00000E+000	4.02551E-006	0.00000E+000	4.85267E-004	-3.27672E+002	7	...........
	518	519	3.60171E+000	1.11823E-006	0.00000E+000	4.02755E-006	0.00000E+000	4.88983E-004	-3.27672E+002	7	...........
	519	520	3.60171E+000	1.11847E-006	0.00000E+000	4.02842E-006	0.00000E+000	4.86883E-004	-3.27672E+002	7	...........
	520	521	3.60172E+000	1.11912E-006	0.00000E+000	4.03077E-006	0.00000E+000	4.87783E-004	-3.27672E+002	7	...........
	521	522	3.60172E+000	1.11917E-006	0.00000E+000	4.03094E-006	0.00000E+000	4.87767E-004	-3.27672E+002	7	...........
	522	523	3.60173E+000	1.11813E-006	0.00000E+000	4.02721E-006	0.00000E+000	4.88350E-004	-3.27672E+002	7	...........
	523	524	3.60174E+000	1.11801E-006	0.00000E+000	4.02679E-006	0.00000E+000	4.86917E-004	-3.27672E+002	7	...........
	524	525	3.60174E+000	1.11813E-006	0.00000E+000	4.02721E-006	0.00000E+000	4.86567E-004	-3.27672E+002	7	...........
	525	526	3.60174E+000	1.11798E-006	0.00000E+000	4.02666E-006	0.00000E+000	4.87783E-004	-3.27672E+002	7	...........
	526	527	3.60175E+000	1.11809E-006	0.00000E+000	4.02707E-006	0.00000E+000	4.86750E-004	-3.27672E+002	7	...........
	527	528	3.60175E+000	1.11801E-006	0.00000E+000	4.02680E-006	0.00000E+000	4.86817E-004	-3.27672E+002	7	...........
	528	529	3.60176E+000	1.11893E-006	0.00000E+000	4.03013E-006	0.00000E+000	4.91783E-004	-3.27672E+002	7	...........
	529	530	3.60177E+000	1.11835E-006	0.00000E+000	4.02804E-006	0.00000E+000	4.86900E-004	-3.27672E+002	7	...........
	530	531	3.60177E+000	1.11884E-006	0.00000E+000	4.02980E-006	0.00000E+000	4.84900E-004	-3.27672E+002	7	...........
	531	532	3.60176E+000	1.11866E-006	0.00000E+000	4.02916E-006	0.00000E+000	4.85267E-004	-3.27672E+002	7	...........
	532	533	3.60178E+000	1.11838E-006	0.00000E+000	4.02817E-006	0.00000E+000	4.89000E-004	-3.27672E+002	7	...........
	533	534	3.60178E+000	1.11789E-006	0.00000E+000	4.02641E-006	0.00000E+000	4.88233E-004	-3.27672E+002	7	...........
	534	535	3.60178E+000	1.11813E-006	0.00000E+000	4.02726E-006	0.00000E+000	4.86183E-004	-3.27672E+002	7	...........
	535	536	3.60179E+000	1.11778E-006	0.00000E+000	4.02601E-006	0.00000E+000	4.83333E-004	-3.27672E+002	7	...........
	536	537	3.60179E+000	1.11749E-006	0.00000E+000	4.02496E-006	0.00000E+000	4.84833E-004	-3.27672E+002	7	...........
	537	538	3.60180E+000	1.11782E-006	0.00000E+000	4.02616E-006	0.00000E+000	4.86383E-004	-3.27672E+002	7	...........
	538	539	3.60180E+000	1.11826E-006	0.00000E+000	4.02775E-006	0.00000E+000	4.88600E-004	-3.27672E+002	7	...........
	539	540	3.60182E+000	1.11817E-006	0.00000E+000	4.02743E-006	0.00000E+000	4.87317E-004	-3.27672E+002	7	...........
	540	541	3.60182E+000	1.11872E-006	0.00000E+000	4.02942E-006	0.00000E+000	4.90050E-004	-3.27672E+002	7	...........
	541	542	3.60182E+000	1.11898E-006	0.00000E+000	4.03036E-006	0.00000E+000	4.86900E-004	-3.27672E+002	7	...........
	542	543	3.60182E+000	1.11916E-006	0.00000E+000	4.03101E-006	0.00000E+000	4.88800E-004	-3.27672E+002	7	...........
	543	544	3.60183E+000	1.11862E-006	0.00000E+000	4.02907E-006	0.00000E+000	4.85283E-004	-3.27672E+002	7	...........
	544	545	3.60184E+000	1.11877E-006	0.00000E+000	4.02964E-006	0.00000E+000	4.86200E-004	-3.27672E+002	7	...........
	545	546	3.60184E+000	1.11843E-006	0.00000E+000	4.02840E-006	0.00000E+000	4.86633E-004	-3.27672E+002	7	...........
	546	547	3.60184E+000	1.11907E-006	0.00000E+000	4.03072E-006	0.00000E+000	4.88933E-004	-3.27672E+002	7	...........
	547	548	3.60185E+000	1.11888E-006	0.00000E+000	4.03005E-006	0.00000E+000	4.88483E-004	-3.27672E+002	7	...........
	548	549	3.60186E+000	1.11934E-006	0.00000E+000	4.03171E-006	0.00000E+000	4.84900E-004	-3.27672E+002	7	...........
	549	550	3.60185E+000	1.11871E-006	0.00000E+000	4.02943E-006	0.00000E+000	4.86433E-004	-3.27672E+002	7	...........
	550	551	3.60186E+000	1.11914E-006	0.00000E+000	4.03099E-006	0.00000E+000	4.85517E-004	-3.27672E+002	7	...........
	551	552	3.60187E+000	1.11833E-006	0.00000E+000	4.02809E-006	0.00000E+000	4.86917E-004	-3.27672E+002	7	...........
	552	553	3.60187E+000	1.11864E-006	0.00000E+000	4.02920E-006	0.00000E+000	4.86850E-004	-3.27672E+002	7	...........
	553	554	3.60187E+000	1.11867E-006	0.00000E+000	4.02931E-006	0.00000E+000	4.84267E-004	-3.27672E+002	7	...........
	554	555	3.60187E+000	1.11890E-006	0.00000E+000	4.03013E-006	0.00000E+000	4.86950E-004	-3.27672E+002	7	...........
	555	556	3.60188E+000	1.11857E-006	0.00000E+000	4.02896E-006	0.00000E+000	4.85517E-004	-3.27672E+002	7	...........
	556	557	3.60188E+000	1.11870E-006	0.00000E+000	4.02944E-006	0.00000E+000	4.87650E-004	-3.27672E+002	7	...........
	557	558	3.60189E+000	1.11872E-006	0.00000E+000	4.02949E-006	0.00000E+000	4.83567E-004	-3.27672E+002	7	...........
	558	559	3.60189E+000	1.11753E-006	0.00000E+000	4.02523E-006	0.00000E+000	4.89033E-004	-3.27672E+002	7	...........
	559	560	3.60189E+000	1.11850E-006	0.00000E+000	4.02871E-006	0.00000E+000	4.88283E-004	-3.27672E+002	7	...........
	560	561	3.60190E+000	1.11779E-006	0.00000E+000	4.02618E-006	0.00000E+000	4.87400E-004	-3.27672E+002	7	...........
	561	562	3.60190E+000	1.11849E-006	0.00000E+000	4.02867E-006	0.00000E+000	4.89767E-004	-3.27672E+002	7	...........
	562	563	3.60190E+000	1.11941E-006	0.00000E+000	4.03202E-006	0.00000E+000	4.87533E-004	-3.27672E+002	7	...........
	563	564	3.60191E+000	1.11949E-006	0.00000E+000	4.03232E-006	0.00000E+000	4.84267E-004	-3.27672E+002	7	...........
	564	565	3.60191E+000	1.11968E-006	0.00000E+000	4.03298E-006	0.00000E+000	4.87767E-004	-3.27672E+002	7	...........
	565	566	3.60192E+000	1.11906E-006	0.00000E+000	4.03078E-006	0.00000E+000	4.88633E-004	-3.27672E+002	7	...........
	566	567	3.60192E+000	1.11910E-006	0.00000E+000	4.03089E-006	0.00000E+000	4.84383E-004	-3.27672E+002	7	...........
	567	568	3.60193E+000	1.11907E-006	0.00000E+000	4.03080E-006	0.00000E+000	4.88650E-004	-3.27672E+002	7	...........
	568	569	3.60193E+000	1.11816E-006	0.00000E+000	4.02753E-006	0.00000E+000	4.82050E-004	-3.27672E+002	7	...........
	569	570	3.60193E+000	1.11870E-006	0.00000E+000	4.02948E-006	0.00000E+000	4.82983E-004	-3.27672E+002	7	...........
	570	571	3.60194E+000	1.11918E-006	0.00000E+000	4.03123E-006	0.00000E+000	4.83867E-004	-3.27672E+002	7	...........
	571	572	3.60195E+000	1.11923E-006	0.00000E+000	4.03139E-006	0.00000E+000	4.82800E-004	-3.27672E+002	7	...........
	572	573	3.60195E+000	1.11887E-006	0.00000E+000	4.03010E-006	0.00000E+000	4.85950E-004	-3.27672E+002	7	...........
	573	574	3.60195E+000	1.11911E-006	0.00000E+000	4.03098E-006	0.00000E+000	4.84100E-004	-3.27672E+002	7	...........
	574	575	3.60195E+000	1.11925E-006	0.00000E+000	4.03149E-006	0.00000E+000	4.85717E-004	-3.27672E+002	7	...........
	575	576	3.60196E+000	1.11904E-006	0.00000E+000	4.03072E-006	0.00000E+000	4.85583E-004	-3.27672E+002	7	...........
	576	577	3.60197E+000	1.11851E-006	0.00000E+000	4.02883E-006	0.00000E+000	4.86400E-004	-3.27672E+002	7	...........
	577	578	3.60197E+000	1.11828E-006	0.00000E+000	4.02800E-006	0.00000E+000	4.86783E-004	-3.27672E+002	7	...........
	578	579	3.60198E+000	1.11793E-006	0.00000E+000	4.02675E-006	0.00000E+000	4.87867E-004	-3.27672E+002	7	...........
	579	580	3.60197E+000	1.11798E-006	0.00000E+000	4.02694E-006	0.00000E+000	4.85300E-004	-3.27672E+002	7	...........
	580	581	3.60198E+000	1.11809E-006	0.00000E+000	4.02734E-006	0.00000E+000	4.84467E-004	-3.27672E+002	7	...........
	581	582	3.60198E+000	1.11875E-006	0.00000E+000	4.02971E-006	0.00000E+000	4.84383E-004	-3.27672E+002	7	...........
	582	583	3.60199E+000	1.11821E-006	0.00000E+000	4.02778E-006	0.00000E+000	4.86350E-004	-3.27672E+002	7	...........
	583	584	3.60199E+000	1.11857E-006	0.00000E+000	4.02910E-006	0.00000E+000	4.85233E-004	-3.27672E+002	7	...........
	584	585	3.60200E+000	1.11877E-006	0.00000E+000	4.02982E-006	0.00000E+000	4.86133E-004	-3.27672E+002	7	...........
	585	586	3.60199E+000	1.11921E-006	0.00000E+000	4.03138E-006	0.00000E+000	4.81767E-004	-3.27672E+002	7	...........
	586	587	3.60200E+000	1.11940E-006	0.00000E+000	4.03209E-006	0.00000E+000	4.81967E-004	-3.27672E+002	7	...........
	587	588	3.60200E+000	1.11931E-006	0.00000E+000	4.03176E-006	0.00000E+000	4.82650E-004	-3.27672E+002	7	...........
	588	589	3.60201E+000	1.11873E-006	0.00000E+000	4.02968E-006	0.00000E+000	4.83233E-004	-3.27672E+002	7	...........
	589	590	3.60201E+000	1.11888E-006	0.00000E+000	4.03022E-006	0.00000E+000	4.82850E-004	-3.27672E+002	7	...........
	590	591	3.60202E+000	1.11835E-006	0.00000E+000	4.02830E-006	0.00000E+000	4.82467E-004	-3.27672E+002	7	...........
	591	592	3.60202E+000	1.11924E-006	0.00000E+000	4.03151E-006	0.00000E+000	4.84633E-004	-3.27672E+002	7	...........
	592	593	3.60202E+000	1.11926E-006	0.00000E+000	4.03161E-006	0.00000E+000	4.83367E-004	-3.27672E+002	7	...........
	593	594	3.60203E+000	1.11953E-006	0.00000E+000	4.03258E-006	0.00000E+000	4.84917E-004	-3.27672E+002	7	...........
	594	595	3.60204E+000	1.11863E-006	0.00000E+000	4.02936E-006	0.00000E+000	4.82833E-004	-3.27672E+002	7	...........
	595	596	3.60204E+000	1.11941E-006	0.00000E+000	4.03215E-006	0.00000E+000	4.85083E-004	-3.27672E+002	7	...........
	596	597	3.60204E+000	1.11876E-006	0.00000E+000	4.02981E-006	0.00000E+000	4.85950E-004	-3.27672E+002	7	...........
	597	598	3.60205E+000	1.11795E-006	0.00000E+000	4.02692E-006	0.00000E+000	4.85317E-004	-3.27672E+002	7	...........
	598	599	3.60205E+000	1.11833E-006	0.00000E+000	4.02828E-006	0.00000E+000	4.88317E-004	-3.27672E+002	7	...........
	599	600	3.60205E+000	1.11837E-006	0.00000E+000	4.02844E-006	0.00000E+000	4.87967E-004	-3.27672E+002	7	...........
