EXPLAIN
TAG	PWR800_READVOLTAGE
TITLE	LABEL	PWR Read Voltage	Test Identifier
DATE	LABEL	8.2.2024	Date
TIME	LABEL	4:27:47	Time
NOTES	NOTES	1	Notes...
	
PSTAT	PSTAT	REF600-12055	Potentiostat
CAPACITY	QUANT	1.00000E+000	Capacity (A-hr)
CELLTYPE	SELECTOR	1	Cell Type
WORKINGCONNECTION	SELECTOR	0	Working Connection
MAXTIME	VARIABLEANDUNITS	6.00000E+002	s	6.00000E+002	second(s)	Max Time
SAMPLETIME	QUANT	1.00000E+000	Sample Period (s)
STOPAT1	MULTIPARAM	0	0.00000E+000	Stop At 1	None	N/A
STOPAT2	MULTIPARAM	0	0.00000E+000	Stop At 2	None	N/A
AESBHCSELECTOR	TOGGLE	F	Save Both Half Cells
EOC	QUANT	4.061843	Open Circuit (V)
SEQUENCER	TOGGLE	TRUE	Run as Sequence
PSTATMODEL	IQUANT	4	Pstat Model
PSTATSECTION	LABEL	REF600-12055	Pstat Section
PSTATSERIALNO	LABEL	12055	Pstat Serial Number
CTRLMODE	IQUANT	0	Control Mode
ELECTROMETER	IQUANT	0	RE=0 or CS=1
IESTAB	IQUANT	0	I/E Stability
CASPEED	IQUANT	4	Control Amp Speed
CONVENTION	IQUANT	1	Current Convention
ICHRANGE	IQUANT	2	Ich Range
ICHRANGEMODE	TOGGLE	T	Ich Auto Range
ICHOFFSETENABLE	TOGGLE	F	Ich Offset Enable
ICHOFFSET	QUANT	0	Ich Offset (V)
ICHFILTER	IQUANT	1	Ich Filter
VCHRANGE	IQUANT	3	Vch Range
VCHRANGEMODE	TOGGLE	T	Vch Auto Range
VCHOFFSETENABLE	TOGGLE	F	Vch Offset Enable
VCHOFFSET	QUANT	0	Vch Offset (V)
VCHFILTER	IQUANT	1	Vch Filter
ACHRANGE	IQUANT	2	Ach Range
ACHOFFSETENABLE	TOGGLE	F	Ach Offset Enable
ACHOFFSET	QUANT	0	Ach Offset (V)
ACHFILTER	IQUANT	1	Ach Filter
IERANGELOWERLIMIT	IQUANT	7	I/E Range Lower Limit
IERANGEMODE	TOGGLE	F	I/E AutoRange
IERANGE	IQUANT	11	I/E Range
POSFEEDENABLE	TOGGLE	F	Positive Feedback IR Comp
POSFEEDRESISTANCE	QUANT	0	Positive Feedback Resistance (ohm)
ACHSELECT	IQUANT	4	Ach Select
SENSECABLEID	IQUANT	14	Sense Cable ID
PWRCABLEID	IQUANT	14	Power Cable ID
DCCALDATE	LABEL		DC Calibration Date
ACCALDATE	LABEL		AC Calibration Date
THERMOSELECT	IQUANT	1	Thermo Select
FRAMEWORKVERSION	LABEL	7.10.3	Framework Version
INSTRUMENTVERSION	LABEL	4.91	Instrument Version
COMMVERSION	LABEL	2.24	Communications Version
CPUPLDVERSION	LABEL	0.00	CPU PLD Version
CTRLPLDVERSION	LABEL	0.00	CTRL PLD Version
PSTATPLDVERSION	LABEL	0.00	PSTAT PLD Version
CURVE	TABLE	600
	Pt	T	Vf	Im	Vu	Pwr	Sig	Ach	Temp	IERange	Over
	#	s	V	A	V	W	V	V	deg C	#	bits
	0	1	4.08308E+000	1.05221E-006	0.00000E+000	4.29625E-006	0.00000E+000	7.69583E-004	-3.27672E+002	7	...........
	1	2	4.08331E+000	1.05086E-006	0.00000E+000	4.29099E-006	0.00000E+000	7.72450E-004	-3.27672E+002	7	...........
	2	3	4.08352E+000	1.05025E-006	0.00000E+000	4.28871E-006	0.00000E+000	7.76083E-004	-3.27672E+002	7	...........
	3	4	4.08371E+000	1.04936E-006	0.00000E+000	4.28526E-006	0.00000E+000	7.74467E-004	-3.27672E+002	7	...........
	4	5	4.08388E+000	1.04861E-006	0.00000E+000	4.28239E-006	0.00000E+000	7.75233E-004	-3.27672E+002	7	...........
	5	6	4.08403E+000	1.04765E-006	0.00000E+000	4.27866E-006	0.00000E+000	7.72417E-004	-3.27672E+002	7	...........
	6	7	4.08416E+000	1.04753E-006	0.00000E+000	4.27830E-006	0.00000E+000	7.72367E-004	-3.27672E+002	7	...........
	7	8	4.08428E+000	1.04712E-006	0.00000E+000	4.27673E-006	0.00000E+000	7.71383E-004	-3.27672E+002	7	...........
	8	9	4.08438E+000	1.04658E-006	0.00000E+000	4.27463E-006	0.00000E+000	7.74000E-004	-3.27672E+002	7	...........
	9	10	4.08445E+000	1.04679E-006	0.00000E+000	4.27557E-006	0.00000E+000	7.71300E-004	-3.27672E+002	7	...........
	10	11	4.08454E+000	1.04733E-006	0.00000E+000	4.27786E-006	0.00000E+000	7.70383E-004	-3.27672E+002	7	...........
	11	12	4.08462E+000	1.04598E-006	0.00000E+000	4.27244E-006	0.00000E+000	7.72667E-004	-3.27672E+002	7	...........
	12	13	4.08469E+000	1.04530E-006	0.00000E+000	4.26974E-006	0.00000E+000	7.70167E-004	-3.27672E+002	7	...........
	13	14	4.08476E+000	1.04484E-006	0.00000E+000	4.26791E-006	0.00000E+000	7.72683E-004	-3.27672E+002	7	...........
	14	15	4.08484E+000	1.04394E-006	0.00000E+000	4.26432E-006	0.00000E+000	7.71183E-004	-3.27672E+002	7	...........
	15	16	4.08490E+000	1.04338E-006	0.00000E+000	4.26211E-006	0.00000E+000	7.72083E-004	-3.27672E+002	7	...........
	16	17	4.08495E+000	1.04272E-006	0.00000E+000	4.25945E-006	0.00000E+000	7.71983E-004	-3.27672E+002	7	...........
	17	18	4.08500E+000	1.04214E-006	0.00000E+000	4.25716E-006	0.00000E+000	7.70983E-004	-3.27672E+002	7	...........
	18	19	4.08504E+000	1.04297E-006	0.00000E+000	4.26058E-006	0.00000E+000	7.72533E-004	-3.27672E+002	7	...........
	19	20	4.08509E+000	1.04197E-006	0.00000E+000	4.25654E-006	0.00000E+000	7.72000E-004	-3.27672E+002	7	...........
	20	21	4.08513E+000	1.04142E-006	0.00000E+000	4.25434E-006	0.00000E+000	5.69433E-004	-3.27672E+002	7	...........
	21	22	4.08516E+000	1.04045E-006	0.00000E+000	4.25042E-006	0.00000E+000	4.71633E-004	-3.27672E+002	7	...........
	22	23	4.08520E+000	1.03975E-006	0.00000E+000	4.24760E-006	0.00000E+000	4.71600E-004	-3.27672E+002	7	...........
	23	24	4.08523E+000	1.04006E-006	0.00000E+000	4.24889E-006	0.00000E+000	4.68850E-004	-3.27672E+002	7	...........
	24	25	4.08526E+000	1.03898E-006	0.00000E+000	4.24449E-006	0.00000E+000	4.70083E-004	-3.27672E+002	7	...........
	25	26	4.08529E+000	1.03816E-006	0.00000E+000	4.24120E-006	0.00000E+000	4.73450E-004	-3.27672E+002	7	...........
	26	27	4.08532E+000	1.03723E-006	0.00000E+000	4.23743E-006	0.00000E+000	4.69633E-004	-3.27672E+002	7	...........
	27	28	4.08536E+000	1.03725E-006	0.00000E+000	4.23752E-006	0.00000E+000	4.68083E-004	-3.27672E+002	7	...........
	28	29	4.08539E+000	1.03697E-006	0.00000E+000	4.23641E-006	0.00000E+000	4.72967E-004	-3.27672E+002	7	...........
	29	30	4.08542E+000	1.03627E-006	0.00000E+000	4.23360E-006	0.00000E+000	4.72517E-004	-3.27672E+002	7	...........
	30	31	4.08546E+000	1.03625E-006	0.00000E+000	4.23355E-006	0.00000E+000	4.74017E-004	-3.27672E+002	7	...........
	31	32	4.08549E+000	1.03574E-006	0.00000E+000	4.23153E-006	0.00000E+000	4.71900E-004	-3.27672E+002	7	...........
	32	33	4.08553E+000	1.03616E-006	0.00000E+000	4.23326E-006	0.00000E+000	4.74633E-004	-3.27672E+002	7	...........
	33	34	4.08557E+000	1.03595E-006	0.00000E+000	4.23243E-006	0.00000E+000	4.70583E-004	-3.27672E+002	7	...........
	34	35	4.08559E+000	1.03547E-006	0.00000E+000	4.23051E-006	0.00000E+000	4.70383E-004	-3.27672E+002	7	...........
	35	36	4.08562E+000	1.03436E-006	0.00000E+000	4.22600E-006	0.00000E+000	4.70183E-004	-3.27672E+002	7	...........
	36	37	4.08566E+000	1.03285E-006	0.00000E+000	4.21989E-006	0.00000E+000	4.67517E-004	-3.27672E+002	7	...........
	37	38	4.08570E+000	1.03331E-006	0.00000E+000	4.22180E-006	0.00000E+000	4.69250E-004	-3.27672E+002	7	...........
	38	39	4.08572E+000	1.03314E-006	0.00000E+000	4.22113E-006	0.00000E+000	4.67967E-004	-3.27672E+002	7	...........
	39	40	4.08576E+000	1.03316E-006	0.00000E+000	4.22126E-006	0.00000E+000	4.69883E-004	-3.27672E+002	7	...........
	40	41	4.08579E+000	1.03253E-006	0.00000E+000	4.21870E-006	0.00000E+000	4.69400E-004	-3.27672E+002	7	...........
	41	42	4.08582E+000	1.03346E-006	0.00000E+000	4.22253E-006	0.00000E+000	4.70183E-004	-3.27672E+002	7	...........
	42	43	4.08585E+000	1.03373E-006	0.00000E+000	4.22368E-006	0.00000E+000	4.69250E-004	-3.27672E+002	7	...........
	43	44	4.08588E+000	1.03233E-006	0.00000E+000	4.21799E-006	0.00000E+000	4.70467E-004	-3.27672E+002	7	...........
	44	45	4.08591E+000	1.03242E-006	0.00000E+000	4.21836E-006	0.00000E+000	4.71050E-004	-3.27672E+002	7	...........
	45	46	4.08594E+000	1.03201E-006	0.00000E+000	4.21671E-006	0.00000E+000	4.67683E-004	-3.27672E+002	7	...........
	46	47	4.08597E+000	1.03101E-006	0.00000E+000	4.21267E-006	0.00000E+000	4.66467E-004	-3.27672E+002	7	...........
	47	48	4.08599E+000	1.03131E-006	0.00000E+000	4.21392E-006	0.00000E+000	4.69417E-004	-3.27672E+002	7	...........
	48	49	4.08602E+000	1.02984E-006	0.00000E+000	4.20793E-006	0.00000E+000	4.68750E-004	-3.27672E+002	7	...........
	49	50	4.08605E+000	1.03025E-006	0.00000E+000	4.20966E-006	0.00000E+000	4.66833E-004	-3.27672E+002	7	...........
	50	51	4.08608E+000	1.02946E-006	0.00000E+000	4.20646E-006	0.00000E+000	4.67683E-004	-3.27672E+002	7	...........
	51	52	4.08608E+000	1.02937E-006	0.00000E+000	4.20607E-006	0.00000E+000	4.68933E-004	-3.27672E+002	7	...........
	52	53	4.08612E+000	1.02949E-006	0.00000E+000	4.20660E-006	0.00000E+000	4.70417E-004	-3.27672E+002	7	...........
	53	54	4.08614E+000	1.03018E-006	0.00000E+000	4.20947E-006	0.00000E+000	4.67217E-004	-3.27672E+002	7	...........
	54	55	4.08617E+000	1.03008E-006	0.00000E+000	4.20907E-006	0.00000E+000	4.70183E-004	-3.27672E+002	7	...........
	55	56	4.08620E+000	1.02964E-006	0.00000E+000	4.20733E-006	0.00000E+000	4.70933E-004	-3.27672E+002	7	...........
	56	57	4.08621E+000	1.02908E-006	0.00000E+000	4.20504E-006	0.00000E+000	4.71700E-004	-3.27672E+002	7	...........
	57	58	4.08623E+000	1.02874E-006	0.00000E+000	4.20369E-006	0.00000E+000	4.72033E-004	-3.27672E+002	7	...........
	58	59	4.08626E+000	1.02875E-006	0.00000E+000	4.20374E-006	0.00000E+000	4.71550E-004	-3.27672E+002	7	...........
	59	60	4.08628E+000	1.02769E-006	0.00000E+000	4.19944E-006	0.00000E+000	4.73867E-004	-3.27672E+002	7	...........
	60	61	4.08630E+000	1.02904E-006	0.00000E+000	4.20498E-006	0.00000E+000	4.68650E-004	-3.27672E+002	7	...........
	61	62	4.08632E+000	1.02862E-006	0.00000E+000	4.20325E-006	0.00000E+000	4.70350E-004	-3.27672E+002	7	...........
	62	63	4.08634E+000	1.02759E-006	0.00000E+000	4.19907E-006	0.00000E+000	4.70717E-004	-3.27672E+002	7	...........
	63	64	4.08636E+000	1.02783E-006	0.00000E+000	4.20006E-006	0.00000E+000	4.75450E-004	-3.27672E+002	7	...........
	64	65	4.08639E+000	1.02829E-006	0.00000E+000	4.20200E-006	0.00000E+000	4.75233E-004	-3.27672E+002	7	...........
	65	66	4.08641E+000	1.02784E-006	0.00000E+000	4.20018E-006	0.00000E+000	4.76517E-004	-3.27672E+002	7	...........
	66	67	4.08643E+000	1.02665E-006	0.00000E+000	4.19535E-006	0.00000E+000	4.78450E-004	-3.27672E+002	7	...........
	67	68	4.08644E+000	1.02675E-006	0.00000E+000	4.19576E-006	0.00000E+000	4.79167E-004	-3.27672E+002	7	...........
	68	69	4.08646E+000	1.02686E-006	0.00000E+000	4.19622E-006	0.00000E+000	4.79050E-004	-3.27672E+002	7	...........
	69	70	4.08647E+000	1.02601E-006	0.00000E+000	4.19274E-006	0.00000E+000	4.76250E-004	-3.27672E+002	7	...........
	70	71	4.08649E+000	1.02531E-006	0.00000E+000	4.18992E-006	0.00000E+000	4.77200E-004	-3.27672E+002	7	...........
	71	72	4.08650E+000	1.02469E-006	0.00000E+000	4.18742E-006	0.00000E+000	4.80100E-004	-3.27672E+002	7	...........
	72	73	4.08652E+000	1.02510E-006	0.00000E+000	4.18910E-006	0.00000E+000	4.80950E-004	-3.27672E+002	7	...........
	73	74	4.08653E+000	1.02555E-006	0.00000E+000	4.19093E-006	0.00000E+000	4.80983E-004	-3.27672E+002	7	...........
	74	75	4.08654E+000	1.02528E-006	0.00000E+000	4.18985E-006	0.00000E+000	4.83183E-004	-3.27672E+002	7	...........
	75	76	4.08656E+000	1.02571E-006	0.00000E+000	4.19164E-006	0.00000E+000	4.83067E-004	-3.27672E+002	7	...........
	76	77	4.08657E+000	1.02558E-006	0.00000E+000	4.19111E-006	0.00000E+000	4.85917E-004	-3.27672E+002	7	...........
	77	78	4.08659E+000	1.02637E-006	0.00000E+000	4.19433E-006	0.00000E+000	4.86050E-004	-3.27672E+002	7	...........
	78	79	4.08661E+000	1.02517E-006	0.00000E+000	4.18949E-006	0.00000E+000	4.85300E-004	-3.27672E+002	7	...........
	79	80	4.08662E+000	1.02585E-006	0.00000E+000	4.19226E-006	0.00000E+000	4.84867E-004	-3.27672E+002	7	...........
	80	81	4.08664E+000	1.02487E-006	0.00000E+000	4.18829E-006	0.00000E+000	4.84633E-004	-3.27672E+002	7	...........
	81	82	4.08665E+000	1.02473E-006	0.00000E+000	4.18771E-006	0.00000E+000	4.88317E-004	-3.27672E+002	7	...........
	82	83	4.08666E+000	1.02441E-006	0.00000E+000	4.18641E-006	0.00000E+000	4.88667E-004	-3.27672E+002	7	...........
	83	84	4.08667E+000	1.02484E-006	0.00000E+000	4.18818E-006	0.00000E+000	4.89267E-004	-3.27672E+002	7	...........
	84	85	4.08668E+000	1.02433E-006	0.00000E+000	4.18611E-006	0.00000E+000	4.92283E-004	-3.27672E+002	7	...........
	85	86	4.08670E+000	1.02439E-006	0.00000E+000	4.18636E-006	0.00000E+000	4.92317E-004	-3.27672E+002	7	...........
	86	87	4.08670E+000	1.02505E-006	0.00000E+000	4.18909E-006	0.00000E+000	4.87817E-004	-3.27672E+002	7	...........
	87	88	4.08672E+000	1.02469E-006	0.00000E+000	4.18763E-006	0.00000E+000	4.91750E-004	-3.27672E+002	7	...........
	88	89	4.08672E+000	1.02397E-006	0.00000E+000	4.18468E-006	0.00000E+000	4.88967E-004	-3.27672E+002	7	...........
	89	90	4.08674E+000	1.02380E-006	0.00000E+000	4.18400E-006	0.00000E+000	4.94683E-004	-3.27672E+002	7	...........
	90	91	4.08675E+000	1.02348E-006	0.00000E+000	4.18270E-006	0.00000E+000	4.97200E-004	-3.27672E+002	7	...........
	91	92	4.08677E+000	1.02392E-006	0.00000E+000	4.18453E-006	0.00000E+000	4.94500E-004	-3.27672E+002	7	...........
	92	93	4.08677E+000	1.02378E-006	0.00000E+000	4.18394E-006	0.00000E+000	4.95767E-004	-3.27672E+002	7	...........
	93	94	4.08678E+000	1.02270E-006	0.00000E+000	4.17956E-006	0.00000E+000	4.94667E-004	-3.27672E+002	7	...........
	94	95	4.08679E+000	1.02266E-006	0.00000E+000	4.17941E-006	0.00000E+000	4.92817E-004	-3.27672E+002	7	...........
	95	96	4.08681E+000	1.02287E-006	0.00000E+000	4.18029E-006	0.00000E+000	4.93633E-004	-3.27672E+002	7	...........
	96	97	4.08681E+000	1.02213E-006	0.00000E+000	4.17727E-006	0.00000E+000	4.95133E-004	-3.27672E+002	7	...........
	97	98	4.08682E+000	1.02270E-006	0.00000E+000	4.17958E-006	0.00000E+000	4.93600E-004	-3.27672E+002	7	...........
	98	99	4.08683E+000	1.02311E-006	0.00000E+000	4.18128E-006	0.00000E+000	4.96133E-004	-3.27672E+002	7	...........
	99	100	4.08684E+000	1.02282E-006	0.00000E+000	4.18011E-006	0.00000E+000	4.93250E-004	-3.27672E+002	7	...........
	100	101	4.08685E+000	1.02291E-006	0.00000E+000	4.18047E-006	0.00000E+000	4.91583E-004	-3.27672E+002	7	...........
	101	102	4.08686E+000	1.02188E-006	0.00000E+000	4.17629E-006	0.00000E+000	4.93567E-004	-3.27672E+002	7	...........
	102	103	4.08686E+000	1.02172E-006	0.00000E+000	4.17563E-006	0.00000E+000	4.95033E-004	-3.27672E+002	7	...........
	103	104	4.08687E+000	1.02196E-006	0.00000E+000	4.17663E-006	0.00000E+000	4.96567E-004	-3.27672E+002	7	...........
	104	105	4.08690E+000	1.02170E-006	0.00000E+000	4.17557E-006	0.00000E+000	4.95283E-004	-3.27672E+002	7	...........
	105	106	4.08690E+000	1.02138E-006	0.00000E+000	4.17427E-006	0.00000E+000	4.98517E-004	-3.27672E+002	7	...........
	106	107	4.08691E+000	1.02128E-006	0.00000E+000	4.17390E-006	0.00000E+000	4.98167E-004	-3.27672E+002	7	...........
	107	108	4.08692E+000	1.02152E-006	0.00000E+000	4.17489E-006	0.00000E+000	4.97050E-004	-3.27672E+002	7	...........
	108	109	4.08693E+000	1.02129E-006	0.00000E+000	4.17395E-006	0.00000E+000	4.97833E-004	-3.27672E+002	7	...........
	109	110	4.08694E+000	1.02132E-006	0.00000E+000	4.17408E-006	0.00000E+000	4.96250E-004	-3.27672E+002	7	...........
	110	111	4.08696E+000	1.02095E-006	0.00000E+000	4.17259E-006	0.00000E+000	4.96950E-004	-3.27672E+002	7	...........
	111	112	4.08696E+000	1.02145E-006	0.00000E+000	4.17464E-006	0.00000E+000	4.97100E-004	-3.27672E+002	7	...........
	112	113	4.08697E+000	1.02078E-006	0.00000E+000	4.17191E-006	0.00000E+000	4.99550E-004	-3.27672E+002	7	...........
	113	114	4.08697E+000	1.02012E-006	0.00000E+000	4.16921E-006	0.00000E+000	4.99083E-004	-3.27672E+002	7	...........
	114	115	4.08699E+000	1.01990E-006	0.00000E+000	4.16833E-006	0.00000E+000	4.99750E-004	-3.27672E+002	7	...........
	115	116	4.08700E+000	1.01975E-006	0.00000E+000	4.16771E-006	0.00000E+000	4.99283E-004	-3.27672E+002	7	...........
	116	117	4.08701E+000	1.01946E-006	0.00000E+000	4.16654E-006	0.00000E+000	4.99650E-004	-3.27672E+002	7	...........
	117	118	4.08702E+000	1.01919E-006	0.00000E+000	4.16546E-006	0.00000E+000	4.98767E-004	-3.27672E+002	7	...........
	118	119	4.08703E+000	1.01960E-006	0.00000E+000	4.16712E-006	0.00000E+000	4.98600E-004	-3.27672E+002	7	...........
	119	120	4.08703E+000	1.01903E-006	0.00000E+000	4.16479E-006	0.00000E+000	5.00050E-004	-3.27672E+002	7	...........
	120	121	4.08703E+000	1.01957E-006	0.00000E+000	4.16700E-006	0.00000E+000	4.96650E-004	-3.27672E+002	7	...........
	121	122	4.08704E+000	1.01960E-006	0.00000E+000	4.16716E-006	0.00000E+000	4.98417E-004	-3.27672E+002	7	...........
	122	123	4.08705E+000	1.02004E-006	0.00000E+000	4.16894E-006	0.00000E+000	4.98500E-004	-3.27672E+002	7	...........
	123	124	4.08706E+000	1.01908E-006	0.00000E+000	4.16505E-006	0.00000E+000	4.99050E-004	-3.27672E+002	7	...........
	124	125	4.08708E+000	1.01927E-006	0.00000E+000	4.16585E-006	0.00000E+000	4.97883E-004	-3.27672E+002	7	...........
	125	126	4.08708E+000	1.01919E-006	0.00000E+000	4.16550E-006	0.00000E+000	4.98200E-004	-3.27672E+002	7	...........
	126	127	4.08709E+000	1.01923E-006	0.00000E+000	4.16568E-006	0.00000E+000	4.99233E-004	-3.27672E+002	7	...........
	127	128	4.08709E+000	1.01946E-006	0.00000E+000	4.16664E-006	0.00000E+000	4.95900E-004	-3.27672E+002	7	...........
	128	129	4.08710E+000	1.01927E-006	0.00000E+000	4.16586E-006	0.00000E+000	4.98183E-004	-3.27672E+002	7	...........
	129	130	4.08711E+000	1.01895E-006	0.00000E+000	4.16457E-006	0.00000E+000	4.98917E-004	-3.27672E+002	7	...........
	130	131	4.08712E+000	1.01945E-006	0.00000E+000	4.16663E-006	0.00000E+000	4.99617E-004	-3.27672E+002	7	...........
	131	132	4.08713E+000	1.01874E-006	0.00000E+000	4.16372E-006	0.00000E+000	4.99317E-004	-3.27672E+002	7	...........
	132	133	4.08713E+000	1.02009E-006	0.00000E+000	4.16926E-006	0.00000E+000	4.99083E-004	-3.27672E+002	7	...........
	133	134	4.08713E+000	1.01898E-006	0.00000E+000	4.16469E-006	0.00000E+000	4.99133E-004	-3.27672E+002	7	...........
	134	135	4.08715E+000	1.01924E-006	0.00000E+000	4.16580E-006	0.00000E+000	4.97550E-004	-3.27672E+002	7	...........
	135	136	4.08716E+000	1.01904E-006	0.00000E+000	4.16497E-006	0.00000E+000	4.96800E-004	-3.27672E+002	7	...........
	136	137	4.08717E+000	1.01819E-006	0.00000E+000	4.16153E-006	0.00000E+000	4.98933E-004	-3.27672E+002	7	...........
	137	138	4.08717E+000	1.01794E-006	0.00000E+000	4.16050E-006	0.00000E+000	4.98700E-004	-3.27672E+002	7	...........
	138	139	4.08718E+000	1.01804E-006	0.00000E+000	4.16093E-006	0.00000E+000	4.99000E-004	-3.27672E+002	7	...........
	139	140	4.08718E+000	1.01752E-006	0.00000E+000	4.15878E-006	0.00000E+000	4.98083E-004	-3.27672E+002	7	...........
	140	141	4.08720E+000	1.01693E-006	0.00000E+000	4.15638E-006	0.00000E+000	4.98317E-004	-3.27672E+002	7	...........
	141	142	4.08721E+000	1.01745E-006	0.00000E+000	4.15853E-006	0.00000E+000	4.98267E-004	-3.27672E+002	7	...........
	142	143	4.08722E+000	1.01808E-006	0.00000E+000	4.16110E-006	0.00000E+000	5.00450E-004	-3.27672E+002	7	...........
	143	144	4.08722E+000	1.01787E-006	0.00000E+000	4.16028E-006	0.00000E+000	4.96983E-004	-3.27672E+002	7	...........
	144	145	4.08723E+000	1.01912E-006	0.00000E+000	4.16540E-006	0.00000E+000	4.98333E-004	-3.27672E+002	7	...........
	145	146	4.08724E+000	1.01841E-006	0.00000E+000	4.16248E-006	0.00000E+000	4.99333E-004	-3.27672E+002	7	...........
	146	147	4.08724E+000	1.01802E-006	0.00000E+000	4.16091E-006	0.00000E+000	4.98267E-004	-3.27672E+002	7	...........
	147	148	4.08725E+000	1.01782E-006	0.00000E+000	4.16010E-006	0.00000E+000	4.96800E-004	-3.27672E+002	7	...........
	148	149	4.08726E+000	1.01818E-006	0.00000E+000	4.16157E-006	0.00000E+000	4.97283E-004	-3.27672E+002	7	...........
	149	150	4.08727E+000	1.01782E-006	0.00000E+000	4.16012E-006	0.00000E+000	4.95217E-004	-3.27672E+002	7	...........
	150	151	4.08728E+000	1.01763E-006	0.00000E+000	4.15934E-006	0.00000E+000	4.98317E-004	-3.27672E+002	7	...........
	151	152	4.08729E+000	1.01742E-006	0.00000E+000	4.15849E-006	0.00000E+000	4.95483E-004	-3.27672E+002	7	...........
	152	153	4.08729E+000	1.01715E-006	0.00000E+000	4.15737E-006	0.00000E+000	4.96900E-004	-3.27672E+002	7	...........
	153	154	4.08731E+000	1.01798E-006	0.00000E+000	4.16082E-006	0.00000E+000	4.98267E-004	-3.27672E+002	7	...........
	154	155	4.08731E+000	1.01843E-006	0.00000E+000	4.16266E-006	0.00000E+000	4.94717E-004	-3.27672E+002	7	...........
	155	156	4.08730E+000	1.01784E-006	0.00000E+000	4.16024E-006	0.00000E+000	4.96050E-004	-3.27672E+002	7	...........
	156	157	4.08733E+000	1.01799E-006	0.00000E+000	4.16085E-006	0.00000E+000	4.97833E-004	-3.27672E+002	7	...........
	157	158	4.08733E+000	1.01804E-006	0.00000E+000	4.16107E-006	0.00000E+000	4.96050E-004	-3.27672E+002	7	...........
	158	159	4.08734E+000	1.01769E-006	0.00000E+000	4.15965E-006	0.00000E+000	4.94817E-004	-3.27672E+002	7	...........
	159	160	4.08735E+000	1.01736E-006	0.00000E+000	4.15829E-006	0.00000E+000	4.94867E-004	-3.27672E+002	7	...........
	160	161	4.08736E+000	1.01646E-006	0.00000E+000	4.15464E-006	0.00000E+000	4.97583E-004	-3.27672E+002	7	...........
	161	162	4.08736E+000	1.01659E-006	0.00000E+000	4.15517E-006	0.00000E+000	4.96117E-004	-3.27672E+002	7	...........
	162	163	4.08737E+000	1.01637E-006	0.00000E+000	4.15429E-006	0.00000E+000	4.95700E-004	-3.27672E+002	7	...........
	163	164	4.08738E+000	1.01658E-006	0.00000E+000	4.15515E-006	0.00000E+000	4.96150E-004	-3.27672E+002	7	...........
	164	165	4.08738E+000	1.01665E-006	0.00000E+000	4.15542E-006	0.00000E+000	4.97133E-004	-3.27672E+002	7	...........
	165	166	4.08740E+000	1.01741E-006	0.00000E+000	4.15857E-006	0.00000E+000	4.92867E-004	-3.27672E+002	7	...........
	166	167	4.08739E+000	1.01753E-006	0.00000E+000	4.15904E-006	0.00000E+000	4.96067E-004	-3.27672E+002	7	...........
	167	168	4.08740E+000	1.01762E-006	0.00000E+000	4.15942E-006	0.00000E+000	4.94750E-004	-3.27672E+002	7	...........
	168	169	4.08741E+000	1.01643E-006	0.00000E+000	4.15457E-006	0.00000E+000	4.92367E-004	-3.27672E+002	7	...........
	169	170	4.08741E+000	1.01674E-006	0.00000E+000	4.15583E-006	0.00000E+000	4.95500E-004	-3.27672E+002	7	...........
	170	171	4.08741E+000	1.01719E-006	0.00000E+000	4.15768E-006	0.00000E+000	4.91917E-004	-3.27672E+002	7	...........
	171	172	4.08742E+000	1.01644E-006	0.00000E+000	4.15462E-006	0.00000E+000	4.92350E-004	-3.27672E+002	7	...........
	172	173	4.08743E+000	1.01707E-006	0.00000E+000	4.15720E-006	0.00000E+000	4.95183E-004	-3.27672E+002	7	...........
	173	174	4.08743E+000	1.01620E-006	0.00000E+000	4.15366E-006	0.00000E+000	4.91350E-004	-3.27672E+002	7	...........
	174	175	4.08745E+000	1.01639E-006	0.00000E+000	4.15442E-006	0.00000E+000	4.91350E-004	-3.27672E+002	7	...........
	175	176	4.08745E+000	1.01666E-006	0.00000E+000	4.15555E-006	0.00000E+000	4.89650E-004	-3.27672E+002	7	...........
	176	177	4.08747E+000	1.01692E-006	0.00000E+000	4.15661E-006	0.00000E+000	4.92183E-004	-3.27672E+002	7	...........
	177	178	4.08747E+000	1.01711E-006	0.00000E+000	4.15741E-006	0.00000E+000	4.87783E-004	-3.27672E+002	7	...........
	178	179	4.08747E+000	1.01718E-006	0.00000E+000	4.15770E-006	0.00000E+000	4.90550E-004	-3.27672E+002	7	...........
	179	180	4.08747E+000	1.01769E-006	0.00000E+000	4.15978E-006	0.00000E+000	4.90400E-004	-3.27672E+002	7	...........
	180	181	4.08748E+000	1.01736E-006	0.00000E+000	4.15846E-006	0.00000E+000	4.93667E-004	-3.27672E+002	7	...........
	181	182	4.08750E+000	1.01683E-006	0.00000E+000	4.15627E-006	0.00000E+000	4.92333E-004	-3.27672E+002	7	...........
	182	183	4.08750E+000	1.01646E-006	0.00000E+000	4.15480E-006	0.00000E+000	4.90633E-004	-3.27672E+002	7	...........
	183	184	4.08750E+000	1.01667E-006	0.00000E+000	4.15562E-006	0.00000E+000	4.88650E-004	-3.27672E+002	7	...........
	184	185	4.08750E+000	1.01562E-006	0.00000E+000	4.15135E-006	0.00000E+000	4.88900E-004	-3.27672E+002	7	...........
	185	186	4.08752E+000	1.01589E-006	0.00000E+000	4.15247E-006	0.00000E+000	4.90033E-004	-3.27672E+002	7	...........
	186	187	4.08752E+000	1.01556E-006	0.00000E+000	4.15110E-006	0.00000E+000	4.88500E-004	-3.27672E+002	7	...........
	187	188	4.08752E+000	1.01558E-006	0.00000E+000	4.15121E-006	0.00000E+000	4.86917E-004	-3.27672E+002	7	...........
	188	189	4.08752E+000	1.01520E-006	0.00000E+000	4.14967E-006	0.00000E+000	4.91233E-004	-3.27672E+002	7	...........
	189	190	4.08753E+000	1.01579E-006	0.00000E+000	4.15206E-006	0.00000E+000	4.86700E-004	-3.27672E+002	7	...........
	190	191	4.08754E+000	1.01696E-006	0.00000E+000	4.15688E-006	0.00000E+000	4.89150E-004	-3.27672E+002	7	...........
	191	192	4.08755E+000	1.01612E-006	0.00000E+000	4.15344E-006	0.00000E+000	4.90267E-004	-3.27672E+002	7	...........
	192	193	4.08755E+000	1.01589E-006	0.00000E+000	4.15252E-006	0.00000E+000	4.87800E-004	-3.27672E+002	7	...........
	193	194	4.08756E+000	1.01606E-006	0.00000E+000	4.15319E-006	0.00000E+000	4.87467E-004	-3.27672E+002	7	...........
	194	195	4.08757E+000	1.01496E-006	0.00000E+000	4.14872E-006	0.00000E+000	4.90483E-004	-3.27672E+002	7	...........
	195	196	4.08757E+000	1.01605E-006	0.00000E+000	4.15317E-006	0.00000E+000	4.86700E-004	-3.27672E+002	7	...........
	196	197	4.08757E+000	1.01569E-006	0.00000E+000	4.15171E-006	0.00000E+000	4.87900E-004	-3.27672E+002	7	...........
	197	198	4.08757E+000	1.01514E-006	0.00000E+000	4.14947E-006	0.00000E+000	4.88700E-004	-3.27672E+002	7	...........
	198	199	4.08759E+000	1.01601E-006	0.00000E+000	4.15305E-006	0.00000E+000	4.87017E-004	-3.27672E+002	7	...........
	199	200	4.08759E+000	1.01565E-006	0.00000E+000	4.15156E-006	0.00000E+000	4.88167E-004	-3.27672E+002	7	...........
	200	201	4.08760E+000	1.01557E-006	0.00000E+000	4.15126E-006	0.00000E+000	4.90000E-004	-3.27672E+002	7	...........
	201	202	4.08760E+000	1.01528E-006	0.00000E+000	4.15006E-006	0.00000E+000	4.91750E-004	-3.27672E+002	7	...........
	202	203	4.08761E+000	1.01443E-006	0.00000E+000	4.14658E-006	0.00000E+000	4.90717E-004	-3.27672E+002	7	...........
	203	204	4.08760E+000	1.01416E-006	0.00000E+000	4.14547E-006	0.00000E+000	4.88800E-004	-3.27672E+002	7	...........
	204	205	4.08760E+000	1.01384E-006	0.00000E+000	4.14418E-006	0.00000E+000	4.89833E-004	-3.27672E+002	7	...........
	205	206	4.08762E+000	1.01442E-006	0.00000E+000	4.14655E-006	0.00000E+000	4.88067E-004	-3.27672E+002	7	...........
	206	207	4.08763E+000	1.01388E-006	0.00000E+000	4.14436E-006	0.00000E+000	4.86683E-004	-3.27672E+002	7	...........
	207	208	4.08763E+000	1.01453E-006	0.00000E+000	4.14702E-006	0.00000E+000	4.87367E-004	-3.27672E+002	7	...........
	208	209	4.08764E+000	1.01401E-006	0.00000E+000	4.14490E-006	0.00000E+000	4.88017E-004	-3.27672E+002	7	...........
	209	210	4.08763E+000	1.01408E-006	0.00000E+000	4.14517E-006	0.00000E+000	4.89267E-004	-3.27672E+002	7	...........
	210	211	4.08764E+000	1.01500E-006	0.00000E+000	4.14894E-006	0.00000E+000	4.86067E-004	-3.27672E+002	7	...........
	211	212	4.08766E+000	1.01419E-006	0.00000E+000	4.14566E-006	0.00000E+000	4.83900E-004	-3.27672E+002	7	...........
	212	213	4.08766E+000	1.01456E-006	0.00000E+000	4.14717E-006	0.00000E+000	4.85667E-004	-3.27672E+002	7	...........
	213	214	4.08766E+000	1.01444E-006	0.00000E+000	4.14671E-006	0.00000E+000	4.87083E-004	-3.27672E+002	7	...........
	214	215	4.08766E+000	1.01448E-006	0.00000E+000	4.14684E-006	0.00000E+000	4.86083E-004	-3.27672E+002	7	...........
	215	216	4.08767E+000	1.01353E-006	0.00000E+000	4.14296E-006	0.00000E+000	4.85067E-004	-3.27672E+002	7	...........
	216	217	4.08768E+000	1.01438E-006	0.00000E+000	4.14645E-006	0.00000E+000	4.87550E-004	-3.27672E+002	7	...........
	217	218	4.08768E+000	1.01457E-006	0.00000E+000	4.14725E-006	0.00000E+000	4.85083E-004	-3.27672E+002	7	...........
	218	219	4.08769E+000	1.01479E-006	0.00000E+000	4.14816E-006	0.00000E+000	4.84833E-004	-3.27672E+002	7	...........
	219	220	4.08768E+000	1.01500E-006	0.00000E+000	4.14898E-006	0.00000E+000	4.86583E-004	-3.27672E+002	7	...........
	220	221	4.08769E+000	1.01494E-006	0.00000E+000	4.14877E-006	0.00000E+000	4.83050E-004	-3.27672E+002	7	...........
	221	222	4.08770E+000	1.01452E-006	0.00000E+000	4.14704E-006	0.00000E+000	4.84183E-004	-3.27672E+002	7	...........
	222	223	4.08770E+000	1.01466E-006	0.00000E+000	4.14761E-006	0.00000E+000	4.82467E-004	-3.27672E+002	7	...........
	223	224	4.08771E+000	1.01415E-006	0.00000E+000	4.14556E-006	0.00000E+000	4.82433E-004	-3.27672E+002	7	...........
	224	225	4.08771E+000	1.01449E-006	0.00000E+000	4.14695E-006	0.00000E+000	4.82267E-004	-3.27672E+002	7	...........
	225	226	4.08772E+000	1.01404E-006	0.00000E+000	4.14512E-006	0.00000E+000	4.83967E-004	-3.27672E+002	7	...........
	226	227	4.08773E+000	1.01379E-006	0.00000E+000	4.14409E-006	0.00000E+000	4.84950E-004	-3.27672E+002	7	...........
	227	228	4.08774E+000	1.01383E-006	0.00000E+000	4.14425E-006	0.00000E+000	4.84100E-004	-3.27672E+002	7	...........
	228	229	4.08774E+000	1.01437E-006	0.00000E+000	4.14648E-006	0.00000E+000	4.83933E-004	-3.27672E+002	7	...........
	229	230	4.08773E+000	1.01456E-006	0.00000E+000	4.14727E-006	0.00000E+000	4.84650E-004	-3.27672E+002	7	...........
	230	231	4.08775E+000	1.01416E-006	0.00000E+000	4.14562E-006	0.00000E+000	4.84183E-004	-3.27672E+002	7	...........
	231	232	4.08775E+000	1.01404E-006	0.00000E+000	4.14514E-006	0.00000E+000	4.85967E-004	-3.27672E+002	7	...........
	232	233	4.08775E+000	1.01438E-006	0.00000E+000	4.14654E-006	0.00000E+000	4.84667E-004	-3.27672E+002	7	...........
	233	234	4.08775E+000	1.01475E-006	0.00000E+000	4.14805E-006	0.00000E+000	4.83783E-004	-3.27672E+002	7	...........
	234	235	4.08775E+000	1.01463E-006	0.00000E+000	4.14756E-006	0.00000E+000	4.84567E-004	-3.27672E+002	7	...........
	235	236	4.08776E+000	1.01548E-006	0.00000E+000	4.15103E-006	0.00000E+000	4.81200E-004	-3.27672E+002	7	...........
	236	237	4.08776E+000	1.01446E-006	0.00000E+000	4.14687E-006	0.00000E+000	4.82783E-004	-3.27672E+002	7	...........
	237	238	4.08777E+000	1.01354E-006	0.00000E+000	4.14310E-006	0.00000E+000	4.83267E-004	-3.27672E+002	7	...........
	238	239	4.08777E+000	1.01353E-006	0.00000E+000	4.14308E-006	0.00000E+000	4.82250E-004	-3.27672E+002	7	...........
	239	240	4.08777E+000	1.01355E-006	0.00000E+000	4.14316E-006	0.00000E+000	4.83533E-004	-3.27672E+002	7	...........
	240	241	4.08778E+000	1.01409E-006	0.00000E+000	4.14539E-006	0.00000E+000	4.82683E-004	-3.27672E+002	7	...........
	241	242	4.08779E+000	1.01411E-006	0.00000E+000	4.14548E-006	0.00000E+000	4.83033E-004	-3.27672E+002	7	...........
	242	243	4.08780E+000	1.01405E-006	0.00000E+000	4.14524E-006	0.00000E+000	4.81517E-004	-3.27672E+002	7	...........
	243	244	4.08780E+000	1.01395E-006	0.00000E+000	4.14483E-006	0.00000E+000	4.80983E-004	-3.27672E+002	7	...........
	244	245	4.08781E+000	1.01419E-006	0.00000E+000	4.14582E-006	0.00000E+000	4.81350E-004	-3.27672E+002	7	...........
	245	246	4.08780E+000	1.01367E-006	0.00000E+000	4.14368E-006	0.00000E+000	4.79733E-004	-3.27672E+002	7	...........
	246	247	4.08780E+000	1.01332E-006	0.00000E+000	4.14226E-006	0.00000E+000	4.81983E-004	-3.27672E+002	7	...........
	247	248	4.08781E+000	1.01315E-006	0.00000E+000	4.14157E-006	0.00000E+000	4.82100E-004	-3.27672E+002	7	...........
	248	249	4.08782E+000	1.01346E-006	0.00000E+000	4.14282E-006	0.00000E+000	4.81600E-004	-3.27672E+002	7	...........
	249	250	4.08782E+000	1.01365E-006	0.00000E+000	4.14361E-006	0.00000E+000	4.83417E-004	-3.27672E+002	7	...........
	250	251	4.08783E+000	1.01350E-006	0.00000E+000	4.14301E-006	0.00000E+000	4.82750E-004	-3.27672E+002	7	...........
	251	252	4.08782E+000	1.01308E-006	0.00000E+000	4.14130E-006	0.00000E+000	4.81100E-004	-3.27672E+002	7	...........
	252	253	4.08783E+000	1.01323E-006	0.00000E+000	4.14190E-006	0.00000E+000	4.83450E-004	-3.27672E+002	7	...........
	253	254	4.08782E+000	1.01371E-006	0.00000E+000	4.14388E-006	0.00000E+000	4.81367E-004	-3.27672E+002	7	...........
	254	255	4.08783E+000	1.01359E-006	0.00000E+000	4.14338E-006	0.00000E+000	4.84083E-004	-3.27672E+002	7	...........
	255	256	4.08784E+000	1.01372E-006	0.00000E+000	4.14391E-006	0.00000E+000	4.81600E-004	-3.27672E+002	7	...........
	256	257	4.08785E+000	1.01352E-006	0.00000E+000	4.14311E-006	0.00000E+000	4.83250E-004	-3.27672E+002	7	...........
	257	258	4.08784E+000	1.01449E-006	0.00000E+000	4.14710E-006	0.00000E+000	4.82067E-004	-3.27672E+002	7	...........
	258	259	4.08785E+000	1.01385E-006	0.00000E+000	4.14448E-006	0.00000E+000	4.80683E-004	-3.27672E+002	7	...........
	259	260	4.08786E+000	1.01161E-006	0.00000E+000	4.13531E-006	0.00000E+000	4.82033E-004	-3.27672E+002	7	...........
	260	261	4.08786E+000	1.01200E-006	0.00000E+000	4.13692E-006	0.00000E+000	4.80867E-004	-3.27672E+002	7	...........
	261	262	4.08786E+000	1.01152E-006	0.00000E+000	4.13494E-006	0.00000E+000	4.80100E-004	-3.27672E+002	7	...........
	262	263	4.08786E+000	1.01223E-006	0.00000E+000	4.13784E-006	0.00000E+000	4.79000E-004	-3.27672E+002	7	...........
	263	264	4.08787E+000	1.01257E-006	0.00000E+000	4.13927E-006	0.00000E+000	4.78433E-004	-3.27672E+002	7	...........
	264	265	4.08788E+000	1.01272E-006	0.00000E+000	4.13989E-006	0.00000E+000	4.79967E-004	-3.27672E+002	7	...........
	265	266	4.08787E+000	1.01275E-006	0.00000E+000	4.13998E-006	0.00000E+000	4.79350E-004	-3.27672E+002	7	...........
	266	267	4.08788E+000	1.01300E-006	0.00000E+000	4.14101E-006	0.00000E+000	4.82217E-004	-3.27672E+002	7	...........
	267	268	4.08788E+000	1.01297E-006	0.00000E+000	4.14090E-006	0.00000E+000	4.78783E-004	-3.27672E+002	7	...........
	268	269	4.08788E+000	1.01251E-006	0.00000E+000	4.13903E-006	0.00000E+000	4.79567E-004	-3.27672E+002	7	...........
	269	270	4.08789E+000	1.01209E-006	0.00000E+000	4.13730E-006	0.00000E+000	4.78600E-004	-3.27672E+002	7	...........
	270	271	4.08789E+000	1.01177E-006	0.00000E+000	4.13601E-006	0.00000E+000	4.79650E-004	-3.27672E+002	7	...........
	271	272	4.08791E+000	1.01189E-006	0.00000E+000	4.13651E-006	0.00000E+000	4.80117E-004	-3.27672E+002	7	...........
	272	273	4.08790E+000	1.01163E-006	0.00000E+000	4.13543E-006	0.00000E+000	4.79033E-004	-3.27672E+002	7	...........
	273	274	4.08790E+000	1.01098E-006	0.00000E+000	4.13280E-006	0.00000E+000	4.78150E-004	-3.27672E+002	7	...........
	274	275	4.08792E+000	1.01094E-006	0.00000E+000	4.13263E-006	0.00000E+000	4.79717E-004	-3.27672E+002	7	...........
	275	276	4.08791E+000	1.01151E-006	0.00000E+000	4.13496E-006	0.00000E+000	4.78517E-004	-3.27672E+002	7	...........
	276	277	4.08792E+000	1.01171E-006	0.00000E+000	4.13577E-006	0.00000E+000	4.77533E-004	-3.27672E+002	7	...........
	277	278	4.08792E+000	1.01137E-006	0.00000E+000	4.13439E-006	0.00000E+000	4.78517E-004	-3.27672E+002	7	...........
	278	279	4.08793E+000	1.01222E-006	0.00000E+000	4.13791E-006	0.00000E+000	4.76800E-004	-3.27672E+002	7	...........
	279	280	4.08793E+000	1.01210E-006	0.00000E+000	4.13741E-006	0.00000E+000	4.77150E-004	-3.27672E+002	7	...........
	280	281	4.08793E+000	1.01234E-006	0.00000E+000	4.13839E-006	0.00000E+000	4.80767E-004	-3.27672E+002	7	...........
	281	282	4.08793E+000	1.01213E-006	0.00000E+000	4.13751E-006	0.00000E+000	4.76350E-004	-3.27672E+002	7	...........
	282	283	4.08793E+000	1.01166E-006	0.00000E+000	4.13561E-006	0.00000E+000	4.77333E-004	-3.27672E+002	7	...........
	283	284	4.08795E+000	1.01168E-006	0.00000E+000	4.13571E-006	0.00000E+000	4.76783E-004	-3.27672E+002	7	...........
	284	285	4.08795E+000	1.01095E-006	0.00000E+000	4.13271E-006	0.00000E+000	4.81933E-004	-3.27672E+002	7	...........
	285	286	4.08795E+000	1.01138E-006	0.00000E+000	4.13448E-006	0.00000E+000	4.76100E-004	-3.27672E+002	7	...........
	286	287	4.08795E+000	1.01148E-006	0.00000E+000	4.13490E-006	0.00000E+000	4.76983E-004	-3.27672E+002	7	...........
	287	288	4.08795E+000	1.01193E-006	0.00000E+000	4.13672E-006	0.00000E+000	4.76133E-004	-3.27672E+002	7	...........
	288	289	4.08796E+000	1.01252E-006	0.00000E+000	4.13912E-006	0.00000E+000	4.77917E-004	-3.27672E+002	7	...........
	289	290	4.08796E+000	1.01184E-006	0.00000E+000	4.13634E-006	0.00000E+000	4.75433E-004	-3.27672E+002	7	...........
	290	291	4.08797E+000	1.01228E-006	0.00000E+000	4.13816E-006	0.00000E+000	4.76533E-004	-3.27672E+002	7	...........
	291	292	4.08798E+000	1.01153E-006	0.00000E+000	4.13510E-006	0.00000E+000	4.79383E-004	-3.27672E+002	7	...........
	292	293	4.08799E+000	1.01174E-006	0.00000E+000	4.13598E-006	0.00000E+000	4.77017E-004	-3.27672E+002	7	...........
	293	294	4.08799E+000	1.01081E-006	0.00000E+000	4.13217E-006	0.00000E+000	4.77350E-004	-3.27672E+002	7	...........
	294	295	4.08798E+000	1.01113E-006	0.00000E+000	4.13348E-006	0.00000E+000	4.78133E-004	-3.27672E+002	7	...........
	295	296	4.08798E+000	1.01076E-006	0.00000E+000	4.13195E-006	0.00000E+000	4.80167E-004	-3.27672E+002	7	...........
	296	297	4.08799E+000	1.01089E-006	0.00000E+000	4.13251E-006	0.00000E+000	4.79517E-004	-3.27672E+002	7	...........
	297	298	4.08799E+000	1.01024E-006	0.00000E+000	4.12987E-006	0.00000E+000	4.77517E-004	-3.27672E+002	7	...........
	298	299	4.08800E+000	1.01009E-006	0.00000E+000	4.12926E-006	0.00000E+000	4.76233E-004	-3.27672E+002	7	...........
	299	300	4.08800E+000	1.01084E-006	0.00000E+000	4.13229E-006	0.00000E+000	4.80100E-004	-3.27672E+002	7	...........
	300	301	4.08800E+000	1.01095E-006	0.00000E+000	4.13278E-006	0.00000E+000	4.76733E-004	-3.27672E+002	7	...........
	301	302	4.08801E+000	1.01157E-006	0.00000E+000	4.13529E-006	0.00000E+000	4.81050E-004	-3.27672E+002	7	...........
	302	303	4.08801E+000	1.01235E-006	0.00000E+000	4.13848E-006	0.00000E+000	4.79117E-004	-3.27672E+002	7	...........
	303	304	4.08801E+000	1.01209E-006	0.00000E+000	4.13745E-006	0.00000E+000	4.79883E-004	-3.27672E+002	7	...........
	304	305	4.08802E+000	1.01039E-006	0.00000E+000	4.13050E-006	0.00000E+000	4.77983E-004	-3.27672E+002	7	...........
	305	306	4.08802E+000	1.01040E-006	0.00000E+000	4.13052E-006	0.00000E+000	4.76967E-004	-3.27672E+002	7	...........
	306	307	4.08803E+000	1.00970E-006	0.00000E+000	4.12768E-006	0.00000E+000	4.79667E-004	-3.27672E+002	7	...........
	307	308	4.08803E+000	1.01068E-006	0.00000E+000	4.13171E-006	0.00000E+000	4.78483E-004	-3.27672E+002	7	...........
	308	309	4.08803E+000	1.00969E-006	0.00000E+000	4.12763E-006	0.00000E+000	4.78150E-004	-3.27672E+002	7	...........
	309	310	4.08803E+000	1.01029E-006	0.00000E+000	4.13009E-006	0.00000E+000	4.79183E-004	-3.27672E+002	7	...........
	310	311	4.08804E+000	1.00992E-006	0.00000E+000	4.12860E-006	0.00000E+000	4.78483E-004	-3.27672E+002	7	...........
	311	312	4.08804E+000	1.01013E-006	0.00000E+000	4.12945E-006	0.00000E+000	4.79333E-004	-3.27672E+002	7	...........
	312	313	4.08804E+000	1.00985E-006	0.00000E+000	4.12831E-006	0.00000E+000	4.76783E-004	-3.27672E+002	7	...........
	313	314	4.08804E+000	1.00974E-006	0.00000E+000	4.12784E-006	0.00000E+000	4.76550E-004	-3.27672E+002	7	...........
	314	315	4.08805E+000	1.00964E-006	0.00000E+000	4.12747E-006	0.00000E+000	4.75750E-004	-3.27672E+002	7	...........
	315	316	4.08805E+000	1.01020E-006	0.00000E+000	4.12976E-006	0.00000E+000	4.77183E-004	-3.27672E+002	7	...........
	316	317	4.08806E+000	1.00969E-006	0.00000E+000	4.12767E-006	0.00000E+000	4.78000E-004	-3.27672E+002	7	...........
	317	318	4.08805E+000	1.00931E-006	0.00000E+000	4.12610E-006	0.00000E+000	4.80667E-004	-3.27672E+002	7	...........
	318	319	4.08805E+000	1.00950E-006	0.00000E+000	4.12690E-006	0.00000E+000	4.79083E-004	-3.27672E+002	7	...........
	319	320	4.08805E+000	1.00954E-006	0.00000E+000	4.12706E-006	0.00000E+000	4.79050E-004	-3.27672E+002	7	...........
	320	321	4.08806E+000	1.00949E-006	0.00000E+000	4.12684E-006	0.00000E+000	4.77233E-004	-3.27672E+002	7	...........
	321	322	4.08807E+000	1.00984E-006	0.00000E+000	4.12830E-006	0.00000E+000	4.80683E-004	-3.27672E+002	7	...........
	322	323	4.08806E+000	1.00986E-006	0.00000E+000	4.12837E-006	0.00000E+000	4.79367E-004	-3.27672E+002	7	...........
	323	324	4.08806E+000	1.01010E-006	0.00000E+000	4.12936E-006	0.00000E+000	4.77683E-004	-3.27672E+002	7	...........
	324	325	4.08807E+000	1.00953E-006	0.00000E+000	4.12703E-006	0.00000E+000	4.78900E-004	-3.27672E+002	7	...........
	325	326	4.08807E+000	1.01030E-006	0.00000E+000	4.13019E-006	0.00000E+000	4.77700E-004	-3.27672E+002	7	...........
	326	327	4.08807E+000	1.01039E-006	0.00000E+000	4.13056E-006	0.00000E+000	4.78483E-004	-3.27672E+002	7	...........
	327	328	4.08807E+000	1.00956E-006	0.00000E+000	4.12717E-006	0.00000E+000	4.80117E-004	-3.27672E+002	7	...........
	328	329	4.08809E+000	1.01014E-006	0.00000E+000	4.12953E-006	0.00000E+000	4.79850E-004	-3.27672E+002	7	...........
	329	330	4.08808E+000	1.00933E-006	0.00000E+000	4.12621E-006	0.00000E+000	4.78417E-004	-3.27672E+002	7	...........
	330	331	4.08808E+000	1.00927E-006	0.00000E+000	4.12597E-006	0.00000E+000	4.76300E-004	-3.27672E+002	7	...........
	331	332	4.08808E+000	1.01020E-006	0.00000E+000	4.12977E-006	0.00000E+000	4.80700E-004	-3.27672E+002	7	...........
	332	333	4.08809E+000	1.01069E-006	0.00000E+000	4.13179E-006	0.00000E+000	4.79400E-004	-3.27672E+002	7	...........
	333	334	4.08808E+000	1.01092E-006	0.00000E+000	4.13275E-006	0.00000E+000	4.79533E-004	-3.27672E+002	7	...........
	334	335	4.08809E+000	1.01026E-006	0.00000E+000	4.13004E-006	0.00000E+000	4.79500E-004	-3.27672E+002	7	...........
	335	336	4.08809E+000	1.00999E-006	0.00000E+000	4.12893E-006	0.00000E+000	4.80500E-004	-3.27672E+002	7	...........
	336	337	4.08809E+000	1.01017E-006	0.00000E+000	4.12966E-006	0.00000E+000	4.74667E-004	-3.27672E+002	7	...........
	337	338	4.08810E+000	1.00970E-006	0.00000E+000	4.12774E-006	0.00000E+000	4.74117E-004	-3.27672E+002	7	...........
	338	339	4.08810E+000	1.01013E-006	0.00000E+000	4.12952E-006	0.00000E+000	4.79100E-004	-3.27672E+002	7	...........
	339	340	4.08811E+000	1.00928E-006	0.00000E+000	4.12604E-006	0.00000E+000	4.77683E-004	-3.27672E+002	7	...........
	340	341	4.08810E+000	1.00970E-006	0.00000E+000	4.12776E-006	0.00000E+000	4.77517E-004	-3.27672E+002	7	...........
	341	342	4.08811E+000	1.00948E-006	0.00000E+000	4.12687E-006	0.00000E+000	4.77000E-004	-3.27672E+002	7	...........
	342	343	4.08811E+000	1.00852E-006	0.00000E+000	4.12294E-006	0.00000E+000	4.77850E-004	-3.27672E+002	7	...........
	343	344	4.08811E+000	1.00905E-006	0.00000E+000	4.12512E-006	0.00000E+000	4.76233E-004	-3.27672E+002	7	...........
	344	345	4.08811E+000	1.00938E-006	0.00000E+000	4.12646E-006	0.00000E+000	4.78833E-004	-3.27672E+002	7	...........
	345	346	4.08812E+000	1.00991E-006	0.00000E+000	4.12864E-006	0.00000E+000	4.73383E-004	-3.27672E+002	7	...........
	346	347	4.08812E+000	1.00985E-006	0.00000E+000	4.12839E-006	0.00000E+000	4.73117E-004	-3.27672E+002	7	...........
	347	348	4.08812E+000	1.01012E-006	0.00000E+000	4.12949E-006	0.00000E+000	4.76517E-004	-3.27672E+002	7	...........
	348	349	4.08812E+000	1.00964E-006	0.00000E+000	4.12753E-006	0.00000E+000	4.76767E-004	-3.27672E+002	7	...........
	349	350	4.08812E+000	1.00955E-006	0.00000E+000	4.12716E-006	0.00000E+000	4.76333E-004	-3.27672E+002	7	...........
	350	351	4.08814E+000	1.00897E-006	0.00000E+000	4.12481E-006	0.00000E+000	4.77800E-004	-3.27672E+002	7	...........
	351	352	4.08814E+000	1.00872E-006	0.00000E+000	4.12378E-006	0.00000E+000	4.78750E-004	-3.27672E+002	7	...........
	352	353	4.08814E+000	1.00912E-006	0.00000E+000	4.12541E-006	0.00000E+000	4.79667E-004	-3.27672E+002	7	...........
	353	354	4.08814E+000	1.00959E-006	0.00000E+000	4.12734E-006	0.00000E+000	4.74767E-004	-3.27672E+002	7	...........
	354	355	4.08815E+000	1.00939E-006	0.00000E+000	4.12654E-006	0.00000E+000	4.79233E-004	-3.27672E+002	7	...........
	355	356	4.08814E+000	1.00858E-006	0.00000E+000	4.12321E-006	0.00000E+000	4.79317E-004	-3.27672E+002	7	...........
	356	357	4.08815E+000	1.00956E-006	0.00000E+000	4.12725E-006	0.00000E+000	4.77933E-004	-3.27672E+002	7	...........
	357	358	4.08815E+000	1.00934E-006	0.00000E+000	4.12633E-006	0.00000E+000	4.77217E-004	-3.27672E+002	7	...........
	358	359	4.08814E+000	1.00942E-006	0.00000E+000	4.12667E-006	0.00000E+000	4.75817E-004	-3.27672E+002	7	...........
	359	360	4.08815E+000	1.00925E-006	0.00000E+000	4.12595E-006	0.00000E+000	4.74933E-004	-3.27672E+002	7	...........
	360	361	4.08815E+000	1.00839E-006	0.00000E+000	4.12244E-006	0.00000E+000	4.77883E-004	-3.27672E+002	7	...........
	361	362	4.08815E+000	1.00876E-006	0.00000E+000	4.12396E-006	0.00000E+000	4.78383E-004	-3.27672E+002	7	...........
	362	363	4.08817E+000	1.00762E-006	0.00000E+000	4.11930E-006	0.00000E+000	4.76250E-004	-3.27672E+002	7	...........
	363	364	4.08817E+000	1.00819E-006	0.00000E+000	4.12166E-006	0.00000E+000	4.76433E-004	-3.27672E+002	7	...........
	364	365	4.08816E+000	1.00800E-006	0.00000E+000	4.12086E-006	0.00000E+000	4.76033E-004	-3.27672E+002	7	...........
	365	366	4.08816E+000	1.00817E-006	0.00000E+000	4.12158E-006	0.00000E+000	4.75967E-004	-3.27672E+002	7	...........
	366	367	4.08817E+000	1.00842E-006	0.00000E+000	4.12258E-006	0.00000E+000	4.77300E-004	-3.27672E+002	7	...........
	367	368	4.08817E+000	1.00829E-006	0.00000E+000	4.12207E-006	0.00000E+000	4.76933E-004	-3.27672E+002	7	...........
	368	369	4.08817E+000	1.00823E-006	0.00000E+000	4.12181E-006	0.00000E+000	4.76017E-004	-3.27672E+002	7	...........
	369	370	4.08817E+000	1.00822E-006	0.00000E+000	4.12179E-006	0.00000E+000	4.76800E-004	-3.27672E+002	7	...........
	370	371	4.08817E+000	1.00954E-006	0.00000E+000	4.12717E-006	0.00000E+000	4.74867E-004	-3.27672E+002	7	...........
	371	372	4.08818E+000	1.00896E-006	0.00000E+000	4.12482E-006	0.00000E+000	4.74783E-004	-3.27672E+002	7	...........
	372	373	4.08817E+000	1.00860E-006	0.00000E+000	4.12334E-006	0.00000E+000	4.77000E-004	-3.27672E+002	7	...........
	373	374	4.08819E+000	1.00782E-006	0.00000E+000	4.12016E-006	0.00000E+000	4.72983E-004	-3.27672E+002	7	...........
	374	375	4.08819E+000	1.00820E-006	0.00000E+000	4.12173E-006	0.00000E+000	4.77700E-004	-3.27672E+002	7	...........
	375	376	4.08819E+000	1.00809E-006	0.00000E+000	4.12126E-006	0.00000E+000	4.76800E-004	-3.27672E+002	7	...........
	376	377	4.08819E+000	1.00865E-006	0.00000E+000	4.12354E-006	0.00000E+000	4.75217E-004	-3.27672E+002	7	...........
	377	378	4.08819E+000	1.00851E-006	0.00000E+000	4.12296E-006	0.00000E+000	4.76533E-004	-3.27672E+002	7	...........
	378	379	4.08820E+000	1.00801E-006	0.00000E+000	4.12094E-006	0.00000E+000	4.77400E-004	-3.27672E+002	7	...........
	379	380	4.08819E+000	1.00903E-006	0.00000E+000	4.12509E-006	0.00000E+000	4.75800E-004	-3.27672E+002	7	...........
	380	381	4.08819E+000	1.00894E-006	0.00000E+000	4.12473E-006	0.00000E+000	4.76250E-004	-3.27672E+002	7	...........
	381	382	4.08820E+000	1.00878E-006	0.00000E+000	4.12408E-006	0.00000E+000	4.76750E-004	-3.27672E+002	7	...........
	382	383	4.08820E+000	1.00858E-006	0.00000E+000	4.12329E-006	0.00000E+000	4.74917E-004	-3.27672E+002	7	...........
	383	384	4.08820E+000	1.00843E-006	0.00000E+000	4.12267E-006	0.00000E+000	4.75133E-004	-3.27672E+002	7	...........
	384	385	4.08821E+000	1.00882E-006	0.00000E+000	4.12428E-006	0.00000E+000	4.76850E-004	-3.27672E+002	7	...........
	385	386	4.08822E+000	1.00837E-006	0.00000E+000	4.12242E-006	0.00000E+000	4.73950E-004	-3.27672E+002	7	...........
	386	387	4.08821E+000	1.00842E-006	0.00000E+000	4.12262E-006	0.00000E+000	4.74850E-004	-3.27672E+002	7	...........
	387	388	4.08821E+000	1.00833E-006	0.00000E+000	4.12226E-006	0.00000E+000	4.76000E-004	-3.27672E+002	7	...........
	388	389	4.08822E+000	1.00710E-006	0.00000E+000	4.11724E-006	0.00000E+000	4.73267E-004	-3.27672E+002	7	...........
	389	390	4.08822E+000	1.00744E-006	0.00000E+000	4.11864E-006	0.00000E+000	4.73483E-004	-3.27672E+002	7	...........
	390	391	4.08821E+000	1.00789E-006	0.00000E+000	4.12045E-006	0.00000E+000	4.76800E-004	-3.27672E+002	7	...........
	391	392	4.08822E+000	1.00775E-006	0.00000E+000	4.11991E-006	0.00000E+000	4.74017E-004	-3.27672E+002	7	...........
	392	393	4.08821E+000	1.00836E-006	0.00000E+000	4.12239E-006	0.00000E+000	4.73700E-004	-3.27672E+002	7	...........
	393	394	4.08822E+000	1.00910E-006	0.00000E+000	4.12543E-006	0.00000E+000	4.73650E-004	-3.27672E+002	7	...........
	394	395	4.08822E+000	1.00828E-006	0.00000E+000	4.12208E-006	0.00000E+000	4.76117E-004	-3.27672E+002	7	...........
	395	396	4.08823E+000	1.00742E-006	0.00000E+000	4.11854E-006	0.00000E+000	4.73783E-004	-3.27672E+002	7	...........
	396	397	4.08823E+000	1.00719E-006	0.00000E+000	4.11764E-006	0.00000E+000	4.76217E-004	-3.27672E+002	7	...........
	397	398	4.08823E+000	1.00715E-006	0.00000E+000	4.11745E-006	0.00000E+000	4.75683E-004	-3.27672E+002	7	...........
	398	399	4.08823E+000	1.00786E-006	0.00000E+000	4.12035E-006	0.00000E+000	4.75683E-004	-3.27672E+002	7	...........
	399	400	4.08824E+000	1.00682E-006	0.00000E+000	4.11614E-006	0.00000E+000	4.77933E-004	-3.27672E+002	7	...........
	400	401	4.08823E+000	1.00802E-006	0.00000E+000	4.12101E-006	0.00000E+000	4.76100E-004	-3.27672E+002	7	...........
	401	402	4.08823E+000	1.00780E-006	0.00000E+000	4.12013E-006	0.00000E+000	4.75200E-004	-3.27672E+002	7	...........
	402	403	4.08824E+000	1.00883E-006	0.00000E+000	4.12436E-006	0.00000E+000	4.76367E-004	-3.27672E+002	7	...........
	403	404	4.08824E+000	1.00838E-006	0.00000E+000	4.12250E-006	0.00000E+000	4.75417E-004	-3.27672E+002	7	...........
	404	405	4.08824E+000	1.00792E-006	0.00000E+000	4.12063E-006	0.00000E+000	4.71667E-004	-3.27672E+002	7	...........
	405	406	4.08825E+000	1.00845E-006	0.00000E+000	4.12277E-006	0.00000E+000	4.75117E-004	-3.27672E+002	7	...........
	406	407	4.08824E+000	1.00778E-006	0.00000E+000	4.12004E-006	0.00000E+000	4.76367E-004	-3.27672E+002	7	...........
	407	408	4.08824E+000	1.00740E-006	0.00000E+000	4.11848E-006	0.00000E+000	4.81550E-004	-3.27672E+002	7	...........
	408	409	4.08824E+000	1.00662E-006	0.00000E+000	4.11532E-006	0.00000E+000	4.74183E-004	-3.27672E+002	7	...........
	409	410	4.08825E+000	1.00663E-006	0.00000E+000	4.11536E-006	0.00000E+000	4.75867E-004	-3.27672E+002	7	...........
	410	411	4.08825E+000	1.00723E-006	0.00000E+000	4.11782E-006	0.00000E+000	4.73633E-004	-3.27672E+002	7	...........
	411	412	4.08826E+000	1.00757E-006	0.00000E+000	4.11920E-006	0.00000E+000	4.74683E-004	-3.27672E+002	7	...........
	412	413	4.08826E+000	1.00760E-006	0.00000E+000	4.11933E-006	0.00000E+000	4.74950E-004	-3.27672E+002	7	...........
	413	414	4.08827E+000	1.00739E-006	0.00000E+000	4.11846E-006	0.00000E+000	4.76300E-004	-3.27672E+002	7	...........
	414	415	4.08826E+000	1.00771E-006	0.00000E+000	4.11978E-006	0.00000E+000	4.76067E-004	-3.27672E+002	7	...........
	415	416	4.08826E+000	1.00874E-006	0.00000E+000	4.12400E-006	0.00000E+000	4.74300E-004	-3.27672E+002	7	...........
	416	417	4.08826E+000	1.00837E-006	0.00000E+000	4.12248E-006	0.00000E+000	4.74833E-004	-3.27672E+002	7	...........
	417	418	4.08826E+000	1.00828E-006	0.00000E+000	4.12211E-006	0.00000E+000	4.75833E-004	-3.27672E+002	7	...........
	418	419	4.08826E+000	1.00775E-006	0.00000E+000	4.11994E-006	0.00000E+000	4.76700E-004	-3.27672E+002	7	...........
	419	420	4.08827E+000	1.00724E-006	0.00000E+000	4.11785E-006	0.00000E+000	4.71583E-004	-3.27672E+002	7	...........
	420	421	4.08827E+000	1.00686E-006	0.00000E+000	4.11630E-006	0.00000E+000	4.74600E-004	-3.27672E+002	7	...........
	421	422	4.08827E+000	1.00769E-006	0.00000E+000	4.11969E-006	0.00000E+000	4.71250E-004	-3.27672E+002	7	...........
	422	423	4.08828E+000	1.00837E-006	0.00000E+000	4.12249E-006	0.00000E+000	4.72833E-004	-3.27672E+002	7	...........
	423	424	4.08828E+000	1.00809E-006	0.00000E+000	4.12135E-006	0.00000E+000	4.74900E-004	-3.27672E+002	7	...........
	424	425	4.08828E+000	1.00861E-006	0.00000E+000	4.12348E-006	0.00000E+000	4.72967E-004	-3.27672E+002	7	...........
	425	426	4.08828E+000	1.00847E-006	0.00000E+000	4.12292E-006	0.00000E+000	4.74000E-004	-3.27672E+002	7	...........
	426	427	4.08828E+000	1.00888E-006	0.00000E+000	4.12459E-006	0.00000E+000	4.73350E-004	-3.27672E+002	7	...........
	427	428	4.08827E+000	1.00807E-006	0.00000E+000	4.12126E-006	0.00000E+000	4.75817E-004	-3.27672E+002	7	...........
	428	429	4.08828E+000	1.00724E-006	0.00000E+000	4.11790E-006	0.00000E+000	4.73517E-004	-3.27672E+002	7	...........
	429	430	4.08829E+000	1.00757E-006	0.00000E+000	4.11925E-006	0.00000E+000	4.74617E-004	-3.27672E+002	7	...........
	430	431	4.08828E+000	1.00828E-006	0.00000E+000	4.12212E-006	0.00000E+000	4.74133E-004	-3.27672E+002	7	...........
	431	432	4.08829E+000	1.00716E-006	0.00000E+000	4.11757E-006	0.00000E+000	4.72417E-004	-3.27672E+002	7	...........
	432	433	4.08830E+000	1.00661E-006	0.00000E+000	4.11534E-006	0.00000E+000	4.73833E-004	-3.27672E+002	7	...........
	433	434	4.08829E+000	1.00739E-006	0.00000E+000	4.11849E-006	0.00000E+000	4.71750E-004	-3.27672E+002	7	...........
	434	435	4.08829E+000	1.00730E-006	0.00000E+000	4.11813E-006	0.00000E+000	4.71467E-004	-3.27672E+002	7	...........
	435	436	4.08830E+000	1.00779E-006	0.00000E+000	4.12016E-006	0.00000E+000	4.74350E-004	-3.27672E+002	7	...........
	436	437	4.08829E+000	1.00721E-006	0.00000E+000	4.11779E-006	0.00000E+000	4.73500E-004	-3.27672E+002	7	...........
	437	438	4.08829E+000	1.00760E-006	0.00000E+000	4.11938E-006	0.00000E+000	4.75283E-004	-3.27672E+002	7	...........
	438	439	4.08830E+000	1.00767E-006	0.00000E+000	4.11967E-006	0.00000E+000	4.77733E-004	-3.27672E+002	7	...........
	439	440	4.08830E+000	1.00860E-006	0.00000E+000	4.12347E-006	0.00000E+000	4.73067E-004	-3.27672E+002	7	...........
	440	441	4.08830E+000	1.00801E-006	0.00000E+000	4.12104E-006	0.00000E+000	4.73867E-004	-3.27672E+002	7	...........
	441	442	4.08831E+000	1.00809E-006	0.00000E+000	4.12139E-006	0.00000E+000	4.70083E-004	-3.27672E+002	7	...........
	442	443	4.08831E+000	1.00715E-006	0.00000E+000	4.11753E-006	0.00000E+000	4.71417E-004	-3.27672E+002	7	...........
	443	444	4.08831E+000	1.00708E-006	0.00000E+000	4.11725E-006	0.00000E+000	4.73367E-004	-3.27672E+002	7	...........
	444	445	4.08831E+000	1.00590E-006	0.00000E+000	4.11245E-006	0.00000E+000	4.75350E-004	-3.27672E+002	7	...........
	445	446	4.08832E+000	1.00665E-006	0.00000E+000	4.11551E-006	0.00000E+000	4.73667E-004	-3.27672E+002	7	...........
	446	447	4.08831E+000	1.00804E-006	0.00000E+000	4.12117E-006	0.00000E+000	4.72650E-004	-3.27672E+002	7	...........
	447	448	4.08832E+000	1.00686E-006	0.00000E+000	4.11636E-006	0.00000E+000	4.76450E-004	-3.27672E+002	7	...........
	448	449	4.08832E+000	1.00656E-006	0.00000E+000	4.11514E-006	0.00000E+000	4.74200E-004	-3.27672E+002	7	...........
	449	450	4.08832E+000	1.00686E-006	0.00000E+000	4.11637E-006	0.00000E+000	4.75867E-004	-3.27672E+002	7	...........
	450	451	4.08832E+000	1.00635E-006	0.00000E+000	4.11429E-006	0.00000E+000	4.73300E-004	-3.27672E+002	7	...........
	451	452	4.08832E+000	1.00641E-006	0.00000E+000	4.11451E-006	0.00000E+000	4.72767E-004	-3.27672E+002	7	...........
	452	453	4.08834E+000	1.00695E-006	0.00000E+000	4.11674E-006	0.00000E+000	4.75433E-004	-3.27672E+002	7	...........
	453	454	4.08833E+000	1.00608E-006	0.00000E+000	4.11317E-006	0.00000E+000	4.72533E-004	-3.27672E+002	7	...........
	454	455	4.08832E+000	1.00590E-006	0.00000E+000	4.11243E-006	0.00000E+000	4.72567E-004	-3.27672E+002	7	...........
	455	456	4.08833E+000	1.00577E-006	0.00000E+000	4.11192E-006	0.00000E+000	4.71600E-004	-3.27672E+002	7	...........
	456	457	4.08833E+000	1.00657E-006	0.00000E+000	4.11519E-006	0.00000E+000	4.75683E-004	-3.27672E+002	7	...........
	457	458	4.08833E+000	1.00573E-006	0.00000E+000	4.11176E-006	0.00000E+000	4.73117E-004	-3.27672E+002	7	...........
	458	459	4.08834E+000	1.00622E-006	0.00000E+000	4.11378E-006	0.00000E+000	4.71983E-004	-3.27672E+002	7	...........
	459	460	4.08834E+000	1.00622E-006	0.00000E+000	4.11375E-006	0.00000E+000	4.73050E-004	-3.27672E+002	7	...........
	460	461	4.08834E+000	1.00599E-006	0.00000E+000	4.11284E-006	0.00000E+000	4.75117E-004	-3.27672E+002	7	...........
	461	462	4.08834E+000	1.00709E-006	0.00000E+000	4.11732E-006	0.00000E+000	4.74450E-004	-3.27672E+002	7	...........
	462	463	4.08834E+000	1.00686E-006	0.00000E+000	4.11640E-006	0.00000E+000	4.73633E-004	-3.27672E+002	7	...........
	463	464	4.08834E+000	1.00720E-006	0.00000E+000	4.11776E-006	0.00000E+000	4.74617E-004	-3.27672E+002	7	...........
	464	465	4.08834E+000	1.00694E-006	0.00000E+000	4.11671E-006	0.00000E+000	4.76417E-004	-3.27672E+002	7	...........
	465	466	4.08834E+000	1.00739E-006	0.00000E+000	4.11854E-006	0.00000E+000	4.73483E-004	-3.27672E+002	7	...........
	466	467	4.08835E+000	1.00755E-006	0.00000E+000	4.11921E-006	0.00000E+000	4.74067E-004	-3.27672E+002	7	...........
	467	468	4.08834E+000	1.00727E-006	0.00000E+000	4.11808E-006	0.00000E+000	4.74167E-004	-3.27672E+002	7	...........
	468	469	4.08835E+000	1.00717E-006	0.00000E+000	4.11766E-006	0.00000E+000	4.73683E-004	-3.27672E+002	7	...........
	469	470	4.08835E+000	1.00748E-006	0.00000E+000	4.11893E-006	0.00000E+000	4.73533E-004	-3.27672E+002	7	...........
	470	471	4.08835E+000	1.00629E-006	0.00000E+000	4.11405E-006	0.00000E+000	4.73283E-004	-3.27672E+002	7	...........
	471	472	4.08835E+000	1.00634E-006	0.00000E+000	4.11426E-006	0.00000E+000	4.77950E-004	-3.27672E+002	7	...........
	472	473	4.08835E+000	1.00658E-006	0.00000E+000	4.11525E-006	0.00000E+000	4.77317E-004	-3.27672E+002	7	...........
	473	474	4.08836E+000	1.00596E-006	0.00000E+000	4.11274E-006	0.00000E+000	4.71850E-004	-3.27672E+002	7	...........
	474	475	4.08836E+000	1.00581E-006	0.00000E+000	4.11211E-006	0.00000E+000	4.74467E-004	-3.27672E+002	7	...........
	475	476	4.08836E+000	1.00557E-006	0.00000E+000	4.11112E-006	0.00000E+000	4.75483E-004	-3.27672E+002	7	...........
	476	477	4.08836E+000	1.00471E-006	0.00000E+000	4.10763E-006	0.00000E+000	4.74433E-004	-3.27672E+002	7	...........
	477	478	4.08837E+000	1.00496E-006	0.00000E+000	4.10862E-006	0.00000E+000	4.75167E-004	-3.27672E+002	7	...........
	478	479	4.08836E+000	1.00446E-006	0.00000E+000	4.10658E-006	0.00000E+000	4.72583E-004	-3.27672E+002	7	...........
	479	480	4.08836E+000	1.00425E-006	0.00000E+000	4.10573E-006	0.00000E+000	4.72833E-004	-3.27672E+002	7	...........
	480	481	4.08837E+000	1.00486E-006	0.00000E+000	4.10822E-006	0.00000E+000	4.72617E-004	-3.27672E+002	7	...........
	481	482	4.08837E+000	1.00509E-006	0.00000E+000	4.10919E-006	0.00000E+000	4.73117E-004	-3.27672E+002	7	...........
	482	483	4.08836E+000	1.00549E-006	0.00000E+000	4.11079E-006	0.00000E+000	4.75850E-004	-3.27672E+002	7	...........
	483	484	4.08837E+000	1.00450E-006	0.00000E+000	4.10678E-006	0.00000E+000	4.74667E-004	-3.27672E+002	7	...........
	484	485	4.08837E+000	1.00477E-006	0.00000E+000	4.10787E-006	0.00000E+000	4.71917E-004	-3.27672E+002	7	...........
	485	486	4.08838E+000	1.00571E-006	0.00000E+000	4.11173E-006	0.00000E+000	4.73300E-004	-3.27672E+002	7	...........
	486	487	4.08837E+000	1.00562E-006	0.00000E+000	4.11133E-006	0.00000E+000	4.72617E-004	-3.27672E+002	7	...........
	487	488	4.08837E+000	1.00432E-006	0.00000E+000	4.10602E-006	0.00000E+000	4.75633E-004	-3.27672E+002	7	...........
	488	489	4.08838E+000	1.00470E-006	0.00000E+000	4.10761E-006	0.00000E+000	4.73533E-004	-3.27672E+002	7	...........
	489	490	4.08838E+000	1.00456E-006	0.00000E+000	4.10702E-006	0.00000E+000	4.73233E-004	-3.27672E+002	7	...........
	490	491	4.08838E+000	1.00468E-006	0.00000E+000	4.10751E-006	0.00000E+000	4.72300E-004	-3.27672E+002	7	...........
	491	492	4.08839E+000	1.00539E-006	0.00000E+000	4.11041E-006	0.00000E+000	4.72883E-004	-3.27672E+002	7	...........
	492	493	4.08839E+000	1.00532E-006	0.00000E+000	4.11012E-006	0.00000E+000	4.73383E-004	-3.27672E+002	7	...........
	493	494	4.08839E+000	1.00575E-006	0.00000E+000	4.11189E-006	0.00000E+000	4.74350E-004	-3.27672E+002	7	...........
	494	495	4.08838E+000	1.00502E-006	0.00000E+000	4.10893E-006	0.00000E+000	4.72583E-004	-3.27672E+002	7	...........
	495	496	4.08839E+000	1.00535E-006	0.00000E+000	4.11025E-006	0.00000E+000	4.72900E-004	-3.27672E+002	7	...........
	496	497	4.08839E+000	1.00542E-006	0.00000E+000	4.11056E-006	0.00000E+000	4.74117E-004	-3.27672E+002	7	...........
	497	498	4.08839E+000	1.00497E-006	0.00000E+000	4.10872E-006	0.00000E+000	4.74267E-004	-3.27672E+002	7	...........
	498	499	4.08840E+000	1.00508E-006	0.00000E+000	4.10917E-006	0.00000E+000	4.71617E-004	-3.27672E+002	7	...........
	499	500	4.08840E+000	1.00576E-006	0.00000E+000	4.11193E-006	0.00000E+000	4.75017E-004	-3.27672E+002	7	...........
	500	501	4.08839E+000	1.00485E-006	0.00000E+000	4.10821E-006	0.00000E+000	4.74950E-004	-3.27672E+002	7	...........
	501	502	4.08840E+000	1.00470E-006	0.00000E+000	4.10762E-006	0.00000E+000	4.73300E-004	-3.27672E+002	7	...........
	502	503	4.08840E+000	1.00563E-006	0.00000E+000	4.11140E-006	0.00000E+000	4.74833E-004	-3.27672E+002	7	...........
	503	504	4.08840E+000	1.00468E-006	0.00000E+000	4.10754E-006	0.00000E+000	4.73433E-004	-3.27672E+002	7	...........
	504	505	4.08840E+000	1.00589E-006	0.00000E+000	4.11249E-006	0.00000E+000	4.72533E-004	-3.27672E+002	7	...........
	505	506	4.08840E+000	1.00545E-006	0.00000E+000	4.11068E-006	0.00000E+000	4.73350E-004	-3.27672E+002	7	...........
	506	507	4.08840E+000	1.00593E-006	0.00000E+000	4.11265E-006	0.00000E+000	4.72183E-004	-3.27672E+002	7	...........
	507	508	4.08840E+000	1.00678E-006	0.00000E+000	4.11611E-006	0.00000E+000	4.74367E-004	-3.27672E+002	7	...........
	508	509	4.08840E+000	1.00610E-006	0.00000E+000	4.11333E-006	0.00000E+000	4.74217E-004	-3.27672E+002	7	...........
	509	510	4.08840E+000	1.00536E-006	0.00000E+000	4.11033E-006	0.00000E+000	4.72950E-004	-3.27672E+002	7	...........
	510	511	4.08841E+000	1.00517E-006	0.00000E+000	4.10953E-006	0.00000E+000	4.76783E-004	-3.27672E+002	7	...........
	511	512	4.08841E+000	1.00515E-006	0.00000E+000	4.10948E-006	0.00000E+000	4.69567E-004	-3.27672E+002	7	...........
	512	513	4.08840E+000	1.00542E-006	0.00000E+000	4.11054E-006	0.00000E+000	4.74150E-004	-3.27672E+002	7	...........
	513	514	4.08840E+000	1.00516E-006	0.00000E+000	4.10948E-006	0.00000E+000	4.74700E-004	-3.27672E+002	7	...........
	514	515	4.08841E+000	1.00576E-006	0.00000E+000	4.11197E-006	0.00000E+000	4.73017E-004	-3.27672E+002	7	...........
	515	516	4.08841E+000	1.00606E-006	0.00000E+000	4.11320E-006	0.00000E+000	4.75650E-004	-3.27672E+002	7	...........
	516	517	4.08842E+000	1.00576E-006	0.00000E+000	4.11197E-006	0.00000E+000	4.76033E-004	-3.27672E+002	7	...........
	517	518	4.08842E+000	1.00588E-006	0.00000E+000	4.11246E-006	0.00000E+000	4.78833E-004	-3.27672E+002	7	...........
	518	519	4.08842E+000	1.00540E-006	0.00000E+000	4.11048E-006	0.00000E+000	4.77950E-004	-3.27672E+002	7	...........
	519	520	4.08842E+000	1.00534E-006	0.00000E+000	4.11025E-006	0.00000E+000	4.73383E-004	-3.27672E+002	7	...........
	520	521	4.08843E+000	1.00480E-006	0.00000E+000	4.10807E-006	0.00000E+000	4.76050E-004	-3.27672E+002	7	...........
	521	522	4.08843E+000	1.00563E-006	0.00000E+000	4.11144E-006	0.00000E+000	4.74617E-004	-3.27672E+002	7	...........
	522	523	4.08843E+000	1.00564E-006	0.00000E+000	4.11151E-006	0.00000E+000	4.73883E-004	-3.27672E+002	7	...........
	523	524	4.08843E+000	1.00494E-006	0.00000E+000	4.10861E-006	0.00000E+000	4.74717E-004	-3.27672E+002	7	...........
	524	525	4.08843E+000	1.00460E-006	0.00000E+000	4.10724E-006	0.00000E+000	4.77183E-004	-3.27672E+002	7	...........
	525	526	4.08843E+000	1.00518E-006	0.00000E+000	4.10961E-006	0.00000E+000	4.77783E-004	-3.27672E+002	7	...........
	526	527	4.08844E+000	1.00423E-006	0.00000E+000	4.10574E-006	0.00000E+000	4.72783E-004	-3.27672E+002	7	...........
	527	528	4.08843E+000	1.00483E-006	0.00000E+000	4.10818E-006	0.00000E+000	4.74983E-004	-3.27672E+002	7	...........
	528	529	4.08844E+000	1.00479E-006	0.00000E+000	4.10803E-006	0.00000E+000	4.73283E-004	-3.27672E+002	7	...........
	529	530	4.08844E+000	1.00519E-006	0.00000E+000	4.10966E-006	0.00000E+000	4.72617E-004	-3.27672E+002	7	...........
	530	531	4.08844E+000	1.00564E-006	0.00000E+000	4.11149E-006	0.00000E+000	4.77967E-004	-3.27672E+002	7	...........
	531	532	4.08844E+000	1.00680E-006	0.00000E+000	4.11623E-006	0.00000E+000	4.73383E-004	-3.27672E+002	7	...........
	532	533	4.08845E+000	1.00518E-006	0.00000E+000	4.10962E-006	0.00000E+000	4.76000E-004	-3.27672E+002	7	...........
	533	534	4.08844E+000	1.00493E-006	0.00000E+000	4.10860E-006	0.00000E+000	4.75150E-004	-3.27672E+002	7	...........
	534	535	4.08844E+000	1.00481E-006	0.00000E+000	4.10810E-006	0.00000E+000	4.76133E-004	-3.27672E+002	7	...........
	535	536	4.08845E+000	1.00465E-006	0.00000E+000	4.10747E-006	0.00000E+000	4.76700E-004	-3.27672E+002	7	...........
	536	537	4.08844E+000	1.00460E-006	0.00000E+000	4.10725E-006	0.00000E+000	4.75083E-004	-3.27672E+002	7	...........
	537	538	4.08845E+000	1.00450E-006	0.00000E+000	4.10685E-006	0.00000E+000	4.75850E-004	-3.27672E+002	7	...........
	538	539	4.08846E+000	1.00389E-006	0.00000E+000	4.10437E-006	0.00000E+000	4.73883E-004	-3.27672E+002	7	...........
	539	540	4.08845E+000	1.00531E-006	0.00000E+000	4.11016E-006	0.00000E+000	4.76367E-004	-3.27672E+002	7	...........
	540	541	4.08846E+000	1.00491E-006	0.00000E+000	4.10853E-006	0.00000E+000	4.75633E-004	-3.27672E+002	7	...........
	541	542	4.08845E+000	1.00462E-006	0.00000E+000	4.10733E-006	0.00000E+000	4.75000E-004	-3.27672E+002	7	...........
	542	543	4.08845E+000	1.00431E-006	0.00000E+000	4.10608E-006	0.00000E+000	4.76483E-004	-3.27672E+002	7	...........
	543	544	4.08845E+000	1.00496E-006	0.00000E+000	4.10875E-006	0.00000E+000	4.72150E-004	-3.27672E+002	7	...........
	544	545	4.08846E+000	1.00457E-006	0.00000E+000	4.10715E-006	0.00000E+000	4.77250E-004	-3.27672E+002	7	...........
	545	546	4.08846E+000	1.00463E-006	0.00000E+000	4.10740E-006	0.00000E+000	4.78917E-004	-3.27672E+002	7	...........
	546	547	4.08846E+000	1.00469E-006	0.00000E+000	4.10766E-006	0.00000E+000	4.74367E-004	-3.27672E+002	7	...........
	547	548	4.08847E+000	1.00424E-006	0.00000E+000	4.10579E-006	0.00000E+000	4.74317E-004	-3.27672E+002	7	...........
	548	549	4.08847E+000	1.00448E-006	0.00000E+000	4.10678E-006	0.00000E+000	4.72600E-004	-3.27672E+002	7	...........
	549	550	4.08847E+000	1.00392E-006	0.00000E+000	4.10451E-006	0.00000E+000	4.73033E-004	-3.27672E+002	7	...........
	550	551	4.08847E+000	1.00474E-006	0.00000E+000	4.10784E-006	0.00000E+000	4.72100E-004	-3.27672E+002	7	...........
	551	552	4.08846E+000	1.00496E-006	0.00000E+000	4.10874E-006	0.00000E+000	4.73283E-004	-3.27672E+002	7	...........
	552	553	4.08846E+000	1.00480E-006	0.00000E+000	4.10807E-006	0.00000E+000	4.72850E-004	-3.27672E+002	7	...........
	553	554	4.08848E+000	1.00458E-006	0.00000E+000	4.10720E-006	0.00000E+000	4.73900E-004	-3.27672E+002	7	...........
	554	555	4.08848E+000	1.00483E-006	0.00000E+000	4.10823E-006	0.00000E+000	4.76667E-004	-3.27672E+002	7	...........
	555	556	4.08847E+000	1.00488E-006	0.00000E+000	4.10841E-006	0.00000E+000	4.75450E-004	-3.27672E+002	7	...........
	556	557	4.08847E+000	1.00414E-006	0.00000E+000	4.10539E-006	0.00000E+000	4.74633E-004	-3.27672E+002	7	...........
	557	558	4.08848E+000	1.00400E-006	0.00000E+000	4.10482E-006	0.00000E+000	4.75483E-004	-3.27672E+002	7	...........
	558	559	4.08848E+000	1.00332E-006	0.00000E+000	4.10204E-006	0.00000E+000	4.76550E-004	-3.27672E+002	7	...........
	559	560	4.08848E+000	1.00297E-006	0.00000E+000	4.10062E-006	0.00000E+000	4.74517E-004	-3.27672E+002	7	...........
	560	561	4.08848E+000	1.00273E-006	0.00000E+000	4.09963E-006	0.00000E+000	4.75933E-004	-3.27672E+002	7	...........
	561	562	4.08848E+000	1.00304E-006	0.00000E+000	4.10092E-006	0.00000E+000	4.74700E-004	-3.27672E+002	7	...........
	562	563	4.08849E+000	1.00365E-006	0.00000E+000	4.10339E-006	0.00000E+000	4.75033E-004	-3.27672E+002	7	...........
	563	564	4.08849E+000	1.00361E-006	0.00000E+000	4.10327E-006	0.00000E+000	4.75583E-004	-3.27672E+002	7	...........
	564	565	4.08849E+000	1.00403E-006	0.00000E+000	4.10497E-006	0.00000E+000	4.70700E-004	-3.27672E+002	7	...........
	565	566	4.08849E+000	1.00362E-006	0.00000E+000	4.10328E-006	0.00000E+000	4.72700E-004	-3.27672E+002	7	...........
	566	567	4.08848E+000	1.00421E-006	0.00000E+000	4.10571E-006	0.00000E+000	4.72850E-004	-3.27672E+002	7	...........
	567	568	4.08849E+000	1.00361E-006	0.00000E+000	4.10325E-006	0.00000E+000	4.74883E-004	-3.27672E+002	7	...........
	568	569	4.08849E+000	1.00371E-006	0.00000E+000	4.10368E-006	0.00000E+000	4.73900E-004	-3.27672E+002	7	...........
	569	570	4.08849E+000	1.00345E-006	0.00000E+000	4.10260E-006	0.00000E+000	4.75867E-004	-3.27672E+002	7	...........
	570	571	4.08849E+000	1.00309E-006	0.00000E+000	4.10112E-006	0.00000E+000	4.74267E-004	-3.27672E+002	7	...........
	571	572	4.08849E+000	1.00306E-006	0.00000E+000	4.10102E-006	0.00000E+000	4.72200E-004	-3.27672E+002	7	...........
	572	573	4.08850E+000	1.00366E-006	0.00000E+000	4.10345E-006	0.00000E+000	4.70250E-004	-3.27672E+002	7	...........
	573	574	4.08849E+000	1.00357E-006	0.00000E+000	4.10308E-006	0.00000E+000	4.69217E-004	-3.27672E+002	7	...........
	574	575	4.08850E+000	1.00355E-006	0.00000E+000	4.10301E-006	0.00000E+000	4.73017E-004	-3.27672E+002	7	...........
	575	576	4.08850E+000	1.00410E-006	0.00000E+000	4.10527E-006	0.00000E+000	4.72583E-004	-3.27672E+002	7	...........
	576	577	4.08850E+000	1.00390E-006	0.00000E+000	4.10443E-006	0.00000E+000	4.74350E-004	-3.27672E+002	7	...........
	577	578	4.08850E+000	1.00436E-006	0.00000E+000	4.10632E-006	0.00000E+000	4.73467E-004	-3.27672E+002	7	...........
	578	579	4.08850E+000	1.00398E-006	0.00000E+000	4.10478E-006	0.00000E+000	4.70850E-004	-3.27672E+002	7	...........
	579	580	4.08850E+000	1.00401E-006	0.00000E+000	4.10490E-006	0.00000E+000	4.72500E-004	-3.27672E+002	7	...........
	580	581	4.08850E+000	1.00366E-006	0.00000E+000	4.10345E-006	0.00000E+000	4.73400E-004	-3.27672E+002	7	...........
	581	582	4.08850E+000	1.00344E-006	0.00000E+000	4.10259E-006	0.00000E+000	4.76617E-004	-3.27672E+002	7	...........
	582	583	4.08851E+000	1.00410E-006	0.00000E+000	4.10527E-006	0.00000E+000	4.73217E-004	-3.27672E+002	7	...........
	583	584	4.08851E+000	1.00339E-006	0.00000E+000	4.10235E-006	0.00000E+000	4.74417E-004	-3.27672E+002	7	...........
	584	585	4.08851E+000	1.00353E-006	0.00000E+000	4.10292E-006	0.00000E+000	4.73567E-004	-3.27672E+002	7	...........
	585	586	4.08851E+000	1.00360E-006	0.00000E+000	4.10321E-006	0.00000E+000	4.73283E-004	-3.27672E+002	7	...........
	586	587	4.08851E+000	1.00321E-006	0.00000E+000	4.10162E-006	0.00000E+000	4.71450E-004	-3.27672E+002	7	...........
	587	588	4.08851E+000	1.00459E-006	0.00000E+000	4.10726E-006	0.00000E+000	4.73817E-004	-3.27672E+002	7	...........
	588	589	4.08851E+000	1.00338E-006	0.00000E+000	4.10232E-006	0.00000E+000	4.73167E-004	-3.27672E+002	7	...........
	589	590	4.08851E+000	1.00368E-006	0.00000E+000	4.10353E-006	0.00000E+000	4.71933E-004	-3.27672E+002	7	...........
	590	591	4.08851E+000	1.00307E-006	0.00000E+000	4.10108E-006	0.00000E+000	4.73583E-004	-3.27672E+002	7	...........
	591	592	4.08851E+000	1.00343E-006	0.00000E+000	4.10254E-006	0.00000E+000	4.73083E-004	-3.27672E+002	7	...........
	592	593	4.08851E+000	1.00318E-006	0.00000E+000	4.10150E-006	0.00000E+000	4.74267E-004	-3.27672E+002	7	...........
	593	594	4.08851E+000	1.00338E-006	0.00000E+000	4.10234E-006	0.00000E+000	4.78350E-004	-3.27672E+002	7	...........
	594	595	4.08852E+000	1.00394E-006	0.00000E+000	4.10461E-006	0.00000E+000	4.73933E-004	-3.27672E+002	7	...........
	595	596	4.08851E+000	1.00398E-006	0.00000E+000	4.10480E-006	0.00000E+000	4.73150E-004	-3.27672E+002	7	...........
	596	597	4.08852E+000	1.00454E-006	0.00000E+000	4.10709E-006	0.00000E+000	4.73883E-004	-3.27672E+002	7	...........
	597	598	4.08852E+000	1.00447E-006	0.00000E+000	4.10681E-006	0.00000E+000	4.77567E-004	-3.27672E+002	7	...........
	598	599	4.08852E+000	1.00460E-006	0.00000E+000	4.10732E-006	0.00000E+000	4.75733E-004	-3.27672E+002	7	...........
	599	600	4.08851E+000	1.00508E-006	0.00000E+000	4.10927E-006	0.00000E+000	4.75917E-004	-3.27672E+002	7	...........
