EXPLAIN
TAG	PWR800_READVOLTAGE
TITLE	LABEL	PWR Read Voltage	Test Identifier
DATE	LABEL	8.2.2024	Date
TIME	LABEL	5:45:14	Time
NOTES	NOTES	1	Notes...
	
PSTAT	PSTAT	REF600-12055	Potentiostat
CAPACITY	QUANT	1.00000E+000	Capacity (A-hr)
CELLTYPE	SELECTOR	1	Cell Type
WORKINGCONNECTION	SELECTOR	0	Working Connection
MAXTIME	VARIABLEANDUNITS	6.00000E+002	s	6.00000E+002	second(s)	Max Time
SAMPLETIME	QUANT	1.00000E+000	Sample Period (s)
STOPAT1	MULTIPARAM	0	0.00000E+000	Stop At 1	None	N/A
STOPAT2	MULTIPARAM	0	0.00000E+000	Stop At 2	None	N/A
AESBHCSELECTOR	TOGGLE	F	Save Both Half Cells
EOC	QUANT	4.088515	Open Circuit (V)
SEQUENCER	TOGGLE	TRUE	Run as Sequence
PSTATMODEL	IQUANT	4	Pstat Model
PSTATSECTION	LABEL	REF600-12055	Pstat Section
PSTATSERIALNO	LABEL	12055	Pstat Serial Number
CTRLMODE	IQUANT	0	Control Mode
ELECTROMETER	IQUANT	0	RE=0 or CS=1
IESTAB	IQUANT	0	I/E Stability
CASPEED	IQUANT	4	Control Amp Speed
CONVENTION	IQUANT	1	Current Convention
ICHRANGE	IQUANT	2	Ich Range
ICHRANGEMODE	TOGGLE	T	Ich Auto Range
ICHOFFSETENABLE	TOGGLE	F	Ich Offset Enable
ICHOFFSET	QUANT	0	Ich Offset (V)
ICHFILTER	IQUANT	1	Ich Filter
VCHRANGE	IQUANT	3	Vch Range
VCHRANGEMODE	TOGGLE	T	Vch Auto Range
VCHOFFSETENABLE	TOGGLE	F	Vch Offset Enable
VCHOFFSET	QUANT	0	Vch Offset (V)
VCHFILTER	IQUANT	1	Vch Filter
ACHRANGE	IQUANT	2	Ach Range
ACHOFFSETENABLE	TOGGLE	F	Ach Offset Enable
ACHOFFSET	QUANT	0	Ach Offset (V)
ACHFILTER	IQUANT	1	Ach Filter
IERANGELOWERLIMIT	IQUANT	7	I/E Range Lower Limit
IERANGEMODE	TOGGLE	F	I/E AutoRange
IERANGE	IQUANT	11	I/E Range
POSFEEDENABLE	TOGGLE	F	Positive Feedback IR Comp
POSFEEDRESISTANCE	QUANT	0	Positive Feedback Resistance (ohm)
ACHSELECT	IQUANT	4	Ach Select
SENSECABLEID	IQUANT	14	Sense Cable ID
PWRCABLEID	IQUANT	14	Power Cable ID
DCCALDATE	LABEL		DC Calibration Date
ACCALDATE	LABEL		AC Calibration Date
THERMOSELECT	IQUANT	1	Thermo Select
FRAMEWORKVERSION	LABEL	7.10.3	Framework Version
INSTRUMENTVERSION	LABEL	4.91	Instrument Version
COMMVERSION	LABEL	2.24	Communications Version
CPUPLDVERSION	LABEL	0.00	CPU PLD Version
CTRLPLDVERSION	LABEL	0.00	CTRL PLD Version
PSTATPLDVERSION	LABEL	0.00	PSTAT PLD Version
CURVE	TABLE	600
	Pt	T	Vf	Im	Vu	Pwr	Sig	Ach	Temp	IERange	Over
	#	s	V	A	V	W	V	V	deg C	#	bits
	0	1	4.02711E+000	-9.89153E-007	0.00000E+000	-3.98343E-006	0.00000E+000	7.05917E-004	-3.27672E+002	7	...........
	1	2	4.02743E+000	-9.87799E-007	0.00000E+000	-3.97829E-006	0.00000E+000	7.08250E-004	-3.27672E+002	7	...........
	2	3	4.02765E+000	-9.87630E-007	0.00000E+000	-3.97782E-006	0.00000E+000	7.10783E-004	-3.27672E+002	7	...........
	3	4	4.02784E+000	-9.86827E-007	0.00000E+000	-3.97478E-006	0.00000E+000	7.11067E-004	-3.27672E+002	7	...........
	4	5	4.02801E+000	-9.86197E-007	0.00000E+000	-3.97241E-006	0.00000E+000	7.08633E-004	-3.27672E+002	7	...........
	5	6	4.02815E+000	-9.85944E-007	0.00000E+000	-3.97153E-006	0.00000E+000	7.07733E-004	-3.27672E+002	7	...........
	6	7	4.02827E+000	-9.85612E-007	0.00000E+000	-3.97031E-006	0.00000E+000	7.07300E-004	-3.27672E+002	7	...........
	7	8	4.02839E+000	-9.84413E-007	0.00000E+000	-3.96560E-006	0.00000E+000	7.08900E-004	-3.27672E+002	7	...........
	8	9	4.02849E+000	-9.83886E-007	0.00000E+000	-3.96357E-006	0.00000E+000	7.04900E-004	-3.27672E+002	7	...........
	9	10	4.02857E+000	-9.83388E-007	0.00000E+000	-3.96165E-006	0.00000E+000	7.06783E-004	-3.27672E+002	7	...........
	10	11	4.02868E+000	-9.82264E-007	0.00000E+000	-3.95722E-006	0.00000E+000	7.09167E-004	-3.27672E+002	7	...........
	11	12	4.02876E+000	-9.81833E-007	0.00000E+000	-3.95557E-006	0.00000E+000	7.10300E-004	-3.27672E+002	7	...........
	12	13	4.02884E+000	-9.80922E-007	0.00000E+000	-3.95198E-006	0.00000E+000	7.08783E-004	-3.27672E+002	7	...........
	13	14	4.02892E+000	-9.80910E-007	0.00000E+000	-3.95200E-006	0.00000E+000	7.10550E-004	-3.27672E+002	7	...........
	14	15	4.02900E+000	-9.80937E-007	0.00000E+000	-3.95219E-006	0.00000E+000	7.12033E-004	-3.27672E+002	7	...........
	15	16	4.02906E+000	-9.79432E-007	0.00000E+000	-3.94619E-006	0.00000E+000	7.13583E-004	-3.27672E+002	7	...........
	16	17	4.02913E+000	-9.79342E-007	0.00000E+000	-3.94590E-006	0.00000E+000	7.13350E-004	-3.27672E+002	7	...........
	17	18	4.02921E+000	-9.78969E-007	0.00000E+000	-3.94447E-006	0.00000E+000	7.14200E-004	-3.27672E+002	7	...........
	18	19	4.02927E+000	-9.78463E-007	0.00000E+000	-3.94249E-006	0.00000E+000	7.11283E-004	-3.27672E+002	7	...........
	19	20	4.02935E+000	-9.77656E-007	0.00000E+000	-3.93932E-006	0.00000E+000	7.14200E-004	-3.27672E+002	7	...........
	20	21	4.02942E+000	-9.77106E-007	0.00000E+000	-3.93717E-006	0.00000E+000	5.20750E-004	-3.27672E+002	7	...........
	21	22	4.02949E+000	-9.76338E-007	0.00000E+000	-3.93415E-006	0.00000E+000	4.31100E-004	-3.27672E+002	7	...........
	22	23	4.02957E+000	-9.76238E-007	0.00000E+000	-3.93381E-006	0.00000E+000	4.32183E-004	-3.27672E+002	7	...........
	23	24	4.02963E+000	-9.75746E-007	0.00000E+000	-3.93189E-006	0.00000E+000	4.30600E-004	-3.27672E+002	7	...........
	24	25	4.02969E+000	-9.75737E-007	0.00000E+000	-3.93192E-006	0.00000E+000	4.30533E-004	-3.27672E+002	7	...........
	25	26	4.02975E+000	-9.74789E-007	0.00000E+000	-3.92815E-006	0.00000E+000	4.28017E-004	-3.27672E+002	7	...........
	26	27	4.02981E+000	-9.74336E-007	0.00000E+000	-3.92639E-006	0.00000E+000	4.25967E-004	-3.27672E+002	7	...........
	27	28	4.02986E+000	-9.74067E-007	0.00000E+000	-3.92535E-006	0.00000E+000	4.27983E-004	-3.27672E+002	7	...........
	28	29	4.02992E+000	-9.74449E-007	0.00000E+000	-3.92695E-006	0.00000E+000	4.27333E-004	-3.27672E+002	7	...........
	29	30	4.02996E+000	-9.73467E-007	0.00000E+000	-3.92304E-006	0.00000E+000	4.23900E-004	-3.27672E+002	7	...........
	30	31	4.03001E+000	-9.73085E-007	0.00000E+000	-3.92155E-006	0.00000E+000	4.27050E-004	-3.27672E+002	7	...........
	31	32	4.03007E+000	-9.72297E-007	0.00000E+000	-3.91843E-006	0.00000E+000	4.24750E-004	-3.27672E+002	7	...........
	32	33	4.03012E+000	-9.71804E-007	0.00000E+000	-3.91648E-006	0.00000E+000	4.24767E-004	-3.27672E+002	7	...........
	33	34	4.03016E+000	-9.70955E-007	0.00000E+000	-3.91310E-006	0.00000E+000	4.22200E-004	-3.27672E+002	7	...........
	34	35	4.03020E+000	-9.70410E-007	0.00000E+000	-3.91094E-006	0.00000E+000	4.24550E-004	-3.27672E+002	7	...........
	35	36	4.03025E+000	-9.70568E-007	0.00000E+000	-3.91163E-006	0.00000E+000	4.26267E-004	-3.27672E+002	7	...........
	36	37	4.03028E+000	-9.70603E-007	0.00000E+000	-3.91180E-006	0.00000E+000	4.25800E-004	-3.27672E+002	7	...........
	37	38	4.03033E+000	-9.71284E-007	0.00000E+000	-3.91460E-006	0.00000E+000	4.25767E-004	-3.27672E+002	7	...........
	38	39	4.03036E+000	-9.69980E-007	0.00000E+000	-3.90937E-006	0.00000E+000	4.25850E-004	-3.27672E+002	7	...........
	39	40	4.03040E+000	-9.68625E-007	0.00000E+000	-3.90395E-006	0.00000E+000	4.24167E-004	-3.27672E+002	7	...........
	40	41	4.03044E+000	-9.68893E-007	0.00000E+000	-3.90506E-006	0.00000E+000	4.25100E-004	-3.27672E+002	7	...........
	41	42	4.03048E+000	-9.67814E-007	0.00000E+000	-3.90075E-006	0.00000E+000	4.26450E-004	-3.27672E+002	7	...........
	42	43	4.03051E+000	-9.67883E-007	0.00000E+000	-3.90106E-006	0.00000E+000	4.22867E-004	-3.27672E+002	7	...........
	43	44	4.03055E+000	-9.67583E-007	0.00000E+000	-3.89989E-006	0.00000E+000	4.25567E-004	-3.27672E+002	7	...........
	44	45	4.03058E+000	-9.67353E-007	0.00000E+000	-3.89900E-006	0.00000E+000	4.25417E-004	-3.27672E+002	7	...........
	45	46	4.03062E+000	-9.67252E-007	0.00000E+000	-3.89862E-006	0.00000E+000	4.26033E-004	-3.27672E+002	7	...........
	46	47	4.03065E+000	-9.67251E-007	0.00000E+000	-3.89865E-006	0.00000E+000	4.25850E-004	-3.27672E+002	7	...........
	47	48	4.03068E+000	-9.66583E-007	0.00000E+000	-3.89599E-006	0.00000E+000	4.26100E-004	-3.27672E+002	7	...........
	48	49	4.03071E+000	-9.66043E-007	0.00000E+000	-3.89385E-006	0.00000E+000	4.25017E-004	-3.27672E+002	7	...........
	49	50	4.03075E+000	-9.66245E-007	0.00000E+000	-3.89470E-006	0.00000E+000	4.24467E-004	-3.27672E+002	7	...........
	50	51	4.03079E+000	-9.66107E-007	0.00000E+000	-3.89418E-006	0.00000E+000	4.25550E-004	-3.27672E+002	7	...........
	51	52	4.03083E+000	-9.66186E-007	0.00000E+000	-3.89453E-006	0.00000E+000	4.24983E-004	-3.27672E+002	7	...........
	52	53	4.03085E+000	-9.65589E-007	0.00000E+000	-3.89214E-006	0.00000E+000	4.22333E-004	-3.27672E+002	7	...........
	53	54	4.03089E+000	-9.64998E-007	0.00000E+000	-3.88980E-006	0.00000E+000	4.21900E-004	-3.27672E+002	7	...........
	54	55	4.03092E+000	-9.63342E-007	0.00000E+000	-3.88316E-006	0.00000E+000	4.23383E-004	-3.27672E+002	7	...........
	55	56	4.03096E+000	-9.63529E-007	0.00000E+000	-3.88394E-006	0.00000E+000	4.21600E-004	-3.27672E+002	7	...........
	56	57	4.03099E+000	-9.63411E-007	0.00000E+000	-3.88350E-006	0.00000E+000	4.22633E-004	-3.27672E+002	7	...........
	57	58	4.03102E+000	-9.64351E-007	0.00000E+000	-3.88732E-006	0.00000E+000	4.22833E-004	-3.27672E+002	7	...........
	58	59	4.03105E+000	-9.64348E-007	0.00000E+000	-3.88734E-006	0.00000E+000	4.22717E-004	-3.27672E+002	7	...........
	59	60	4.03108E+000	-9.62812E-007	0.00000E+000	-3.88117E-006	0.00000E+000	4.21350E-004	-3.27672E+002	7	...........
	60	61	4.03111E+000	-9.62763E-007	0.00000E+000	-3.88101E-006	0.00000E+000	4.21983E-004	-3.27672E+002	7	...........
	61	62	4.03114E+000	-9.61922E-007	0.00000E+000	-3.87764E-006	0.00000E+000	4.24100E-004	-3.27672E+002	7	...........
	62	63	4.03117E+000	-9.61863E-007	0.00000E+000	-3.87743E-006	0.00000E+000	4.21200E-004	-3.27672E+002	7	...........
	63	64	4.03119E+000	-9.61320E-007	0.00000E+000	-3.87526E-006	0.00000E+000	4.21800E-004	-3.27672E+002	7	...........
	64	65	4.03121E+000	-9.61755E-007	0.00000E+000	-3.87704E-006	0.00000E+000	4.21483E-004	-3.27672E+002	7	...........
	65	66	4.03124E+000	-9.61612E-007	0.00000E+000	-3.87649E-006	0.00000E+000	4.22083E-004	-3.27672E+002	7	...........
	66	67	4.03127E+000	-9.61350E-007	0.00000E+000	-3.87546E-006	0.00000E+000	4.23633E-004	-3.27672E+002	7	...........
	67	68	4.03129E+000	-9.61353E-007	0.00000E+000	-3.87549E-006	0.00000E+000	4.21800E-004	-3.27672E+002	7	...........
	68	69	4.03131E+000	-9.60902E-007	0.00000E+000	-3.87370E-006	0.00000E+000	4.19117E-004	-3.27672E+002	7	...........
	69	70	4.03133E+000	-9.61081E-007	0.00000E+000	-3.87443E-006	0.00000E+000	4.19500E-004	-3.27672E+002	7	...........
	70	71	4.03136E+000	-9.60486E-007	0.00000E+000	-3.87206E-006	0.00000E+000	4.20833E-004	-3.27672E+002	7	...........
	71	72	4.03137E+000	-9.61446E-007	0.00000E+000	-3.87595E-006	0.00000E+000	4.21083E-004	-3.27672E+002	7	...........
	72	73	4.03140E+000	-9.60540E-007	0.00000E+000	-3.87232E-006	0.00000E+000	4.20467E-004	-3.27672E+002	7	...........
	73	74	4.03142E+000	-9.60148E-007	0.00000E+000	-3.87075E-006	0.00000E+000	4.21267E-004	-3.27672E+002	7	...........
	74	75	4.03143E+000	-9.59720E-007	0.00000E+000	-3.86905E-006	0.00000E+000	4.20933E-004	-3.27672E+002	7	...........
	75	76	4.03145E+000	-9.59808E-007	0.00000E+000	-3.86942E-006	0.00000E+000	4.19167E-004	-3.27672E+002	7	...........
	76	77	4.03147E+000	-9.58676E-007	0.00000E+000	-3.86487E-006	0.00000E+000	4.20433E-004	-3.27672E+002	7	...........
	77	78	4.03149E+000	-9.57966E-007	0.00000E+000	-3.86203E-006	0.00000E+000	4.18517E-004	-3.27672E+002	7	...........
	78	79	4.03151E+000	-9.58066E-007	0.00000E+000	-3.86245E-006	0.00000E+000	4.18567E-004	-3.27672E+002	7	...........
	79	80	4.03153E+000	-9.58283E-007	0.00000E+000	-3.86335E-006	0.00000E+000	4.21000E-004	-3.27672E+002	7	...........
	80	81	4.03155E+000	-9.59230E-007	0.00000E+000	-3.86718E-006	0.00000E+000	4.19183E-004	-3.27672E+002	7	...........
	81	82	4.03155E+000	-9.59046E-007	0.00000E+000	-3.86644E-006	0.00000E+000	4.16200E-004	-3.27672E+002	7	...........
	82	83	4.03158E+000	-9.58030E-007	0.00000E+000	-3.86237E-006	0.00000E+000	4.18350E-004	-3.27672E+002	7	...........
	83	84	4.03159E+000	-9.57894E-007	0.00000E+000	-3.86184E-006	0.00000E+000	4.18633E-004	-3.27672E+002	7	...........
	84	85	4.03161E+000	-9.57698E-007	0.00000E+000	-3.86107E-006	0.00000E+000	4.18783E-004	-3.27672E+002	7	...........
	85	86	4.03163E+000	-9.57772E-007	0.00000E+000	-3.86138E-006	0.00000E+000	4.17067E-004	-3.27672E+002	7	...........
	86	87	4.03164E+000	-9.57246E-007	0.00000E+000	-3.85927E-006	0.00000E+000	4.19367E-004	-3.27672E+002	7	...........
	87	88	4.03166E+000	-9.56729E-007	0.00000E+000	-3.85720E-006	0.00000E+000	4.19733E-004	-3.27672E+002	7	...........
	88	89	4.03167E+000	-9.57025E-007	0.00000E+000	-3.85841E-006	0.00000E+000	4.19550E-004	-3.27672E+002	7	...........
	89	90	4.03168E+000	-9.56704E-007	0.00000E+000	-3.85713E-006	0.00000E+000	4.20967E-004	-3.27672E+002	7	...........
	90	91	4.03169E+000	-9.55835E-007	0.00000E+000	-3.85363E-006	0.00000E+000	4.20583E-004	-3.27672E+002	7	...........
	91	92	4.03171E+000	-9.56003E-007	0.00000E+000	-3.85433E-006	0.00000E+000	4.20317E-004	-3.27672E+002	7	...........
	92	93	4.03173E+000	-9.56225E-007	0.00000E+000	-3.85524E-006	0.00000E+000	4.21400E-004	-3.27672E+002	7	...........
	93	94	4.03174E+000	-9.56441E-007	0.00000E+000	-3.85612E-006	0.00000E+000	4.19900E-004	-3.27672E+002	7	...........
	94	95	4.03176E+000	-9.55710E-007	0.00000E+000	-3.85319E-006	0.00000E+000	4.20717E-004	-3.27672E+002	7	...........
	95	96	4.03177E+000	-9.55446E-007	0.00000E+000	-3.85214E-006	0.00000E+000	4.21283E-004	-3.27672E+002	7	...........
	96	97	4.03177E+000	-9.55198E-007	0.00000E+000	-3.85114E-006	0.00000E+000	4.20767E-004	-3.27672E+002	7	...........
	97	98	4.03179E+000	-9.54566E-007	0.00000E+000	-3.84861E-006	0.00000E+000	4.18367E-004	-3.27672E+002	7	...........
	98	99	4.03180E+000	-9.54220E-007	0.00000E+000	-3.84722E-006	0.00000E+000	4.19050E-004	-3.27672E+002	7	...........
	99	100	4.03181E+000	-9.54068E-007	0.00000E+000	-3.84662E-006	0.00000E+000	4.20383E-004	-3.27672E+002	7	...........
	100	101	4.03182E+000	-9.55108E-007	0.00000E+000	-3.85082E-006	0.00000E+000	4.23067E-004	-3.27672E+002	7	...........
	101	102	4.03183E+000	-9.53945E-007	0.00000E+000	-3.84615E-006	0.00000E+000	4.22833E-004	-3.27672E+002	7	...........
	102	103	4.03184E+000	-9.55260E-007	0.00000E+000	-3.85146E-006	0.00000E+000	4.21267E-004	-3.27672E+002	7	...........
	103	104	4.03186E+000	-9.55208E-007	0.00000E+000	-3.85126E-006	0.00000E+000	4.21450E-004	-3.27672E+002	7	...........
	104	105	4.03187E+000	-9.54133E-007	0.00000E+000	-3.84694E-006	0.00000E+000	4.23183E-004	-3.27672E+002	7	...........
	105	106	4.03187E+000	-9.53573E-007	0.00000E+000	-3.84469E-006	0.00000E+000	4.22567E-004	-3.27672E+002	7	...........
	106	107	4.03189E+000	-9.53078E-007	0.00000E+000	-3.84271E-006	0.00000E+000	4.23000E-004	-3.27672E+002	7	...........
	107	108	4.03190E+000	-9.52783E-007	0.00000E+000	-3.84152E-006	0.00000E+000	4.24400E-004	-3.27672E+002	7	...........
	108	109	4.03191E+000	-9.53037E-007	0.00000E+000	-3.84255E-006	0.00000E+000	4.23500E-004	-3.27672E+002	7	...........
	109	110	4.03192E+000	-9.52642E-007	0.00000E+000	-3.84098E-006	0.00000E+000	4.22317E-004	-3.27672E+002	7	...........
	110	111	4.03193E+000	-9.52779E-007	0.00000E+000	-3.84154E-006	0.00000E+000	4.24483E-004	-3.27672E+002	7	...........
	111	112	4.03193E+000	-9.52644E-007	0.00000E+000	-3.84100E-006	0.00000E+000	4.24317E-004	-3.27672E+002	7	...........
	112	113	4.03195E+000	-9.52325E-007	0.00000E+000	-3.83972E-006	0.00000E+000	4.22917E-004	-3.27672E+002	7	...........
	113	114	4.03195E+000	-9.53622E-007	0.00000E+000	-3.84496E-006	0.00000E+000	4.22833E-004	-3.27672E+002	7	...........
	114	115	4.03196E+000	-9.52935E-007	0.00000E+000	-3.84220E-006	0.00000E+000	4.21450E-004	-3.27672E+002	7	...........
	115	116	4.03198E+000	-9.52413E-007	0.00000E+000	-3.84011E-006	0.00000E+000	4.24767E-004	-3.27672E+002	7	...........
	116	117	4.03199E+000	-9.51917E-007	0.00000E+000	-3.83812E-006	0.00000E+000	4.24900E-004	-3.27672E+002	7	...........
	117	118	4.03200E+000	-9.52514E-007	0.00000E+000	-3.84053E-006	0.00000E+000	4.24850E-004	-3.27672E+002	7	...........
	118	119	4.03201E+000	-9.51068E-007	0.00000E+000	-3.83471E-006	0.00000E+000	4.26117E-004	-3.27672E+002	7	...........
	119	120	4.03201E+000	-9.51651E-007	0.00000E+000	-3.83707E-006	0.00000E+000	4.26300E-004	-3.27672E+002	7	...........
	120	121	4.03203E+000	-9.50894E-007	0.00000E+000	-3.83404E-006	0.00000E+000	4.28183E-004	-3.27672E+002	7	...........
	121	122	4.03204E+000	-9.50428E-007	0.00000E+000	-3.83216E-006	0.00000E+000	4.25083E-004	-3.27672E+002	7	...........
	122	123	4.03204E+000	-9.51439E-007	0.00000E+000	-3.83624E-006	0.00000E+000	4.28733E-004	-3.27672E+002	7	...........
	123	124	4.03205E+000	-9.51428E-007	0.00000E+000	-3.83621E-006	0.00000E+000	4.29167E-004	-3.27672E+002	7	...........
	124	125	4.03206E+000	-9.51019E-007	0.00000E+000	-3.83457E-006	0.00000E+000	4.27450E-004	-3.27672E+002	7	...........
	125	126	4.03207E+000	-9.50456E-007	0.00000E+000	-3.83231E-006	0.00000E+000	4.25717E-004	-3.27672E+002	7	...........
	126	127	4.03208E+000	-9.49940E-007	0.00000E+000	-3.83024E-006	0.00000E+000	4.28717E-004	-3.27672E+002	7	...........
	127	128	4.03209E+000	-9.50461E-007	0.00000E+000	-3.83234E-006	0.00000E+000	4.27967E-004	-3.27672E+002	7	...........
	128	129	4.03210E+000	-9.50284E-007	0.00000E+000	-3.83164E-006	0.00000E+000	4.26683E-004	-3.27672E+002	7	...........
	129	130	4.03210E+000	-9.50489E-007	0.00000E+000	-3.83247E-006	0.00000E+000	4.29100E-004	-3.27672E+002	7	...........
	130	131	4.03212E+000	-9.49598E-007	0.00000E+000	-3.82889E-006	0.00000E+000	4.27883E-004	-3.27672E+002	7	...........
	131	132	4.03213E+000	-9.49425E-007	0.00000E+000	-3.82820E-006	0.00000E+000	4.29117E-004	-3.27672E+002	7	...........
	132	133	4.03214E+000	-9.50294E-007	0.00000E+000	-3.83172E-006	0.00000E+000	4.30050E-004	-3.27672E+002	7	...........
	133	134	4.03215E+000	-9.49621E-007	0.00000E+000	-3.82901E-006	0.00000E+000	4.31033E-004	-3.27672E+002	7	...........
	134	135	4.03216E+000	-9.49197E-007	0.00000E+000	-3.82732E-006	0.00000E+000	4.29167E-004	-3.27672E+002	7	...........
	135	136	4.03216E+000	-9.48846E-007	0.00000E+000	-3.82590E-006	0.00000E+000	4.28433E-004	-3.27672E+002	7	...........
	136	137	4.03217E+000	-9.49519E-007	0.00000E+000	-3.82862E-006	0.00000E+000	4.30333E-004	-3.27672E+002	7	...........
	137	138	4.03219E+000	-9.49017E-007	0.00000E+000	-3.82661E-006	0.00000E+000	4.31317E-004	-3.27672E+002	7	...........
	138	139	4.03220E+000	-9.48566E-007	0.00000E+000	-3.82481E-006	0.00000E+000	4.31717E-004	-3.27672E+002	7	...........
	139	140	4.03220E+000	-9.49021E-007	0.00000E+000	-3.82664E-006	0.00000E+000	4.29800E-004	-3.27672E+002	7	...........
	140	141	4.03222E+000	-9.48790E-007	0.00000E+000	-3.82572E-006	0.00000E+000	4.33417E-004	-3.27672E+002	7	...........
	141	142	4.03222E+000	-9.47846E-007	0.00000E+000	-3.82192E-006	0.00000E+000	4.30600E-004	-3.27672E+002	7	...........
	142	143	4.03222E+000	-9.47145E-007	0.00000E+000	-3.81910E-006	0.00000E+000	4.30633E-004	-3.27672E+002	7	...........
	143	144	4.03225E+000	-9.47643E-007	0.00000E+000	-3.82113E-006	0.00000E+000	4.31700E-004	-3.27672E+002	7	...........
	144	145	4.03224E+000	-9.47904E-007	0.00000E+000	-3.82218E-006	0.00000E+000	4.32383E-004	-3.27672E+002	7	...........
	145	146	4.03225E+000	-9.48415E-007	0.00000E+000	-3.82425E-006	0.00000E+000	4.33083E-004	-3.27672E+002	7	...........
	146	147	4.03226E+000	-9.48143E-007	0.00000E+000	-3.82316E-006	0.00000E+000	4.33300E-004	-3.27672E+002	7	...........
	147	148	4.03228E+000	-9.47681E-007	0.00000E+000	-3.82132E-006	0.00000E+000	4.35183E-004	-3.27672E+002	7	...........
	148	149	4.03229E+000	-9.47288E-007	0.00000E+000	-3.81973E-006	0.00000E+000	4.36100E-004	-3.27672E+002	7	...........
	149	150	4.03230E+000	-9.46677E-007	0.00000E+000	-3.81729E-006	0.00000E+000	4.35500E-004	-3.27672E+002	7	...........
	150	151	4.03231E+000	-9.46345E-007	0.00000E+000	-3.81595E-006	0.00000E+000	4.32800E-004	-3.27672E+002	7	...........
	151	152	4.03232E+000	-9.46649E-007	0.00000E+000	-3.81719E-006	0.00000E+000	4.32833E-004	-3.27672E+002	7	...........
	152	153	4.03232E+000	-9.46152E-007	0.00000E+000	-3.81518E-006	0.00000E+000	4.32300E-004	-3.27672E+002	7	...........
	153	154	4.03233E+000	-9.46239E-007	0.00000E+000	-3.81555E-006	0.00000E+000	4.35150E-004	-3.27672E+002	7	...........
	154	155	4.03233E+000	-9.46353E-007	0.00000E+000	-3.81601E-006	0.00000E+000	4.37200E-004	-3.27672E+002	7	...........
	155	156	4.03233E+000	-9.46622E-007	0.00000E+000	-3.81710E-006	0.00000E+000	4.33700E-004	-3.27672E+002	7	...........
	156	157	4.03235E+000	-9.46656E-007	0.00000E+000	-3.81725E-006	0.00000E+000	4.34000E-004	-3.27672E+002	7	...........
	157	158	4.03235E+000	-9.46681E-007	0.00000E+000	-3.81735E-006	0.00000E+000	4.35733E-004	-3.27672E+002	7	...........
	158	159	4.03235E+000	-9.46658E-007	0.00000E+000	-3.81726E-006	0.00000E+000	4.39050E-004	-3.27672E+002	7	...........
	159	160	4.03236E+000	-9.46474E-007	0.00000E+000	-3.81652E-006	0.00000E+000	4.38933E-004	-3.27672E+002	7	...........
	160	161	4.03237E+000	-9.46550E-007	0.00000E+000	-3.81685E-006	0.00000E+000	4.37850E-004	-3.27672E+002	7	...........
	161	162	4.03238E+000	-9.46335E-007	0.00000E+000	-3.81598E-006	0.00000E+000	4.40267E-004	-3.27672E+002	7	...........
	162	163	4.03240E+000	-9.45679E-007	0.00000E+000	-3.81335E-006	0.00000E+000	4.36600E-004	-3.27672E+002	7	...........
	163	164	4.03240E+000	-9.44470E-007	0.00000E+000	-3.80848E-006	0.00000E+000	4.39367E-004	-3.27672E+002	7	...........
	164	165	4.03241E+000	-9.44469E-007	0.00000E+000	-3.80849E-006	0.00000E+000	4.38500E-004	-3.27672E+002	7	...........
	165	166	4.03241E+000	-9.45139E-007	0.00000E+000	-3.81119E-006	0.00000E+000	4.37350E-004	-3.27672E+002	7	...........
	166	167	4.03244E+000	-9.46424E-007	0.00000E+000	-3.81639E-006	0.00000E+000	4.39517E-004	-3.27672E+002	7	...........
	167	168	4.03243E+000	-9.45302E-007	0.00000E+000	-3.81186E-006	0.00000E+000	4.35117E-004	-3.27672E+002	7	...........
	168	169	4.03243E+000	-9.44839E-007	0.00000E+000	-3.81000E-006	0.00000E+000	4.37617E-004	-3.27672E+002	7	...........
	169	170	4.03244E+000	-9.44885E-007	0.00000E+000	-3.81019E-006	0.00000E+000	4.39233E-004	-3.27672E+002	7	...........
	170	171	4.03245E+000	-9.45097E-007	0.00000E+000	-3.81106E-006	0.00000E+000	4.38817E-004	-3.27672E+002	7	...........
	171	172	4.03247E+000	-9.44382E-007	0.00000E+000	-3.80819E-006	0.00000E+000	4.38133E-004	-3.27672E+002	7	...........
	172	173	4.03247E+000	-9.44644E-007	0.00000E+000	-3.80925E-006	0.00000E+000	4.40733E-004	-3.27672E+002	7	...........
	173	174	4.03248E+000	-9.44663E-007	0.00000E+000	-3.80933E-006	0.00000E+000	4.40200E-004	-3.27672E+002	7	...........
	174	175	4.03249E+000	-9.44232E-007	0.00000E+000	-3.80760E-006	0.00000E+000	4.39283E-004	-3.27672E+002	7	...........
	175	176	4.03250E+000	-9.43738E-007	0.00000E+000	-3.80562E-006	0.00000E+000	4.38783E-004	-3.27672E+002	7	...........
	176	177	4.03251E+000	-9.44346E-007	0.00000E+000	-3.80809E-006	0.00000E+000	4.39167E-004	-3.27672E+002	7	...........
	177	178	4.03251E+000	-9.44462E-007	0.00000E+000	-3.80855E-006	0.00000E+000	4.41067E-004	-3.27672E+002	7	...........
	178	179	4.03251E+000	-9.45022E-007	0.00000E+000	-3.81081E-006	0.00000E+000	4.42333E-004	-3.27672E+002	7	...........
	179	180	4.03251E+000	-9.44542E-007	0.00000E+000	-3.80888E-006	0.00000E+000	4.41900E-004	-3.27672E+002	7	...........
	180	181	4.03253E+000	-9.44480E-007	0.00000E+000	-3.80864E-006	0.00000E+000	4.42017E-004	-3.27672E+002	7	...........
	181	182	4.03254E+000	-9.43991E-007	0.00000E+000	-3.80668E-006	0.00000E+000	4.41683E-004	-3.27672E+002	7	...........
	182	183	4.03255E+000	-9.44771E-007	0.00000E+000	-3.80984E-006	0.00000E+000	4.40333E-004	-3.27672E+002	7	...........
	183	184	4.03256E+000	-9.44288E-007	0.00000E+000	-3.80790E-006	0.00000E+000	4.43300E-004	-3.27672E+002	7	...........
	184	185	4.03257E+000	-9.43202E-007	0.00000E+000	-3.80353E-006	0.00000E+000	4.41283E-004	-3.27672E+002	7	...........
	185	186	4.03257E+000	-9.43246E-007	0.00000E+000	-3.80371E-006	0.00000E+000	4.41917E-004	-3.27672E+002	7	...........
	186	187	4.03257E+000	-9.42992E-007	0.00000E+000	-3.80269E-006	0.00000E+000	4.41250E-004	-3.27672E+002	7	...........
	187	188	4.03259E+000	-9.43518E-007	0.00000E+000	-3.80482E-006	0.00000E+000	4.41117E-004	-3.27672E+002	7	...........
	188	189	4.03259E+000	-9.43737E-007	0.00000E+000	-3.80570E-006	0.00000E+000	4.40617E-004	-3.27672E+002	7	...........
	189	190	4.03260E+000	-9.44021E-007	0.00000E+000	-3.80686E-006	0.00000E+000	4.42467E-004	-3.27672E+002	7	...........
	190	191	4.03260E+000	-9.43404E-007	0.00000E+000	-3.80437E-006	0.00000E+000	4.43133E-004	-3.27672E+002	7	...........
	191	192	4.03261E+000	-9.43088E-007	0.00000E+000	-3.80311E-006	0.00000E+000	4.44417E-004	-3.27672E+002	7	...........
	192	193	4.03261E+000	-9.43550E-007	0.00000E+000	-3.80497E-006	0.00000E+000	4.41283E-004	-3.27672E+002	7	...........
	193	194	4.03261E+000	-9.42501E-007	0.00000E+000	-3.80074E-006	0.00000E+000	4.38733E-004	-3.27672E+002	7	...........
	194	195	4.03261E+000	-9.43259E-007	0.00000E+000	-3.80380E-006	0.00000E+000	4.39900E-004	-3.27672E+002	7	...........
	195	196	4.03263E+000	-9.42683E-007	0.00000E+000	-3.80150E-006	0.00000E+000	4.41317E-004	-3.27672E+002	7	...........
	196	197	4.03263E+000	-9.42841E-007	0.00000E+000	-3.80213E-006	0.00000E+000	4.40767E-004	-3.27672E+002	7	...........
	197	198	4.03264E+000	-9.42449E-007	0.00000E+000	-3.80056E-006	0.00000E+000	4.42267E-004	-3.27672E+002	7	...........
	198	199	4.03265E+000	-9.42576E-007	0.00000E+000	-3.80108E-006	0.00000E+000	4.41350E-004	-3.27672E+002	7	...........
	199	200	4.03266E+000	-9.42708E-007	0.00000E+000	-3.80162E-006	0.00000E+000	4.42767E-004	-3.27672E+002	7	...........
	200	201	4.03267E+000	-9.41539E-007	0.00000E+000	-3.79691E-006	0.00000E+000	4.40417E-004	-3.27672E+002	7	...........
	201	202	4.03267E+000	-9.42519E-007	0.00000E+000	-3.80086E-006	0.00000E+000	4.43183E-004	-3.27672E+002	7	...........
	202	203	4.03267E+000	-9.41905E-007	0.00000E+000	-3.79839E-006	0.00000E+000	4.43850E-004	-3.27672E+002	7	...........
	203	204	4.03268E+000	-9.42114E-007	0.00000E+000	-3.79924E-006	0.00000E+000	4.42467E-004	-3.27672E+002	7	...........
	204	205	4.03268E+000	-9.41032E-007	0.00000E+000	-3.79488E-006	0.00000E+000	4.43300E-004	-3.27672E+002	7	...........
	205	206	4.03269E+000	-9.40876E-007	0.00000E+000	-3.79426E-006	0.00000E+000	4.42567E-004	-3.27672E+002	7	...........
	206	207	4.03270E+000	-9.40989E-007	0.00000E+000	-3.79473E-006	0.00000E+000	4.42183E-004	-3.27672E+002	7	...........
	207	208	4.03272E+000	-9.40564E-007	0.00000E+000	-3.79303E-006	0.00000E+000	4.42450E-004	-3.27672E+002	7	...........
	208	209	4.03272E+000	-9.40759E-007	0.00000E+000	-3.79382E-006	0.00000E+000	4.41617E-004	-3.27672E+002	7	...........
	209	210	4.03271E+000	-9.40798E-007	0.00000E+000	-3.79397E-006	0.00000E+000	4.43267E-004	-3.27672E+002	7	...........
	210	211	4.03271E+000	-9.40549E-007	0.00000E+000	-3.79296E-006	0.00000E+000	4.44200E-004	-3.27672E+002	7	...........
	211	212	4.03272E+000	-9.41143E-007	0.00000E+000	-3.79537E-006	0.00000E+000	4.44883E-004	-3.27672E+002	7	...........
	212	213	4.03273E+000	-9.41408E-007	0.00000E+000	-3.79644E-006	0.00000E+000	4.44633E-004	-3.27672E+002	7	...........
	213	214	4.03273E+000	-9.40448E-007	0.00000E+000	-3.79257E-006	0.00000E+000	4.41017E-004	-3.27672E+002	7	...........
	214	215	4.03275E+000	-9.40152E-007	0.00000E+000	-3.79140E-006	0.00000E+000	4.44433E-004	-3.27672E+002	7	...........
	215	216	4.03274E+000	-9.40274E-007	0.00000E+000	-3.79188E-006	0.00000E+000	4.44550E-004	-3.27672E+002	7	...........
	216	217	4.03275E+000	-9.39616E-007	0.00000E+000	-3.78923E-006	0.00000E+000	4.43650E-004	-3.27672E+002	7	...........
	217	218	4.03276E+000	-9.39693E-007	0.00000E+000	-3.78956E-006	0.00000E+000	4.45133E-004	-3.27672E+002	7	...........
	218	219	4.03276E+000	-9.40344E-007	0.00000E+000	-3.79218E-006	0.00000E+000	4.48217E-004	-3.27672E+002	7	...........
	219	220	4.03276E+000	-9.40175E-007	0.00000E+000	-3.79150E-006	0.00000E+000	4.43850E-004	-3.27672E+002	7	...........
	220	221	4.03277E+000	-9.40242E-007	0.00000E+000	-3.79178E-006	0.00000E+000	4.45650E-004	-3.27672E+002	7	...........
	221	222	4.03278E+000	-9.41003E-007	0.00000E+000	-3.79485E-006	0.00000E+000	4.43217E-004	-3.27672E+002	7	...........
	222	223	4.03277E+000	-9.40173E-007	0.00000E+000	-3.79150E-006	0.00000E+000	4.43400E-004	-3.27672E+002	7	...........
	223	224	4.03278E+000	-9.40271E-007	0.00000E+000	-3.79191E-006	0.00000E+000	4.44167E-004	-3.27672E+002	7	...........
	224	225	4.03279E+000	-9.40168E-007	0.00000E+000	-3.79150E-006	0.00000E+000	4.44350E-004	-3.27672E+002	7	...........
	225	226	4.03279E+000	-9.40224E-007	0.00000E+000	-3.79172E-006	0.00000E+000	4.46267E-004	-3.27672E+002	7	...........
	226	227	4.03279E+000	-9.40803E-007	0.00000E+000	-3.79406E-006	0.00000E+000	4.43667E-004	-3.27672E+002	7	...........
	227	228	4.03280E+000	-9.40231E-007	0.00000E+000	-3.79177E-006	0.00000E+000	4.44167E-004	-3.27672E+002	7	...........
	228	229	4.03280E+000	-9.39326E-007	0.00000E+000	-3.78812E-006	0.00000E+000	4.45017E-004	-3.27672E+002	7	...........
	229	230	4.03280E+000	-9.38907E-007	0.00000E+000	-3.78643E-006	0.00000E+000	4.43550E-004	-3.27672E+002	7	...........
	230	231	4.03280E+000	-9.38862E-007	0.00000E+000	-3.78624E-006	0.00000E+000	4.42100E-004	-3.27672E+002	7	...........
	231	232	4.03282E+000	-9.39374E-007	0.00000E+000	-3.78833E-006	0.00000E+000	4.40867E-004	-3.27672E+002	7	...........
	232	233	4.03283E+000	-9.40965E-007	0.00000E+000	-3.79475E-006	0.00000E+000	4.43583E-004	-3.27672E+002	7	...........
	233	234	4.03283E+000	-9.40416E-007	0.00000E+000	-3.79254E-006	0.00000E+000	4.42883E-004	-3.27672E+002	7	...........
	234	235	4.03284E+000	-9.39953E-007	0.00000E+000	-3.79068E-006	0.00000E+000	4.45517E-004	-3.27672E+002	7	...........
	235	236	4.03284E+000	-9.39311E-007	0.00000E+000	-3.78809E-006	0.00000E+000	4.44217E-004	-3.27672E+002	7	...........
	236	237	4.03284E+000	-9.38929E-007	0.00000E+000	-3.78655E-006	0.00000E+000	4.42683E-004	-3.27672E+002	7	...........
	237	238	4.03284E+000	-9.39172E-007	0.00000E+000	-3.78753E-006	0.00000E+000	4.45117E-004	-3.27672E+002	7	...........
	238	239	4.03285E+000	-9.38860E-007	0.00000E+000	-3.78628E-006	0.00000E+000	4.44867E-004	-3.27672E+002	7	...........
	239	240	4.03285E+000	-9.38535E-007	0.00000E+000	-3.78497E-006	0.00000E+000	4.43967E-004	-3.27672E+002	7	...........
	240	241	4.03286E+000	-9.39305E-007	0.00000E+000	-3.78808E-006	0.00000E+000	4.45533E-004	-3.27672E+002	7	...........
	241	242	4.03285E+000	-9.38528E-007	0.00000E+000	-3.78494E-006	0.00000E+000	4.44483E-004	-3.27672E+002	7	...........
	242	243	4.03286E+000	-9.38548E-007	0.00000E+000	-3.78503E-006	0.00000E+000	4.45283E-004	-3.27672E+002	7	...........
	243	244	4.03287E+000	-9.38716E-007	0.00000E+000	-3.78572E-006	0.00000E+000	4.44333E-004	-3.27672E+002	7	...........
	244	245	4.03287E+000	-9.38129E-007	0.00000E+000	-3.78335E-006	0.00000E+000	4.46433E-004	-3.27672E+002	7	...........
	245	246	4.03287E+000	-9.38587E-007	0.00000E+000	-3.78520E-006	0.00000E+000	4.45333E-004	-3.27672E+002	7	...........
	246	247	4.03288E+000	-9.39253E-007	0.00000E+000	-3.78789E-006	0.00000E+000	4.44933E-004	-3.27672E+002	7	...........
	247	248	4.03288E+000	-9.38667E-007	0.00000E+000	-3.78553E-006	0.00000E+000	4.44517E-004	-3.27672E+002	7	...........
	248	249	4.03289E+000	-9.38693E-007	0.00000E+000	-3.78564E-006	0.00000E+000	4.44933E-004	-3.27672E+002	7	...........
	249	250	4.03290E+000	-9.38563E-007	0.00000E+000	-3.78513E-006	0.00000E+000	4.47317E-004	-3.27672E+002	7	...........
	250	251	4.03290E+000	-9.36885E-007	0.00000E+000	-3.77836E-006	0.00000E+000	4.42883E-004	-3.27672E+002	7	...........
	251	252	4.03291E+000	-9.36653E-007	0.00000E+000	-3.77744E-006	0.00000E+000	4.44583E-004	-3.27672E+002	7	...........
	252	253	4.03290E+000	-9.37188E-007	0.00000E+000	-3.77959E-006	0.00000E+000	4.44317E-004	-3.27672E+002	7	...........
	253	254	4.03290E+000	-9.38022E-007	0.00000E+000	-3.78295E-006	0.00000E+000	4.46900E-004	-3.27672E+002	7	...........
	254	255	4.03290E+000	-9.38281E-007	0.00000E+000	-3.78399E-006	0.00000E+000	4.44633E-004	-3.27672E+002	7	...........
	255	256	4.03290E+000	-9.37979E-007	0.00000E+000	-3.78278E-006	0.00000E+000	4.47250E-004	-3.27672E+002	7	...........
	256	257	4.03290E+000	-9.37847E-007	0.00000E+000	-3.78224E-006	0.00000E+000	4.44550E-004	-3.27672E+002	7	...........
	257	258	4.03292E+000	-9.37148E-007	0.00000E+000	-3.77944E-006	0.00000E+000	4.45367E-004	-3.27672E+002	7	...........
	258	259	4.03292E+000	-9.37458E-007	0.00000E+000	-3.78069E-006	0.00000E+000	4.45300E-004	-3.27672E+002	7	...........
	259	260	4.03292E+000	-9.37745E-007	0.00000E+000	-3.78185E-006	0.00000E+000	4.44433E-004	-3.27672E+002	7	...........
	260	261	4.03292E+000	-9.37077E-007	0.00000E+000	-3.77916E-006	0.00000E+000	4.44683E-004	-3.27672E+002	7	...........
	261	262	4.03294E+000	-9.37155E-007	0.00000E+000	-3.77949E-006	0.00000E+000	4.43317E-004	-3.27672E+002	7	...........
	262	263	4.03294E+000	-9.37761E-007	0.00000E+000	-3.78193E-006	0.00000E+000	4.42983E-004	-3.27672E+002	7	...........
	263	264	4.03294E+000	-9.37747E-007	0.00000E+000	-3.78187E-006	0.00000E+000	4.45017E-004	-3.27672E+002	7	...........
	264	265	4.03294E+000	-9.37614E-007	0.00000E+000	-3.78134E-006	0.00000E+000	4.42717E-004	-3.27672E+002	7	...........
	265	266	4.03294E+000	-9.37837E-007	0.00000E+000	-3.78224E-006	0.00000E+000	4.42850E-004	-3.27672E+002	7	...........
	266	267	4.03295E+000	-9.37589E-007	0.00000E+000	-3.78125E-006	0.00000E+000	4.43367E-004	-3.27672E+002	7	...........
	267	268	4.03295E+000	-9.37033E-007	0.00000E+000	-3.77901E-006	0.00000E+000	4.45050E-004	-3.27672E+002	7	...........
	268	269	4.03296E+000	-9.37581E-007	0.00000E+000	-3.78122E-006	0.00000E+000	4.43500E-004	-3.27672E+002	7	...........
	269	270	4.03296E+000	-9.37046E-007	0.00000E+000	-3.77907E-006	0.00000E+000	4.43450E-004	-3.27672E+002	7	...........
	270	271	4.03297E+000	-9.36864E-007	0.00000E+000	-3.77834E-006	0.00000E+000	4.44183E-004	-3.27672E+002	7	...........
	271	272	4.03296E+000	-9.36203E-007	0.00000E+000	-3.77567E-006	0.00000E+000	4.43433E-004	-3.27672E+002	7	...........
	272	273	4.03296E+000	-9.36221E-007	0.00000E+000	-3.77574E-006	0.00000E+000	4.41767E-004	-3.27672E+002	7	...........
	273	274	4.03297E+000	-9.35282E-007	0.00000E+000	-3.77197E-006	0.00000E+000	4.45483E-004	-3.27672E+002	7	...........
	274	275	4.03298E+000	-9.35318E-007	0.00000E+000	-3.77211E-006	0.00000E+000	4.43617E-004	-3.27672E+002	7	...........
	275	276	4.03298E+000	-9.35769E-007	0.00000E+000	-3.77394E-006	0.00000E+000	4.46067E-004	-3.27672E+002	7	...........
	276	277	4.03299E+000	-9.35122E-007	0.00000E+000	-3.77133E-006	0.00000E+000	4.44433E-004	-3.27672E+002	7	...........
	277	278	4.03298E+000	-9.35897E-007	0.00000E+000	-3.77445E-006	0.00000E+000	4.40217E-004	-3.27672E+002	7	...........
	278	279	4.03299E+000	-9.35990E-007	0.00000E+000	-3.77484E-006	0.00000E+000	4.44300E-004	-3.27672E+002	7	...........
	279	280	4.03299E+000	-9.34812E-007	0.00000E+000	-3.77009E-006	0.00000E+000	4.42767E-004	-3.27672E+002	7	...........
	280	281	4.03300E+000	-9.34972E-007	0.00000E+000	-3.77075E-006	0.00000E+000	4.42567E-004	-3.27672E+002	7	...........
	281	282	4.03300E+000	-9.34335E-007	0.00000E+000	-3.76817E-006	0.00000E+000	4.42533E-004	-3.27672E+002	7	...........
	282	283	4.03300E+000	-9.34918E-007	0.00000E+000	-3.77052E-006	0.00000E+000	4.43917E-004	-3.27672E+002	7	...........
	283	284	4.03300E+000	-9.34695E-007	0.00000E+000	-3.76962E-006	0.00000E+000	4.43317E-004	-3.27672E+002	7	...........
	284	285	4.03300E+000	-9.34847E-007	0.00000E+000	-3.77024E-006	0.00000E+000	4.40300E-004	-3.27672E+002	7	...........
	285	286	4.03301E+000	-9.34569E-007	0.00000E+000	-3.76912E-006	0.00000E+000	4.44067E-004	-3.27672E+002	7	...........
	286	287	4.03301E+000	-9.35153E-007	0.00000E+000	-3.77149E-006	0.00000E+000	4.44050E-004	-3.27672E+002	7	...........
	287	288	4.03302E+000	-9.35238E-007	0.00000E+000	-3.77183E-006	0.00000E+000	4.43633E-004	-3.27672E+002	7	...........
	288	289	4.03303E+000	-9.34969E-007	0.00000E+000	-3.77076E-006	0.00000E+000	4.42467E-004	-3.27672E+002	7	...........
	289	290	4.03302E+000	-9.36000E-007	0.00000E+000	-3.77490E-006	0.00000E+000	4.42883E-004	-3.27672E+002	7	...........
	290	291	4.03303E+000	-9.35337E-007	0.00000E+000	-3.77224E-006	0.00000E+000	4.44167E-004	-3.27672E+002	7	...........
	291	292	4.03303E+000	-9.35375E-007	0.00000E+000	-3.77240E-006	0.00000E+000	4.43033E-004	-3.27672E+002	7	...........
	292	293	4.03303E+000	-9.35381E-007	0.00000E+000	-3.77242E-006	0.00000E+000	4.44017E-004	-3.27672E+002	7	...........
	293	294	4.03303E+000	-9.34140E-007	0.00000E+000	-3.76741E-006	0.00000E+000	4.46633E-004	-3.27672E+002	7	...........
	294	295	4.03304E+000	-9.34261E-007	0.00000E+000	-3.76791E-006	0.00000E+000	4.43967E-004	-3.27672E+002	7	...........
	295	296	4.03306E+000	-9.33391E-007	0.00000E+000	-3.76442E-006	0.00000E+000	4.43600E-004	-3.27672E+002	7	...........
	296	297	4.03306E+000	-9.32892E-007	0.00000E+000	-3.76241E-006	0.00000E+000	4.43067E-004	-3.27672E+002	7	...........
	297	298	4.03306E+000	-9.33978E-007	0.00000E+000	-3.76679E-006	0.00000E+000	4.45417E-004	-3.27672E+002	7	...........
	298	299	4.03306E+000	-9.33270E-007	0.00000E+000	-3.76393E-006	0.00000E+000	4.44617E-004	-3.27672E+002	7	...........
	299	300	4.03306E+000	-9.34213E-007	0.00000E+000	-3.76774E-006	0.00000E+000	4.43500E-004	-3.27672E+002	7	...........
	300	301	4.03306E+000	-9.34017E-007	0.00000E+000	-3.76695E-006	0.00000E+000	4.44950E-004	-3.27672E+002	7	...........
	301	302	4.03307E+000	-9.33938E-007	0.00000E+000	-3.76663E-006	0.00000E+000	4.41533E-004	-3.27672E+002	7	...........
	302	303	4.03307E+000	-9.33634E-007	0.00000E+000	-3.76541E-006	0.00000E+000	4.40067E-004	-3.27672E+002	7	...........
	303	304	4.03307E+000	-9.34212E-007	0.00000E+000	-3.76774E-006	0.00000E+000	4.43050E-004	-3.27672E+002	7	...........
	304	305	4.03308E+000	-9.33974E-007	0.00000E+000	-3.76679E-006	0.00000E+000	4.40867E-004	-3.27672E+002	7	...........
	305	306	4.03308E+000	-9.34279E-007	0.00000E+000	-3.76802E-006	0.00000E+000	4.41817E-004	-3.27672E+002	7	...........
	306	307	4.03307E+000	-9.32830E-007	0.00000E+000	-3.76217E-006	0.00000E+000	4.43733E-004	-3.27672E+002	7	...........
	307	308	4.03309E+000	-9.33486E-007	0.00000E+000	-3.76483E-006	0.00000E+000	4.41050E-004	-3.27672E+002	7	...........
	308	309	4.03309E+000	-9.33846E-007	0.00000E+000	-3.76628E-006	0.00000E+000	4.44600E-004	-3.27672E+002	7	...........
	309	310	4.03309E+000	-9.33840E-007	0.00000E+000	-3.76626E-006	0.00000E+000	4.44850E-004	-3.27672E+002	7	...........
	310	311	4.03309E+000	-9.33638E-007	0.00000E+000	-3.76545E-006	0.00000E+000	4.44317E-004	-3.27672E+002	7	...........
	311	312	4.03309E+000	-9.34199E-007	0.00000E+000	-3.76771E-006	0.00000E+000	4.41867E-004	-3.27672E+002	7	...........
	312	313	4.03310E+000	-9.33029E-007	0.00000E+000	-3.76300E-006	0.00000E+000	4.41017E-004	-3.27672E+002	7	...........
	313	314	4.03310E+000	-9.33788E-007	0.00000E+000	-3.76606E-006	0.00000E+000	4.40867E-004	-3.27672E+002	7	...........
	314	315	4.03312E+000	-9.33176E-007	0.00000E+000	-3.76361E-006	0.00000E+000	4.43033E-004	-3.27672E+002	7	...........
	315	316	4.03311E+000	-9.33110E-007	0.00000E+000	-3.76333E-006	0.00000E+000	4.42300E-004	-3.27672E+002	7	...........
	316	317	4.03312E+000	-9.33401E-007	0.00000E+000	-3.76451E-006	0.00000E+000	4.41383E-004	-3.27672E+002	7	...........
	317	318	4.03312E+000	-9.33034E-007	0.00000E+000	-3.76304E-006	0.00000E+000	4.42017E-004	-3.27672E+002	7	...........
	318	319	4.03312E+000	-9.32472E-007	0.00000E+000	-3.76077E-006	0.00000E+000	4.42100E-004	-3.27672E+002	7	...........
	319	320	4.03312E+000	-9.32580E-007	0.00000E+000	-3.76120E-006	0.00000E+000	4.45583E-004	-3.27672E+002	7	...........
	320	321	4.03312E+000	-9.33918E-007	0.00000E+000	-3.76660E-006	0.00000E+000	4.41050E-004	-3.27672E+002	7	...........
	321	322	4.03312E+000	-9.33596E-007	0.00000E+000	-3.76530E-006	0.00000E+000	4.43483E-004	-3.27672E+002	7	...........
	322	323	4.03313E+000	-9.33224E-007	0.00000E+000	-3.76381E-006	0.00000E+000	4.42733E-004	-3.27672E+002	7	...........
	323	324	4.03312E+000	-9.32962E-007	0.00000E+000	-3.76275E-006	0.00000E+000	4.45483E-004	-3.27672E+002	7	...........
	324	325	4.03314E+000	-9.33129E-007	0.00000E+000	-3.76344E-006	0.00000E+000	4.42667E-004	-3.27672E+002	7	...........
	325	326	4.03313E+000	-9.32495E-007	0.00000E+000	-3.76087E-006	0.00000E+000	4.42667E-004	-3.27672E+002	7	...........
	326	327	4.03313E+000	-9.32828E-007	0.00000E+000	-3.76222E-006	0.00000E+000	4.42417E-004	-3.27672E+002	7	...........
	327	328	4.03314E+000	-9.32155E-007	0.00000E+000	-3.75951E-006	0.00000E+000	4.41783E-004	-3.27672E+002	7	...........
	328	329	4.03313E+000	-9.32874E-007	0.00000E+000	-3.76241E-006	0.00000E+000	4.44517E-004	-3.27672E+002	7	...........
	329	330	4.03315E+000	-9.32044E-007	0.00000E+000	-3.75907E-006	0.00000E+000	4.43883E-004	-3.27672E+002	7	...........
	330	331	4.03315E+000	-9.32460E-007	0.00000E+000	-3.76075E-006	0.00000E+000	4.42417E-004	-3.27672E+002	7	...........
	331	332	4.03314E+000	-9.31633E-007	0.00000E+000	-3.75741E-006	0.00000E+000	4.44033E-004	-3.27672E+002	7	...........
	332	333	4.03315E+000	-9.31599E-007	0.00000E+000	-3.75728E-006	0.00000E+000	4.41650E-004	-3.27672E+002	7	...........
	333	334	4.03316E+000	-9.31988E-007	0.00000E+000	-3.75885E-006	0.00000E+000	4.43317E-004	-3.27672E+002	7	...........
	334	335	4.03315E+000	-9.32085E-007	0.00000E+000	-3.75924E-006	0.00000E+000	4.41950E-004	-3.27672E+002	7	...........
	335	336	4.03316E+000	-9.32116E-007	0.00000E+000	-3.75937E-006	0.00000E+000	4.44400E-004	-3.27672E+002	7	...........
	336	337	4.03316E+000	-9.31720E-007	0.00000E+000	-3.75778E-006	0.00000E+000	4.41700E-004	-3.27672E+002	7	...........
	337	338	4.03316E+000	-9.31355E-007	0.00000E+000	-3.75631E-006	0.00000E+000	4.42533E-004	-3.27672E+002	7	...........
	338	339	4.03316E+000	-9.30903E-007	0.00000E+000	-3.75448E-006	0.00000E+000	4.41250E-004	-3.27672E+002	7	...........
	339	340	4.03317E+000	-9.30973E-007	0.00000E+000	-3.75477E-006	0.00000E+000	4.41883E-004	-3.27672E+002	7	...........
	340	341	4.03316E+000	-9.30781E-007	0.00000E+000	-3.75399E-006	0.00000E+000	4.41683E-004	-3.27672E+002	7	...........
	341	342	4.03317E+000	-9.31478E-007	0.00000E+000	-3.75680E-006	0.00000E+000	4.41550E-004	-3.27672E+002	7	...........
	342	343	4.03317E+000	-9.32030E-007	0.00000E+000	-3.75904E-006	0.00000E+000	4.42500E-004	-3.27672E+002	7	...........
	343	344	4.03317E+000	-9.31993E-007	0.00000E+000	-3.75888E-006	0.00000E+000	4.42217E-004	-3.27672E+002	7	...........
	344	345	4.03318E+000	-9.32072E-007	0.00000E+000	-3.75921E-006	0.00000E+000	4.43283E-004	-3.27672E+002	7	...........
	345	346	4.03318E+000	-9.30792E-007	0.00000E+000	-3.75405E-006	0.00000E+000	4.43200E-004	-3.27672E+002	7	...........
	346	347	4.03319E+000	-9.31513E-007	0.00000E+000	-3.75696E-006	0.00000E+000	4.44333E-004	-3.27672E+002	7	...........
	347	348	4.03318E+000	-9.30821E-007	0.00000E+000	-3.75417E-006	0.00000E+000	4.42450E-004	-3.27672E+002	7	...........
	348	349	4.03319E+000	-9.30942E-007	0.00000E+000	-3.75466E-006	0.00000E+000	4.44767E-004	-3.27672E+002	7	...........
	349	350	4.03319E+000	-9.30771E-007	0.00000E+000	-3.75397E-006	0.00000E+000	4.40900E-004	-3.27672E+002	7	...........
	350	351	4.03319E+000	-9.30321E-007	0.00000E+000	-3.75216E-006	0.00000E+000	4.44217E-004	-3.27672E+002	7	...........
	351	352	4.03319E+000	-9.30011E-007	0.00000E+000	-3.75091E-006	0.00000E+000	4.41550E-004	-3.27672E+002	7	...........
	352	353	4.03319E+000	-9.30286E-007	0.00000E+000	-3.75202E-006	0.00000E+000	4.41300E-004	-3.27672E+002	7	...........
	353	354	4.03320E+000	-9.31458E-007	0.00000E+000	-3.75675E-006	0.00000E+000	4.45217E-004	-3.27672E+002	7	...........
	354	355	4.03320E+000	-9.30984E-007	0.00000E+000	-3.75485E-006	0.00000E+000	4.43617E-004	-3.27672E+002	7	...........
	355	356	4.03320E+000	-9.31114E-007	0.00000E+000	-3.75537E-006	0.00000E+000	4.42733E-004	-3.27672E+002	7	...........
	356	357	4.03321E+000	-9.31126E-007	0.00000E+000	-3.75542E-006	0.00000E+000	4.44250E-004	-3.27672E+002	7	...........
	357	358	4.03320E+000	-9.31169E-007	0.00000E+000	-3.75559E-006	0.00000E+000	4.42717E-004	-3.27672E+002	7	...........
	358	359	4.03320E+000	-9.31315E-007	0.00000E+000	-3.75618E-006	0.00000E+000	4.42983E-004	-3.27672E+002	7	...........
	359	360	4.03322E+000	-9.31605E-007	0.00000E+000	-3.75736E-006	0.00000E+000	4.45317E-004	-3.27672E+002	7	...........
	360	361	4.03321E+000	-9.30974E-007	0.00000E+000	-3.75482E-006	0.00000E+000	4.42467E-004	-3.27672E+002	7	...........
	361	362	4.03320E+000	-9.29508E-007	0.00000E+000	-3.74889E-006	0.00000E+000	4.41733E-004	-3.27672E+002	7	...........
	362	363	4.03321E+000	-9.29957E-007	0.00000E+000	-3.75071E-006	0.00000E+000	4.42467E-004	-3.27672E+002	7	...........
	363	364	4.03321E+000	-9.29961E-007	0.00000E+000	-3.75073E-006	0.00000E+000	4.41100E-004	-3.27672E+002	7	...........
	364	365	4.03321E+000	-9.30554E-007	0.00000E+000	-3.75312E-006	0.00000E+000	4.45567E-004	-3.27672E+002	7	...........
	365	366	4.03322E+000	-9.30428E-007	0.00000E+000	-3.75262E-006	0.00000E+000	4.43733E-004	-3.27672E+002	7	...........
	366	367	4.03322E+000	-9.29962E-007	0.00000E+000	-3.75074E-006	0.00000E+000	4.42167E-004	-3.27672E+002	7	...........
	367	368	4.03322E+000	-9.30147E-007	0.00000E+000	-3.75149E-006	0.00000E+000	4.42017E-004	-3.27672E+002	7	...........
	368	369	4.03322E+000	-9.29859E-007	0.00000E+000	-3.75032E-006	0.00000E+000	4.41900E-004	-3.27672E+002	7	...........
	369	370	4.03323E+000	-9.29592E-007	0.00000E+000	-3.74926E-006	0.00000E+000	4.41300E-004	-3.27672E+002	7	...........
	370	371	4.03323E+000	-9.29378E-007	0.00000E+000	-3.74840E-006	0.00000E+000	4.43333E-004	-3.27672E+002	7	...........
	371	372	4.03323E+000	-9.30095E-007	0.00000E+000	-3.75129E-006	0.00000E+000	4.41483E-004	-3.27672E+002	7	...........
	372	373	4.03325E+000	-9.30240E-007	0.00000E+000	-3.75188E-006	0.00000E+000	4.42517E-004	-3.27672E+002	7	...........
	373	374	4.03324E+000	-9.30251E-007	0.00000E+000	-3.75193E-006	0.00000E+000	4.43183E-004	-3.27672E+002	7	...........
	374	375	4.03324E+000	-9.30283E-007	0.00000E+000	-3.75205E-006	0.00000E+000	4.43000E-004	-3.27672E+002	7	...........
	375	376	4.03325E+000	-9.29510E-007	0.00000E+000	-3.74894E-006	0.00000E+000	4.43367E-004	-3.27672E+002	7	...........
	376	377	4.03325E+000	-9.29245E-007	0.00000E+000	-3.74788E-006	0.00000E+000	4.43250E-004	-3.27672E+002	7	...........
	377	378	4.03325E+000	-9.29427E-007	0.00000E+000	-3.74861E-006	0.00000E+000	4.42983E-004	-3.27672E+002	7	...........
	378	379	4.03325E+000	-9.29564E-007	0.00000E+000	-3.74917E-006	0.00000E+000	4.42050E-004	-3.27672E+002	7	...........
	379	380	4.03326E+000	-9.29970E-007	0.00000E+000	-3.75081E-006	0.00000E+000	4.42633E-004	-3.27672E+002	7	...........
	380	381	4.03326E+000	-9.29669E-007	0.00000E+000	-3.74960E-006	0.00000E+000	4.43733E-004	-3.27672E+002	7	...........
	381	382	4.03326E+000	-9.29733E-007	0.00000E+000	-3.74985E-006	0.00000E+000	4.40817E-004	-3.27672E+002	7	...........
	382	383	4.03327E+000	-9.29101E-007	0.00000E+000	-3.74731E-006	0.00000E+000	4.40667E-004	-3.27672E+002	7	...........
	383	384	4.03327E+000	-9.28604E-007	0.00000E+000	-3.74531E-006	0.00000E+000	4.42733E-004	-3.27672E+002	7	...........
	384	385	4.03327E+000	-9.28338E-007	0.00000E+000	-3.74424E-006	0.00000E+000	4.41183E-004	-3.27672E+002	7	...........
	385	386	4.03327E+000	-9.28168E-007	0.00000E+000	-3.74356E-006	0.00000E+000	4.41867E-004	-3.27672E+002	7	...........
	386	387	4.03327E+000	-9.29026E-007	0.00000E+000	-3.74702E-006	0.00000E+000	4.41667E-004	-3.27672E+002	7	...........
	387	388	4.03327E+000	-9.29169E-007	0.00000E+000	-3.74759E-006	0.00000E+000	4.43233E-004	-3.27672E+002	7	...........
	388	389	4.03328E+000	-9.28982E-007	0.00000E+000	-3.74684E-006	0.00000E+000	4.44350E-004	-3.27672E+002	7	...........
	389	390	4.03328E+000	-9.29509E-007	0.00000E+000	-3.74897E-006	0.00000E+000	4.41150E-004	-3.27672E+002	7	...........
	390	391	4.03328E+000	-9.29754E-007	0.00000E+000	-3.74996E-006	0.00000E+000	4.42600E-004	-3.27672E+002	7	...........
	391	392	4.03328E+000	-9.28861E-007	0.00000E+000	-3.74636E-006	0.00000E+000	4.40767E-004	-3.27672E+002	7	...........
	392	393	4.03328E+000	-9.29006E-007	0.00000E+000	-3.74694E-006	0.00000E+000	4.43433E-004	-3.27672E+002	7	...........
	393	394	4.03328E+000	-9.28625E-007	0.00000E+000	-3.74541E-006	0.00000E+000	4.42850E-004	-3.27672E+002	7	...........
	394	395	4.03329E+000	-9.28144E-007	0.00000E+000	-3.74347E-006	0.00000E+000	4.41617E-004	-3.27672E+002	7	...........
	395	396	4.03329E+000	-9.28869E-007	0.00000E+000	-3.74640E-006	0.00000E+000	4.43933E-004	-3.27672E+002	7	...........
	396	397	4.03329E+000	-9.28863E-007	0.00000E+000	-3.74637E-006	0.00000E+000	4.44867E-004	-3.27672E+002	7	...........
	397	398	4.03330E+000	-9.29369E-007	0.00000E+000	-3.74842E-006	0.00000E+000	4.41783E-004	-3.27672E+002	7	...........
	398	399	4.03329E+000	-9.28302E-007	0.00000E+000	-3.74411E-006	0.00000E+000	4.41250E-004	-3.27672E+002	7	...........
	399	400	4.03329E+000	-9.28377E-007	0.00000E+000	-3.74441E-006	0.00000E+000	4.39467E-004	-3.27672E+002	7	...........
	400	401	4.03329E+000	-9.29030E-007	0.00000E+000	-3.74705E-006	0.00000E+000	4.41050E-004	-3.27672E+002	7	...........
	401	402	4.03330E+000	-9.28466E-007	0.00000E+000	-3.74478E-006	0.00000E+000	4.41283E-004	-3.27672E+002	7	...........
	402	403	4.03331E+000	-9.28543E-007	0.00000E+000	-3.74510E-006	0.00000E+000	4.39550E-004	-3.27672E+002	7	...........
	403	404	4.03331E+000	-9.28161E-007	0.00000E+000	-3.74356E-006	0.00000E+000	4.40567E-004	-3.27672E+002	7	...........
	404	405	4.03331E+000	-9.28500E-007	0.00000E+000	-3.74493E-006	0.00000E+000	4.44150E-004	-3.27672E+002	7	...........
	405	406	4.03331E+000	-9.27192E-007	0.00000E+000	-3.73965E-006	0.00000E+000	4.41500E-004	-3.27672E+002	7	...........
	406	407	4.03330E+000	-9.26539E-007	0.00000E+000	-3.73701E-006	0.00000E+000	4.42267E-004	-3.27672E+002	7	...........
	407	408	4.03332E+000	-9.27257E-007	0.00000E+000	-3.73992E-006	0.00000E+000	4.42700E-004	-3.27672E+002	7	...........
	408	409	4.03331E+000	-9.27844E-007	0.00000E+000	-3.74229E-006	0.00000E+000	4.41050E-004	-3.27672E+002	7	...........
	409	410	4.03332E+000	-9.28847E-007	0.00000E+000	-3.74633E-006	0.00000E+000	4.39850E-004	-3.27672E+002	7	...........
	410	411	4.03333E+000	-9.28395E-007	0.00000E+000	-3.74452E-006	0.00000E+000	4.39067E-004	-3.27672E+002	7	...........
	411	412	4.03332E+000	-9.28062E-007	0.00000E+000	-3.74317E-006	0.00000E+000	4.38733E-004	-3.27672E+002	7	...........
	412	413	4.03332E+000	-9.27530E-007	0.00000E+000	-3.74103E-006	0.00000E+000	4.41317E-004	-3.27672E+002	7	...........
	413	414	4.03333E+000	-9.27129E-007	0.00000E+000	-3.73941E-006	0.00000E+000	4.39500E-004	-3.27672E+002	7	...........
	414	415	4.03333E+000	-9.27609E-007	0.00000E+000	-3.74135E-006	0.00000E+000	4.40317E-004	-3.27672E+002	7	...........
	415	416	4.03333E+000	-9.27487E-007	0.00000E+000	-3.74086E-006	0.00000E+000	4.38417E-004	-3.27672E+002	7	...........
	416	417	4.03333E+000	-9.28232E-007	0.00000E+000	-3.74387E-006	0.00000E+000	4.38783E-004	-3.27672E+002	7	...........
	417	418	4.03333E+000	-9.27279E-007	0.00000E+000	-3.74002E-006	0.00000E+000	4.39950E-004	-3.27672E+002	7	...........
	418	419	4.03333E+000	-9.27712E-007	0.00000E+000	-3.74177E-006	0.00000E+000	4.40550E-004	-3.27672E+002	7	...........
	419	420	4.03334E+000	-9.27431E-007	0.00000E+000	-3.74064E-006	0.00000E+000	4.41933E-004	-3.27672E+002	7	...........
	420	421	4.03334E+000	-9.27442E-007	0.00000E+000	-3.74069E-006	0.00000E+000	4.39000E-004	-3.27672E+002	7	...........
	421	422	4.03335E+000	-9.27847E-007	0.00000E+000	-3.74233E-006	0.00000E+000	4.40033E-004	-3.27672E+002	7	...........
	422	423	4.03334E+000	-9.27919E-007	0.00000E+000	-3.74261E-006	0.00000E+000	4.40083E-004	-3.27672E+002	7	...........
	423	424	4.03335E+000	-9.28208E-007	0.00000E+000	-3.74379E-006	0.00000E+000	4.40883E-004	-3.27672E+002	7	...........
	424	425	4.03334E+000	-9.28604E-007	0.00000E+000	-3.74538E-006	0.00000E+000	4.41317E-004	-3.27672E+002	7	...........
	425	426	4.03335E+000	-9.28386E-007	0.00000E+000	-3.74450E-006	0.00000E+000	4.41767E-004	-3.27672E+002	7	...........
	426	427	4.03335E+000	-9.27456E-007	0.00000E+000	-3.74075E-006	0.00000E+000	4.40300E-004	-3.27672E+002	7	...........
	427	428	4.03335E+000	-9.27842E-007	0.00000E+000	-3.74231E-006	0.00000E+000	4.42250E-004	-3.27672E+002	7	...........
	428	429	4.03335E+000	-9.26928E-007	0.00000E+000	-3.73863E-006	0.00000E+000	4.43617E-004	-3.27672E+002	7	...........
	429	430	4.03336E+000	-9.27071E-007	0.00000E+000	-3.73921E-006	0.00000E+000	4.39750E-004	-3.27672E+002	7	...........
	430	431	4.03335E+000	-9.28160E-007	0.00000E+000	-3.74360E-006	0.00000E+000	4.40117E-004	-3.27672E+002	7	...........
	431	432	4.03336E+000	-9.28021E-007	0.00000E+000	-3.74304E-006	0.00000E+000	4.42600E-004	-3.27672E+002	7	...........
	432	433	4.03336E+000	-9.27927E-007	0.00000E+000	-3.74266E-006	0.00000E+000	4.41833E-004	-3.27672E+002	7	...........
	433	434	4.03336E+000	-9.28020E-007	0.00000E+000	-3.74304E-006	0.00000E+000	4.41417E-004	-3.27672E+002	7	...........
	434	435	4.03336E+000	-9.27420E-007	0.00000E+000	-3.74062E-006	0.00000E+000	4.44133E-004	-3.27672E+002	7	...........
	435	436	4.03336E+000	-9.27689E-007	0.00000E+000	-3.74171E-006	0.00000E+000	4.42700E-004	-3.27672E+002	7	...........
	436	437	4.03337E+000	-9.27571E-007	0.00000E+000	-3.74124E-006	0.00000E+000	4.38650E-004	-3.27672E+002	7	...........
	437	438	4.03337E+000	-9.27366E-007	0.00000E+000	-3.74041E-006	0.00000E+000	4.42483E-004	-3.27672E+002	7	...........
	438	439	4.03337E+000	-9.27164E-007	0.00000E+000	-3.73959E-006	0.00000E+000	4.40100E-004	-3.27672E+002	7	...........
	439	440	4.03338E+000	-9.27407E-007	0.00000E+000	-3.74058E-006	0.00000E+000	4.40433E-004	-3.27672E+002	7	...........
	440	441	4.03337E+000	-9.26570E-007	0.00000E+000	-3.73720E-006	0.00000E+000	4.41083E-004	-3.27672E+002	7	...........
	441	442	4.03337E+000	-9.26292E-007	0.00000E+000	-3.73608E-006	0.00000E+000	4.41067E-004	-3.27672E+002	7	...........
	442	443	4.03338E+000	-9.26495E-007	0.00000E+000	-3.73691E-006	0.00000E+000	4.40800E-004	-3.27672E+002	7	...........
	443	444	4.03338E+000	-9.27448E-007	0.00000E+000	-3.74075E-006	0.00000E+000	4.42083E-004	-3.27672E+002	7	...........
	444	445	4.03337E+000	-9.27124E-007	0.00000E+000	-3.73944E-006	0.00000E+000	4.41017E-004	-3.27672E+002	7	...........
	445	446	4.03338E+000	-9.27752E-007	0.00000E+000	-3.74197E-006	0.00000E+000	4.39717E-004	-3.27672E+002	7	...........
	446	447	4.03339E+000	-9.27039E-007	0.00000E+000	-3.73910E-006	0.00000E+000	4.41333E-004	-3.27672E+002	7	...........
	447	448	4.03339E+000	-9.27409E-007	0.00000E+000	-3.74061E-006	0.00000E+000	4.42000E-004	-3.27672E+002	7	...........
	448	449	4.03338E+000	-9.27131E-007	0.00000E+000	-3.73948E-006	0.00000E+000	4.39767E-004	-3.27672E+002	7	...........
	449	450	4.03339E+000	-9.27672E-007	0.00000E+000	-3.74166E-006	0.00000E+000	4.41517E-004	-3.27672E+002	7	...........
	450	451	4.03339E+000	-9.26178E-007	0.00000E+000	-3.73564E-006	0.00000E+000	4.42000E-004	-3.27672E+002	7	...........
	451	452	4.03338E+000	-9.26634E-007	0.00000E+000	-3.73747E-006	0.00000E+000	4.43350E-004	-3.27672E+002	7	...........
	452	453	4.03339E+000	-9.27122E-007	0.00000E+000	-3.73944E-006	0.00000E+000	4.39533E-004	-3.27672E+002	7	...........
	453	454	4.03339E+000	-9.27436E-007	0.00000E+000	-3.74071E-006	0.00000E+000	4.40083E-004	-3.27672E+002	7	...........
	454	455	4.03340E+000	-9.27052E-007	0.00000E+000	-3.73917E-006	0.00000E+000	4.38100E-004	-3.27672E+002	7	...........
	455	456	4.03340E+000	-9.27132E-007	0.00000E+000	-3.73949E-006	0.00000E+000	4.42683E-004	-3.27672E+002	7	...........
	456	457	4.03340E+000	-9.27154E-007	0.00000E+000	-3.73958E-006	0.00000E+000	4.41200E-004	-3.27672E+002	7	...........
	457	458	4.03340E+000	-9.27216E-007	0.00000E+000	-3.73983E-006	0.00000E+000	4.39650E-004	-3.27672E+002	7	...........
	458	459	4.03339E+000	-9.27207E-007	0.00000E+000	-3.73979E-006	0.00000E+000	4.41583E-004	-3.27672E+002	7	...........
	459	460	4.03340E+000	-9.26219E-007	0.00000E+000	-3.73581E-006	0.00000E+000	4.40033E-004	-3.27672E+002	7	...........
	460	461	4.03340E+000	-9.25580E-007	0.00000E+000	-3.73324E-006	0.00000E+000	4.42750E-004	-3.27672E+002	7	...........
	461	462	4.03340E+000	-9.26395E-007	0.00000E+000	-3.73652E-006	0.00000E+000	4.42133E-004	-3.27672E+002	7	...........
	462	463	4.03340E+000	-9.25368E-007	0.00000E+000	-3.73238E-006	0.00000E+000	4.40783E-004	-3.27672E+002	7	...........
	463	464	4.03341E+000	-9.26053E-007	0.00000E+000	-3.73515E-006	0.00000E+000	4.40367E-004	-3.27672E+002	7	...........
	464	465	4.03340E+000	-9.25681E-007	0.00000E+000	-3.73364E-006	0.00000E+000	4.39700E-004	-3.27672E+002	7	...........
	465	466	4.03342E+000	-9.25928E-007	0.00000E+000	-3.73466E-006	0.00000E+000	4.40983E-004	-3.27672E+002	7	...........
	466	467	4.03342E+000	-9.25380E-007	0.00000E+000	-3.73244E-006	0.00000E+000	4.39133E-004	-3.27672E+002	7	...........
	467	468	4.03342E+000	-9.25598E-007	0.00000E+000	-3.73332E-006	0.00000E+000	4.40567E-004	-3.27672E+002	7	...........
	468	469	4.03342E+000	-9.25161E-007	0.00000E+000	-3.73156E-006	0.00000E+000	4.40000E-004	-3.27672E+002	7	...........
	469	470	4.03342E+000	-9.25950E-007	0.00000E+000	-3.73474E-006	0.00000E+000	4.40800E-004	-3.27672E+002	7	...........
	470	471	4.03342E+000	-9.26457E-007	0.00000E+000	-3.73679E-006	0.00000E+000	4.40700E-004	-3.27672E+002	7	...........
	471	472	4.03343E+000	-9.25413E-007	0.00000E+000	-3.73259E-006	0.00000E+000	4.43850E-004	-3.27672E+002	7	...........
	472	473	4.03343E+000	-9.25644E-007	0.00000E+000	-3.73352E-006	0.00000E+000	4.42733E-004	-3.27672E+002	7	...........
	473	474	4.03342E+000	-9.24954E-007	0.00000E+000	-3.73073E-006	0.00000E+000	4.41000E-004	-3.27672E+002	7	...........
	474	475	4.03342E+000	-9.25445E-007	0.00000E+000	-3.73271E-006	0.00000E+000	4.41733E-004	-3.27672E+002	7	...........
	475	476	4.03343E+000	-9.25524E-007	0.00000E+000	-3.73304E-006	0.00000E+000	4.42833E-004	-3.27672E+002	7	...........
	476	477	4.03342E+000	-9.26263E-007	0.00000E+000	-3.73601E-006	0.00000E+000	4.41917E-004	-3.27672E+002	7	...........
	477	478	4.03342E+000	-9.25636E-007	0.00000E+000	-3.73348E-006	0.00000E+000	4.43183E-004	-3.27672E+002	7	...........
	478	479	4.03343E+000	-9.24981E-007	0.00000E+000	-3.73084E-006	0.00000E+000	4.44350E-004	-3.27672E+002	7	...........
	479	480	4.03343E+000	-9.24984E-007	0.00000E+000	-3.73085E-006	0.00000E+000	4.42000E-004	-3.27672E+002	7	...........
	480	481	4.03343E+000	-9.24720E-007	0.00000E+000	-3.72980E-006	0.00000E+000	4.41583E-004	-3.27672E+002	7	...........
	481	482	4.03342E+000	-9.24490E-007	0.00000E+000	-3.72886E-006	0.00000E+000	4.40400E-004	-3.27672E+002	7	...........
	482	483	4.03343E+000	-9.24747E-007	0.00000E+000	-3.72991E-006	0.00000E+000	4.41367E-004	-3.27672E+002	7	...........
	483	484	4.03344E+000	-9.24662E-007	0.00000E+000	-3.72957E-006	0.00000E+000	4.40017E-004	-3.27672E+002	7	...........
	484	485	4.03344E+000	-9.24680E-007	0.00000E+000	-3.72964E-006	0.00000E+000	4.43383E-004	-3.27672E+002	7	...........
	485	486	4.03344E+000	-9.24855E-007	0.00000E+000	-3.73034E-006	0.00000E+000	4.41817E-004	-3.27672E+002	7	...........
	486	487	4.03344E+000	-9.25131E-007	0.00000E+000	-3.73147E-006	0.00000E+000	4.41600E-004	-3.27672E+002	7	...........
	487	488	4.03345E+000	-9.24934E-007	0.00000E+000	-3.73067E-006	0.00000E+000	4.42117E-004	-3.27672E+002	7	...........
	488	489	4.03344E+000	-9.25318E-007	0.00000E+000	-3.73222E-006	0.00000E+000	4.39533E-004	-3.27672E+002	7	...........
	489	490	4.03346E+000	-9.26034E-007	0.00000E+000	-3.73512E-006	0.00000E+000	4.42783E-004	-3.27672E+002	7	...........
	490	491	4.03346E+000	-9.25658E-007	0.00000E+000	-3.73360E-006	0.00000E+000	4.41767E-004	-3.27672E+002	7	...........
	491	492	4.03345E+000	-9.25907E-007	0.00000E+000	-3.73460E-006	0.00000E+000	4.42450E-004	-3.27672E+002	7	...........
	492	493	4.03345E+000	-9.25098E-007	0.00000E+000	-3.73134E-006	0.00000E+000	4.39400E-004	-3.27672E+002	7	...........
	493	494	4.03345E+000	-9.25153E-007	0.00000E+000	-3.73156E-006	0.00000E+000	4.42450E-004	-3.27672E+002	7	...........
	494	495	4.03345E+000	-9.24668E-007	0.00000E+000	-3.72961E-006	0.00000E+000	4.42683E-004	-3.27672E+002	7	...........
	495	496	4.03346E+000	-9.25432E-007	0.00000E+000	-3.73270E-006	0.00000E+000	4.41517E-004	-3.27672E+002	7	...........
	496	497	4.03346E+000	-9.24877E-007	0.00000E+000	-3.73046E-006	0.00000E+000	4.42700E-004	-3.27672E+002	7	...........
	497	498	4.03346E+000	-9.25810E-007	0.00000E+000	-3.73422E-006	0.00000E+000	4.40767E-004	-3.27672E+002	7	...........
	498	499	4.03346E+000	-9.26208E-007	0.00000E+000	-3.73583E-006	0.00000E+000	4.41200E-004	-3.27672E+002	7	...........
	499	500	4.03347E+000	-9.25368E-007	0.00000E+000	-3.73245E-006	0.00000E+000	4.40800E-004	-3.27672E+002	7	...........
	500	501	4.03347E+000	-9.25875E-007	0.00000E+000	-3.73449E-006	0.00000E+000	4.42833E-004	-3.27672E+002	7	...........
	501	502	4.03346E+000	-9.25540E-007	0.00000E+000	-3.73313E-006	0.00000E+000	4.41900E-004	-3.27672E+002	7	...........
	502	503	4.03347E+000	-9.25683E-007	0.00000E+000	-3.73371E-006	0.00000E+000	4.42100E-004	-3.27672E+002	7	...........
	503	504	4.03348E+000	-9.25581E-007	0.00000E+000	-3.73331E-006	0.00000E+000	4.41467E-004	-3.27672E+002	7	...........
	504	505	4.03347E+000	-9.25053E-007	0.00000E+000	-3.73117E-006	0.00000E+000	4.40550E-004	-3.27672E+002	7	...........
	505	506	4.03348E+000	-9.24735E-007	0.00000E+000	-3.72990E-006	0.00000E+000	4.42667E-004	-3.27672E+002	7	...........
	506	507	4.03348E+000	-9.24748E-007	0.00000E+000	-3.72995E-006	0.00000E+000	4.39617E-004	-3.27672E+002	7	...........
	507	508	4.03348E+000	-9.25328E-007	0.00000E+000	-3.73230E-006	0.00000E+000	4.39983E-004	-3.27672E+002	7	...........
	508	509	4.03348E+000	-9.26052E-007	0.00000E+000	-3.73521E-006	0.00000E+000	4.39983E-004	-3.27672E+002	7	...........
	509	510	4.03348E+000	-9.25706E-007	0.00000E+000	-3.73381E-006	0.00000E+000	4.38500E-004	-3.27672E+002	7	...........
	510	511	4.03348E+000	-9.24985E-007	0.00000E+000	-3.73091E-006	0.00000E+000	4.37400E-004	-3.27672E+002	7	...........
	511	512	4.03348E+000	-9.25383E-007	0.00000E+000	-3.73252E-006	0.00000E+000	4.39283E-004	-3.27672E+002	7	...........
	512	513	4.03348E+000	-9.26429E-007	0.00000E+000	-3.73673E-006	0.00000E+000	4.43950E-004	-3.27672E+002	7	...........
	513	514	4.03348E+000	-9.25603E-007	0.00000E+000	-3.73340E-006	0.00000E+000	4.41000E-004	-3.27672E+002	7	...........
	514	515	4.03349E+000	-9.26370E-007	0.00000E+000	-3.73650E-006	0.00000E+000	4.41667E-004	-3.27672E+002	7	...........
	515	516	4.03348E+000	-9.27050E-007	0.00000E+000	-3.73924E-006	0.00000E+000	4.41617E-004	-3.27672E+002	7	...........
	516	517	4.03349E+000	-9.25796E-007	0.00000E+000	-3.73418E-006	0.00000E+000	4.40433E-004	-3.27672E+002	7	...........
	517	518	4.03348E+000	-9.24839E-007	0.00000E+000	-3.73032E-006	0.00000E+000	4.41383E-004	-3.27672E+002	7	...........
	518	519	4.03349E+000	-9.24554E-007	0.00000E+000	-3.72918E-006	0.00000E+000	4.40200E-004	-3.27672E+002	7	...........
	519	520	4.03350E+000	-9.25050E-007	0.00000E+000	-3.73119E-006	0.00000E+000	4.39283E-004	-3.27672E+002	7	...........
	520	521	4.03350E+000	-9.25389E-007	0.00000E+000	-3.73256E-006	0.00000E+000	4.42317E-004	-3.27672E+002	7	...........
	521	522	4.03350E+000	-9.25733E-007	0.00000E+000	-3.73394E-006	0.00000E+000	4.40650E-004	-3.27672E+002	7	...........
	522	523	4.03350E+000	-9.25275E-007	0.00000E+000	-3.73210E-006	0.00000E+000	4.41750E-004	-3.27672E+002	7	...........
	523	524	4.03350E+000	-9.24727E-007	0.00000E+000	-3.72989E-006	0.00000E+000	4.44250E-004	-3.27672E+002	7	...........
	524	525	4.03352E+000	-9.23877E-007	0.00000E+000	-3.72647E-006	0.00000E+000	4.39883E-004	-3.27672E+002	7	...........
	525	526	4.03350E+000	-9.24223E-007	0.00000E+000	-3.72785E-006	0.00000E+000	4.39400E-004	-3.27672E+002	7	...........
	526	527	4.03351E+000	-9.24511E-007	0.00000E+000	-3.72903E-006	0.00000E+000	4.40867E-004	-3.27672E+002	7	...........
	527	528	4.03350E+000	-9.23999E-007	0.00000E+000	-3.72695E-006	0.00000E+000	4.41550E-004	-3.27672E+002	7	...........
	528	529	4.03351E+000	-9.24223E-007	0.00000E+000	-3.72787E-006	0.00000E+000	4.40667E-004	-3.27672E+002	7	...........
	529	530	4.03351E+000	-9.23806E-007	0.00000E+000	-3.72618E-006	0.00000E+000	4.39433E-004	-3.27672E+002	7	...........
	530	531	4.03351E+000	-9.24451E-007	0.00000E+000	-3.72878E-006	0.00000E+000	4.39517E-004	-3.27672E+002	7	...........
	531	532	4.03352E+000	-9.23936E-007	0.00000E+000	-3.72671E-006	0.00000E+000	4.42667E-004	-3.27672E+002	7	...........
	532	533	4.03352E+000	-9.25018E-007	0.00000E+000	-3.73108E-006	0.00000E+000	4.40600E-004	-3.27672E+002	7	...........
	533	534	4.03353E+000	-9.24394E-007	0.00000E+000	-3.72857E-006	0.00000E+000	4.40883E-004	-3.27672E+002	7	...........
	534	535	4.03352E+000	-9.24383E-007	0.00000E+000	-3.72852E-006	0.00000E+000	4.40267E-004	-3.27672E+002	7	...........
	535	536	4.03352E+000	-9.23967E-007	0.00000E+000	-3.72684E-006	0.00000E+000	4.37533E-004	-3.27672E+002	7	...........
	536	537	4.03351E+000	-9.24460E-007	0.00000E+000	-3.72882E-006	0.00000E+000	4.40417E-004	-3.27672E+002	7	...........
	537	538	4.03353E+000	-9.24236E-007	0.00000E+000	-3.72793E-006	0.00000E+000	4.40650E-004	-3.27672E+002	7	...........
	538	539	4.03353E+000	-9.23482E-007	0.00000E+000	-3.72489E-006	0.00000E+000	4.42700E-004	-3.27672E+002	7	...........
	539	540	4.03353E+000	-9.23334E-007	0.00000E+000	-3.72429E-006	0.00000E+000	4.38200E-004	-3.27672E+002	7	...........
	540	541	4.03353E+000	-9.23576E-007	0.00000E+000	-3.72527E-006	0.00000E+000	4.42517E-004	-3.27672E+002	7	...........
	541	542	4.03353E+000	-9.24036E-007	0.00000E+000	-3.72713E-006	0.00000E+000	4.40983E-004	-3.27672E+002	7	...........
	542	543	4.03354E+000	-9.24779E-007	0.00000E+000	-3.73013E-006	0.00000E+000	4.40700E-004	-3.27672E+002	7	...........
	543	544	4.03354E+000	-9.24937E-007	0.00000E+000	-3.73077E-006	0.00000E+000	4.39250E-004	-3.27672E+002	7	...........
	544	545	4.03354E+000	-9.24382E-007	0.00000E+000	-3.72853E-006	0.00000E+000	4.39600E-004	-3.27672E+002	7	...........
	545	546	4.03353E+000	-9.24200E-007	0.00000E+000	-3.72779E-006	0.00000E+000	4.39567E-004	-3.27672E+002	7	...........
	546	547	4.03354E+000	-9.23531E-007	0.00000E+000	-3.72510E-006	0.00000E+000	4.41017E-004	-3.27672E+002	7	...........
	547	548	4.03354E+000	-9.23721E-007	0.00000E+000	-3.72586E-006	0.00000E+000	4.42117E-004	-3.27672E+002	7	...........
	548	549	4.03354E+000	-9.23236E-007	0.00000E+000	-3.72391E-006	0.00000E+000	4.42917E-004	-3.27672E+002	7	...........
	549	550	4.03354E+000	-9.23211E-007	0.00000E+000	-3.72380E-006	0.00000E+000	4.37900E-004	-3.27672E+002	7	...........
	550	551	4.03354E+000	-9.23729E-007	0.00000E+000	-3.72590E-006	0.00000E+000	4.41633E-004	-3.27672E+002	7	...........
	551	552	4.03354E+000	-9.23963E-007	0.00000E+000	-3.72684E-006	0.00000E+000	4.39333E-004	-3.27672E+002	7	...........
	552	553	4.03354E+000	-9.23481E-007	0.00000E+000	-3.72490E-006	0.00000E+000	4.41867E-004	-3.27672E+002	7	...........
	553	554	4.03355E+000	-9.23296E-007	0.00000E+000	-3.72416E-006	0.00000E+000	4.44750E-004	-3.27672E+002	7	...........
	554	555	4.03355E+000	-9.23234E-007	0.00000E+000	-3.72391E-006	0.00000E+000	4.41167E-004	-3.27672E+002	7	...........
	555	556	4.03355E+000	-9.23261E-007	0.00000E+000	-3.72402E-006	0.00000E+000	4.41183E-004	-3.27672E+002	7	...........
	556	557	4.03355E+000	-9.22741E-007	0.00000E+000	-3.72192E-006	0.00000E+000	4.40867E-004	-3.27672E+002	7	...........
	557	558	4.03354E+000	-9.23821E-007	0.00000E+000	-3.72627E-006	0.00000E+000	4.40517E-004	-3.27672E+002	7	...........
	558	559	4.03356E+000	-9.23203E-007	0.00000E+000	-3.72379E-006	0.00000E+000	4.42183E-004	-3.27672E+002	7	...........
	559	560	4.03355E+000	-9.22575E-007	0.00000E+000	-3.72125E-006	0.00000E+000	4.42650E-004	-3.27672E+002	7	...........
	560	561	4.03356E+000	-9.21670E-007	0.00000E+000	-3.71761E-006	0.00000E+000	4.41267E-004	-3.27672E+002	7	...........
	561	562	4.03357E+000	-9.21917E-007	0.00000E+000	-3.71861E-006	0.00000E+000	4.42117E-004	-3.27672E+002	7	...........
	562	563	4.03356E+000	-9.22138E-007	0.00000E+000	-3.71950E-006	0.00000E+000	4.39800E-004	-3.27672E+002	7	...........
	563	564	4.03356E+000	-9.21763E-007	0.00000E+000	-3.71799E-006	0.00000E+000	4.42750E-004	-3.27672E+002	7	...........
	564	565	4.03357E+000	-9.22522E-007	0.00000E+000	-3.72106E-006	0.00000E+000	4.40783E-004	-3.27672E+002	7	...........
	565	566	4.03356E+000	-9.22416E-007	0.00000E+000	-3.72062E-006	0.00000E+000	4.40650E-004	-3.27672E+002	7	...........
	566	567	4.03356E+000	-9.22397E-007	0.00000E+000	-3.72055E-006	0.00000E+000	4.39650E-004	-3.27672E+002	7	...........
	567	568	4.03357E+000	-9.22054E-007	0.00000E+000	-3.71917E-006	0.00000E+000	4.39217E-004	-3.27672E+002	7	...........
	568	569	4.03358E+000	-9.22130E-007	0.00000E+000	-3.71948E-006	0.00000E+000	4.40567E-004	-3.27672E+002	7	...........
	569	570	4.03357E+000	-9.22362E-007	0.00000E+000	-3.72041E-006	0.00000E+000	4.41150E-004	-3.27672E+002	7	...........
	570	571	4.03358E+000	-9.21082E-007	0.00000E+000	-3.71526E-006	0.00000E+000	4.42167E-004	-3.27672E+002	7	...........
	571	572	4.03358E+000	-9.21327E-007	0.00000E+000	-3.71624E-006	0.00000E+000	4.40467E-004	-3.27672E+002	7	...........
	572	573	4.03358E+000	-9.21602E-007	0.00000E+000	-3.71735E-006	0.00000E+000	4.43433E-004	-3.27672E+002	7	...........
	573	574	4.03358E+000	-9.21786E-007	0.00000E+000	-3.71810E-006	0.00000E+000	4.39967E-004	-3.27672E+002	7	...........
	574	575	4.03358E+000	-9.21894E-007	0.00000E+000	-3.71853E-006	0.00000E+000	4.39283E-004	-3.27672E+002	7	...........
	575	576	4.03358E+000	-9.21212E-007	0.00000E+000	-3.71578E-006	0.00000E+000	4.38833E-004	-3.27672E+002	7	...........
	576	577	4.03357E+000	-9.21456E-007	0.00000E+000	-3.71676E-006	0.00000E+000	4.40633E-004	-3.27672E+002	7	...........
	577	578	4.03358E+000	-9.22388E-007	0.00000E+000	-3.72053E-006	0.00000E+000	4.39033E-004	-3.27672E+002	7	...........
	578	579	4.03358E+000	-9.22148E-007	0.00000E+000	-3.71956E-006	0.00000E+000	4.41033E-004	-3.27672E+002	7	...........
	579	580	4.03358E+000	-9.22535E-007	0.00000E+000	-3.72112E-006	0.00000E+000	4.41317E-004	-3.27672E+002	7	...........
	580	581	4.03358E+000	-9.21892E-007	0.00000E+000	-3.71853E-006	0.00000E+000	4.42050E-004	-3.27672E+002	7	...........
	581	582	4.03359E+000	-9.22877E-007	0.00000E+000	-3.72251E-006	0.00000E+000	4.39417E-004	-3.27672E+002	7	...........
	582	583	4.03359E+000	-9.21967E-007	0.00000E+000	-3.71884E-006	0.00000E+000	4.41217E-004	-3.27672E+002	7	...........
	583	584	4.03359E+000	-9.21773E-007	0.00000E+000	-3.71806E-006	0.00000E+000	4.40067E-004	-3.27672E+002	7	...........
	584	585	4.03359E+000	-9.21442E-007	0.00000E+000	-3.71672E-006	0.00000E+000	4.40917E-004	-3.27672E+002	7	...........
	585	586	4.03359E+000	-9.21147E-007	0.00000E+000	-3.71553E-006	0.00000E+000	4.41033E-004	-3.27672E+002	7	...........
	586	587	4.03359E+000	-9.21461E-007	0.00000E+000	-3.71680E-006	0.00000E+000	4.40400E-004	-3.27672E+002	7	...........
	587	588	4.03359E+000	-9.21853E-007	0.00000E+000	-3.71837E-006	0.00000E+000	4.40700E-004	-3.27672E+002	7	...........
	588	589	4.03359E+000	-9.21448E-007	0.00000E+000	-3.71674E-006	0.00000E+000	4.39283E-004	-3.27672E+002	7	...........
	589	590	4.03359E+000	-9.21015E-007	0.00000E+000	-3.71500E-006	0.00000E+000	4.37750E-004	-3.27672E+002	7	...........
	590	591	4.03360E+000	-9.21435E-007	0.00000E+000	-3.71670E-006	0.00000E+000	4.39267E-004	-3.27672E+002	7	...........
	591	592	4.03360E+000	-9.21527E-007	0.00000E+000	-3.71707E-006	0.00000E+000	4.41567E-004	-3.27672E+002	7	...........
	592	593	4.03360E+000	-9.21429E-007	0.00000E+000	-3.71668E-006	0.00000E+000	4.39917E-004	-3.27672E+002	7	...........
	593	594	4.03360E+000	-9.21471E-007	0.00000E+000	-3.71685E-006	0.00000E+000	4.41317E-004	-3.27672E+002	7	...........
	594	595	4.03361E+000	-9.22316E-007	0.00000E+000	-3.72026E-006	0.00000E+000	4.39200E-004	-3.27672E+002	7	...........
	595	596	4.03361E+000	-9.22038E-007	0.00000E+000	-3.71914E-006	0.00000E+000	4.38550E-004	-3.27672E+002	7	...........
	596	597	4.03361E+000	-9.21902E-007	0.00000E+000	-3.71859E-006	0.00000E+000	4.40050E-004	-3.27672E+002	7	...........
	597	598	4.03362E+000	-9.21700E-007	0.00000E+000	-3.71779E-006	0.00000E+000	4.41067E-004	-3.27672E+002	7	...........
	598	599	4.03362E+000	-9.22519E-007	0.00000E+000	-3.72109E-006	0.00000E+000	4.41167E-004	-3.27672E+002	7	...........
	599	600	4.03362E+000	-9.21422E-007	0.00000E+000	-3.71667E-006	0.00000E+000	4.39250E-004	-3.27672E+002	7	...........
