EXPLAIN
TAG	PWR800_READVOLTAGE
TITLE	LABEL	PWR Read Voltage	Test Identifier
DATE	LABEL	8.2.2024	Date
TIME	LABEL	8:35:06	Time
NOTES	NOTES	1	Notes...
	
PSTAT	PSTAT	REF600-12055	Potentiostat
CAPACITY	QUANT	1.00000E+000	Capacity (A-hr)
CELLTYPE	SELECTOR	1	Cell Type
WORKINGCONNECTION	SELECTOR	0	Working Connection
MAXTIME	VARIABLEANDUNITS	6.00000E+002	s	6.00000E+002	second(s)	Max Time
SAMPLETIME	QUANT	1.00000E+000	Sample Period (s)
STOPAT1	MULTIPARAM	0	0.00000E+000	Stop At 1	None	N/A
STOPAT2	MULTIPARAM	0	0.00000E+000	Stop At 2	None	N/A
AESBHCSELECTOR	TOGGLE	F	Save Both Half Cells
EOC	QUANT	3.93564	Open Circuit (V)
SEQUENCER	TOGGLE	TRUE	Run as Sequence
PSTATMODEL	IQUANT	4	Pstat Model
PSTATSECTION	LABEL	REF600-12055	Pstat Section
PSTATSERIALNO	LABEL	12055	Pstat Serial Number
CTRLMODE	IQUANT	0	Control Mode
ELECTROMETER	IQUANT	0	RE=0 or CS=1
IESTAB	IQUANT	0	I/E Stability
CASPEED	IQUANT	4	Control Amp Speed
CONVENTION	IQUANT	1	Current Convention
ICHRANGE	IQUANT	2	Ich Range
ICHRANGEMODE	TOGGLE	T	Ich Auto Range
ICHOFFSETENABLE	TOGGLE	F	Ich Offset Enable
ICHOFFSET	QUANT	0	Ich Offset (V)
ICHFILTER	IQUANT	1	Ich Filter
VCHRANGE	IQUANT	3	Vch Range
VCHRANGEMODE	TOGGLE	T	Vch Auto Range
VCHOFFSETENABLE	TOGGLE	F	Vch Offset Enable
VCHOFFSET	QUANT	0	Vch Offset (V)
VCHFILTER	IQUANT	1	Vch Filter
ACHRANGE	IQUANT	2	Ach Range
ACHOFFSETENABLE	TOGGLE	F	Ach Offset Enable
ACHOFFSET	QUANT	0	Ach Offset (V)
ACHFILTER	IQUANT	1	Ach Filter
IERANGELOWERLIMIT	IQUANT	7	I/E Range Lower Limit
IERANGEMODE	TOGGLE	F	I/E AutoRange
IERANGE	IQUANT	11	I/E Range
POSFEEDENABLE	TOGGLE	F	Positive Feedback IR Comp
POSFEEDRESISTANCE	QUANT	0	Positive Feedback Resistance (ohm)
ACHSELECT	IQUANT	4	Ach Select
SENSECABLEID	IQUANT	14	Sense Cable ID
PWRCABLEID	IQUANT	14	Power Cable ID
DCCALDATE	LABEL		DC Calibration Date
ACCALDATE	LABEL		AC Calibration Date
THERMOSELECT	IQUANT	1	Thermo Select
FRAMEWORKVERSION	LABEL	7.10.3	Framework Version
INSTRUMENTVERSION	LABEL	4.91	Instrument Version
COMMVERSION	LABEL	2.24	Communications Version
CPUPLDVERSION	LABEL	0.00	CPU PLD Version
CTRLPLDVERSION	LABEL	0.00	CTRL PLD Version
PSTATPLDVERSION	LABEL	0.00	PSTAT PLD Version
CURVE	TABLE	600
	Pt	T	Vf	Im	Vu	Pwr	Sig	Ach	Temp	IERange	Over
	#	s	V	A	V	W	V	V	deg C	#	bits
	0	1	3.84463E+000	5.60066E-007	0.00000E+000	2.15325E-006	0.00000E+000	7.67250E-004	-3.27672E+002	7	...........
	1	2	3.84496E+000	5.60808E-007	0.00000E+000	2.15628E-006	0.00000E+000	7.68783E-004	-3.27672E+002	7	...........
	2	3	3.84514E+000	5.62232E-007	0.00000E+000	2.16186E-006	0.00000E+000	7.69533E-004	-3.27672E+002	7	...........
	3	4	3.84531E+000	5.62505E-007	0.00000E+000	2.16301E-006	0.00000E+000	7.73683E-004	-3.27672E+002	7	...........
	4	5	3.84548E+000	5.63364E-007	0.00000E+000	2.16641E-006	0.00000E+000	7.71250E-004	-3.27672E+002	7	...........
	5	6	3.84566E+000	5.63672E-007	0.00000E+000	2.16769E-006	0.00000E+000	7.73000E-004	-3.27672E+002	7	...........
	6	7	3.84583E+000	5.63365E-007	0.00000E+000	2.16661E-006	0.00000E+000	7.76133E-004	-3.27672E+002	7	...........
	7	8	3.84599E+000	5.63972E-007	0.00000E+000	2.16903E-006	0.00000E+000	7.71283E-004	-3.27672E+002	7	...........
	8	9	3.84611E+000	5.64562E-007	0.00000E+000	2.17137E-006	0.00000E+000	7.72450E-004	-3.27672E+002	7	...........
	9	10	3.84619E+000	5.64590E-007	0.00000E+000	2.17152E-006	0.00000E+000	7.70633E-004	-3.27672E+002	7	...........
	10	11	3.84625E+000	5.64893E-007	0.00000E+000	2.17272E-006	0.00000E+000	7.74267E-004	-3.27672E+002	7	...........
	11	12	3.84631E+000	5.64838E-007	0.00000E+000	2.17254E-006	0.00000E+000	7.74283E-004	-3.27672E+002	7	...........
	12	13	3.84636E+000	5.65297E-007	0.00000E+000	2.17433E-006	0.00000E+000	7.72200E-004	-3.27672E+002	7	...........
	13	14	3.84643E+000	5.65562E-007	0.00000E+000	2.17539E-006	0.00000E+000	7.73050E-004	-3.27672E+002	7	...........
	14	15	3.84651E+000	5.65746E-007	0.00000E+000	2.17614E-006	0.00000E+000	7.73200E-004	-3.27672E+002	7	...........
	15	16	3.84659E+000	5.67128E-007	0.00000E+000	2.18151E-006	0.00000E+000	7.76300E-004	-3.27672E+002	7	...........
	16	17	3.84672E+000	5.67810E-007	0.00000E+000	2.18420E-006	0.00000E+000	7.75350E-004	-3.27672E+002	7	...........
	17	18	3.84684E+000	5.67817E-007	0.00000E+000	2.18430E-006	0.00000E+000	7.74933E-004	-3.27672E+002	7	...........
	18	19	3.84698E+000	5.68761E-007	0.00000E+000	2.18802E-006	0.00000E+000	7.75183E-004	-3.27672E+002	7	...........
	19	20	3.84714E+000	5.69550E-007	0.00000E+000	2.19114E-006	0.00000E+000	7.73200E-004	-3.27672E+002	7	...........
	20	21	3.84729E+000	5.68957E-007	0.00000E+000	2.18894E-006	0.00000E+000	5.70550E-004	-3.27672E+002	7	...........
	21	22	3.84744E+000	5.69155E-007	0.00000E+000	2.18979E-006	0.00000E+000	4.76883E-004	-3.27672E+002	7	...........
	22	23	3.84759E+000	5.69566E-007	0.00000E+000	2.19145E-006	0.00000E+000	4.75950E-004	-3.27672E+002	7	...........
	23	24	3.84772E+000	5.70381E-007	0.00000E+000	2.19467E-006	0.00000E+000	4.76617E-004	-3.27672E+002	7	...........
	24	25	3.84783E+000	5.70134E-007	0.00000E+000	2.19378E-006	0.00000E+000	4.81733E-004	-3.27672E+002	7	...........
	25	26	3.84793E+000	5.70867E-007	0.00000E+000	2.19666E-006	0.00000E+000	4.80700E-004	-3.27672E+002	7	...........
	26	27	3.84801E+000	5.71903E-007	0.00000E+000	2.20069E-006	0.00000E+000	4.80117E-004	-3.27672E+002	7	...........
	27	28	3.84808E+000	5.71718E-007	0.00000E+000	2.20001E-006	0.00000E+000	4.78317E-004	-3.27672E+002	7	...........
	28	29	3.84816E+000	5.72007E-007	0.00000E+000	2.20118E-006	0.00000E+000	4.74383E-004	-3.27672E+002	7	...........
	29	30	3.84824E+000	5.72701E-007	0.00000E+000	2.20389E-006	0.00000E+000	4.79000E-004	-3.27672E+002	7	...........
	30	31	3.84830E+000	5.72538E-007	0.00000E+000	2.20330E-006	0.00000E+000	4.74767E-004	-3.27672E+002	7	...........
	31	32	3.84837E+000	5.72705E-007	0.00000E+000	2.20398E-006	0.00000E+000	4.71383E-004	-3.27672E+002	7	...........
	32	33	3.84845E+000	5.72414E-007	0.00000E+000	2.20290E-006	0.00000E+000	4.75383E-004	-3.27672E+002	7	...........
	33	34	3.84853E+000	5.72851E-007	0.00000E+000	2.20463E-006	0.00000E+000	4.71633E-004	-3.27672E+002	7	...........
	34	35	3.84860E+000	5.72826E-007	0.00000E+000	2.20458E-006	0.00000E+000	4.70483E-004	-3.27672E+002	7	...........
	35	36	3.84867E+000	5.73207E-007	0.00000E+000	2.20609E-006	0.00000E+000	4.69150E-004	-3.27672E+002	7	...........
	36	37	3.84875E+000	5.73269E-007	0.00000E+000	2.20637E-006	0.00000E+000	4.62283E-004	-3.27672E+002	7	...........
	37	38	3.84884E+000	5.73672E-007	0.00000E+000	2.20797E-006	0.00000E+000	4.62433E-004	-3.27672E+002	7	...........
	38	39	3.84893E+000	5.74506E-007	0.00000E+000	2.21124E-006	0.00000E+000	4.65033E-004	-3.27672E+002	7	...........
	39	40	3.84899E+000	5.74732E-007	0.00000E+000	2.21214E-006	0.00000E+000	4.63733E-004	-3.27672E+002	7	...........
	40	41	3.84908E+000	5.74948E-007	0.00000E+000	2.21302E-006	0.00000E+000	4.63617E-004	-3.27672E+002	7	...........
	41	42	3.84917E+000	5.76303E-007	0.00000E+000	2.21828E-006	0.00000E+000	4.63867E-004	-3.27672E+002	7	...........
	42	43	3.84924E+000	5.74969E-007	0.00000E+000	2.21319E-006	0.00000E+000	4.63283E-004	-3.27672E+002	7	...........
	43	44	3.84931E+000	5.75274E-007	0.00000E+000	2.21441E-006	0.00000E+000	4.59317E-004	-3.27672E+002	7	...........
	44	45	3.84936E+000	5.75441E-007	0.00000E+000	2.21508E-006	0.00000E+000	4.61350E-004	-3.27672E+002	7	...........
	45	46	3.84944E+000	5.75430E-007	0.00000E+000	2.21508E-006	0.00000E+000	4.62367E-004	-3.27672E+002	7	...........
	46	47	3.84949E+000	5.76017E-007	0.00000E+000	2.21737E-006	0.00000E+000	4.65867E-004	-3.27672E+002	7	...........
	47	48	3.84955E+000	5.76237E-007	0.00000E+000	2.21825E-006	0.00000E+000	4.64933E-004	-3.27672E+002	7	...........
	48	49	3.84961E+000	5.76785E-007	0.00000E+000	2.22040E-006	0.00000E+000	4.66050E-004	-3.27672E+002	7	...........
	49	50	3.84966E+000	5.76813E-007	0.00000E+000	2.22053E-006	0.00000E+000	4.73567E-004	-3.27672E+002	7	...........
	50	51	3.84970E+000	5.76931E-007	0.00000E+000	2.22101E-006	0.00000E+000	4.66967E-004	-3.27672E+002	7	...........
	51	52	3.84976E+000	5.77340E-007	0.00000E+000	2.22262E-006	0.00000E+000	4.73683E-004	-3.27672E+002	7	...........
	52	53	3.84981E+000	5.76827E-007	0.00000E+000	2.22067E-006	0.00000E+000	4.78017E-004	-3.27672E+002	7	...........
	53	54	3.84984E+000	5.77459E-007	0.00000E+000	2.22313E-006	0.00000E+000	4.76750E-004	-3.27672E+002	7	...........
	54	55	3.84990E+000	5.77538E-007	0.00000E+000	2.22347E-006	0.00000E+000	4.77900E-004	-3.27672E+002	7	...........
	55	56	3.84996E+000	5.77968E-007	0.00000E+000	2.22515E-006	0.00000E+000	4.78817E-004	-3.27672E+002	7	...........
	56	57	3.85001E+000	5.78194E-007	0.00000E+000	2.22605E-006	0.00000E+000	4.88867E-004	-3.27672E+002	7	...........
	57	58	3.85007E+000	5.78342E-007	0.00000E+000	2.22666E-006	0.00000E+000	4.85150E-004	-3.27672E+002	7	...........
	58	59	3.85013E+000	5.77832E-007	0.00000E+000	2.22473E-006	0.00000E+000	4.82633E-004	-3.27672E+002	7	...........
	59	60	3.85018E+000	5.78618E-007	0.00000E+000	2.22779E-006	0.00000E+000	4.83317E-004	-3.27672E+002	7	...........
	60	61	3.85024E+000	5.78552E-007	0.00000E+000	2.22756E-006	0.00000E+000	4.87300E-004	-3.27672E+002	7	...........
	61	62	3.85032E+000	5.78646E-007	0.00000E+000	2.22797E-006	0.00000E+000	4.85583E-004	-3.27672E+002	7	...........
	62	63	3.85038E+000	5.78728E-007	0.00000E+000	2.22833E-006	0.00000E+000	4.86117E-004	-3.27672E+002	7	...........
	63	64	3.85046E+000	5.80256E-007	0.00000E+000	2.23425E-006	0.00000E+000	4.87300E-004	-3.27672E+002	7	...........
	64	65	3.85052E+000	5.79741E-007	0.00000E+000	2.23231E-006	0.00000E+000	4.86433E-004	-3.27672E+002	7	...........
	65	66	3.85059E+000	5.79753E-007	0.00000E+000	2.23239E-006	0.00000E+000	4.86833E-004	-3.27672E+002	7	...........
	66	67	3.85066E+000	5.79935E-007	0.00000E+000	2.23313E-006	0.00000E+000	4.84017E-004	-3.27672E+002	7	...........
	67	68	3.85071E+000	5.79449E-007	0.00000E+000	2.23129E-006	0.00000E+000	4.84033E-004	-3.27672E+002	7	...........
	68	69	3.85078E+000	5.80196E-007	0.00000E+000	2.23420E-006	0.00000E+000	4.84883E-004	-3.27672E+002	7	...........
	69	70	3.85084E+000	5.79982E-007	0.00000E+000	2.23342E-006	0.00000E+000	4.80117E-004	-3.27672E+002	7	...........
	70	71	3.85090E+000	5.80367E-007	0.00000E+000	2.23493E-006	0.00000E+000	4.80883E-004	-3.27672E+002	7	...........
	71	72	3.85095E+000	5.81117E-007	0.00000E+000	2.23785E-006	0.00000E+000	4.83283E-004	-3.27672E+002	7	...........
	72	73	3.85101E+000	5.80983E-007	0.00000E+000	2.23737E-006	0.00000E+000	4.83550E-004	-3.27672E+002	7	...........
	73	74	3.85106E+000	5.81235E-007	0.00000E+000	2.23837E-006	0.00000E+000	4.78183E-004	-3.27672E+002	7	...........
	74	75	3.85111E+000	5.80818E-007	0.00000E+000	2.23680E-006	0.00000E+000	4.81333E-004	-3.27672E+002	7	...........
	75	76	3.85115E+000	5.80509E-007	0.00000E+000	2.23563E-006	0.00000E+000	4.79467E-004	-3.27672E+002	7	...........
	76	77	3.85119E+000	5.80491E-007	0.00000E+000	2.23558E-006	0.00000E+000	4.75600E-004	-3.27672E+002	7	...........
	77	78	3.85124E+000	5.80893E-007	0.00000E+000	2.23715E-006	0.00000E+000	4.82150E-004	-3.27672E+002	7	...........
	78	79	3.85127E+000	5.81241E-007	0.00000E+000	2.23852E-006	0.00000E+000	4.81883E-004	-3.27672E+002	7	...........
	79	80	3.85132E+000	5.80754E-007	0.00000E+000	2.23667E-006	0.00000E+000	4.78217E-004	-3.27672E+002	7	...........
	80	81	3.85135E+000	5.81188E-007	0.00000E+000	2.23836E-006	0.00000E+000	4.81267E-004	-3.27672E+002	7	...........
	81	82	3.85139E+000	5.81549E-007	0.00000E+000	2.23977E-006	0.00000E+000	4.76567E-004	-3.27672E+002	7	...........
	82	83	3.85143E+000	5.81564E-007	0.00000E+000	2.23985E-006	0.00000E+000	4.74550E-004	-3.27672E+002	7	...........
	83	84	3.85146E+000	5.81533E-007	0.00000E+000	2.23975E-006	0.00000E+000	4.77400E-004	-3.27672E+002	7	...........
	84	85	3.85151E+000	5.82248E-007	0.00000E+000	2.24253E-006	0.00000E+000	4.77250E-004	-3.27672E+002	7	...........
	85	86	3.85154E+000	5.82826E-007	0.00000E+000	2.24478E-006	0.00000E+000	4.73817E-004	-3.27672E+002	7	...........
	86	87	3.85157E+000	5.83347E-007	0.00000E+000	2.24680E-006	0.00000E+000	4.72800E-004	-3.27672E+002	7	...........
	87	88	3.85160E+000	5.82646E-007	0.00000E+000	2.24412E-006	0.00000E+000	4.71467E-004	-3.27672E+002	7	...........
	88	89	3.85164E+000	5.82610E-007	0.00000E+000	2.24400E-006	0.00000E+000	4.71300E-004	-3.27672E+002	7	...........
	89	90	3.85168E+000	5.82831E-007	0.00000E+000	2.24488E-006	0.00000E+000	4.72133E-004	-3.27672E+002	7	...........
	90	91	3.85171E+000	5.82631E-007	0.00000E+000	2.24413E-006	0.00000E+000	4.70383E-004	-3.27672E+002	7	...........
	91	92	3.85175E+000	5.83665E-007	0.00000E+000	2.24813E-006	0.00000E+000	4.71917E-004	-3.27672E+002	7	...........
	92	93	3.85179E+000	5.83837E-007	0.00000E+000	2.24882E-006	0.00000E+000	4.72767E-004	-3.27672E+002	7	...........
	93	94	3.85183E+000	5.83695E-007	0.00000E+000	2.24829E-006	0.00000E+000	4.68633E-004	-3.27672E+002	7	...........
	94	95	3.85186E+000	5.83354E-007	0.00000E+000	2.24700E-006	0.00000E+000	4.67333E-004	-3.27672E+002	7	...........
	95	96	3.85190E+000	5.83582E-007	0.00000E+000	2.24790E-006	0.00000E+000	4.63400E-004	-3.27672E+002	7	...........
	96	97	3.85194E+000	5.83598E-007	0.00000E+000	2.24798E-006	0.00000E+000	4.65617E-004	-3.27672E+002	7	...........
	97	98	3.85197E+000	5.83759E-007	0.00000E+000	2.24862E-006	0.00000E+000	4.63267E-004	-3.27672E+002	7	...........
	98	99	3.85200E+000	5.83938E-007	0.00000E+000	2.24933E-006	0.00000E+000	4.68950E-004	-3.27672E+002	7	...........
	99	100	3.85205E+000	5.83805E-007	0.00000E+000	2.24884E-006	0.00000E+000	4.71067E-004	-3.27672E+002	7	...........
	100	101	3.85208E+000	5.84134E-007	0.00000E+000	2.25013E-006	0.00000E+000	4.64183E-004	-3.27672E+002	7	...........
	101	102	3.85212E+000	5.83853E-007	0.00000E+000	2.24907E-006	0.00000E+000	4.68083E-004	-3.27672E+002	7	...........
	102	103	3.85214E+000	5.83720E-007	0.00000E+000	2.24857E-006	0.00000E+000	4.68733E-004	-3.27672E+002	7	...........
	103	104	3.85217E+000	5.84384E-007	0.00000E+000	2.25115E-006	0.00000E+000	4.66733E-004	-3.27672E+002	7	...........
	104	105	3.85221E+000	5.84201E-007	0.00000E+000	2.25046E-006	0.00000E+000	4.68333E-004	-3.27672E+002	7	...........
	105	106	3.85223E+000	5.85315E-007	0.00000E+000	2.25477E-006	0.00000E+000	4.64000E-004	-3.27672E+002	7	...........
	106	107	3.85227E+000	5.85239E-007	0.00000E+000	2.25450E-006	0.00000E+000	4.69883E-004	-3.27672E+002	7	...........
	107	108	3.85229E+000	5.84878E-007	0.00000E+000	2.25312E-006	0.00000E+000	4.64033E-004	-3.27672E+002	7	...........
	108	109	3.85232E+000	5.85332E-007	0.00000E+000	2.25489E-006	0.00000E+000	4.70583E-004	-3.27672E+002	7	...........
	109	110	3.85235E+000	5.84958E-007	0.00000E+000	2.25346E-006	0.00000E+000	4.66933E-004	-3.27672E+002	7	...........
	110	111	3.85237E+000	5.84993E-007	0.00000E+000	2.25361E-006	0.00000E+000	4.67567E-004	-3.27672E+002	7	...........
	111	112	3.85239E+000	5.84766E-007	0.00000E+000	2.25275E-006	0.00000E+000	4.64850E-004	-3.27672E+002	7	...........
	112	113	3.85242E+000	5.84867E-007	0.00000E+000	2.25315E-006	0.00000E+000	4.66017E-004	-3.27672E+002	7	...........
	113	114	3.85244E+000	5.85128E-007	0.00000E+000	2.25417E-006	0.00000E+000	4.68700E-004	-3.27672E+002	7	...........
	114	115	3.85246E+000	5.85789E-007	0.00000E+000	2.25673E-006	0.00000E+000	4.64667E-004	-3.27672E+002	7	...........
	115	116	3.85249E+000	5.85981E-007	0.00000E+000	2.25748E-006	0.00000E+000	4.70383E-004	-3.27672E+002	7	...........
	116	117	3.85251E+000	5.85906E-007	0.00000E+000	2.25721E-006	0.00000E+000	4.65167E-004	-3.27672E+002	7	...........
	117	118	3.85254E+000	5.85846E-007	0.00000E+000	2.25699E-006	0.00000E+000	4.67667E-004	-3.27672E+002	7	...........
	118	119	3.85255E+000	5.86461E-007	0.00000E+000	2.25937E-006	0.00000E+000	4.65067E-004	-3.27672E+002	7	...........
	119	120	3.85258E+000	5.86787E-007	0.00000E+000	2.26064E-006	0.00000E+000	4.65900E-004	-3.27672E+002	7	...........
	120	121	3.85261E+000	5.86460E-007	0.00000E+000	2.25940E-006	0.00000E+000	4.68333E-004	-3.27672E+002	7	...........
	121	122	3.85263E+000	5.86033E-007	0.00000E+000	2.25777E-006	0.00000E+000	4.67683E-004	-3.27672E+002	7	...........
	122	123	3.85265E+000	5.86648E-007	0.00000E+000	2.26015E-006	0.00000E+000	4.70900E-004	-3.27672E+002	7	...........
	123	124	3.85269E+000	5.86127E-007	0.00000E+000	2.25816E-006	0.00000E+000	4.74067E-004	-3.27672E+002	7	...........
	124	125	3.85271E+000	5.85841E-007	0.00000E+000	2.25707E-006	0.00000E+000	4.74667E-004	-3.27672E+002	7	...........
	125	126	3.85274E+000	5.86323E-007	0.00000E+000	2.25895E-006	0.00000E+000	4.74033E-004	-3.27672E+002	7	...........
	126	127	3.85277E+000	5.86566E-007	0.00000E+000	2.25990E-006	0.00000E+000	4.75700E-004	-3.27672E+002	7	...........
	127	128	3.85280E+000	5.87116E-007	0.00000E+000	2.26204E-006	0.00000E+000	4.74950E-004	-3.27672E+002	7	...........
	128	129	3.85283E+000	5.87095E-007	0.00000E+000	2.26198E-006	0.00000E+000	4.76267E-004	-3.27672E+002	7	...........
	129	130	3.85287E+000	5.88296E-007	0.00000E+000	2.26663E-006	0.00000E+000	4.77700E-004	-3.27672E+002	7	...........
	130	131	3.85290E+000	5.87505E-007	0.00000E+000	2.26359E-006	0.00000E+000	4.77217E-004	-3.27672E+002	7	...........
	131	132	3.85293E+000	5.87374E-007	0.00000E+000	2.26311E-006	0.00000E+000	4.77200E-004	-3.27672E+002	7	...........
	132	133	3.85297E+000	5.87090E-007	0.00000E+000	2.26204E-006	0.00000E+000	4.77867E-004	-3.27672E+002	7	...........
	133	134	3.85301E+000	5.87001E-007	0.00000E+000	2.26172E-006	0.00000E+000	4.82167E-004	-3.27672E+002	7	...........
	134	135	3.85303E+000	5.87668E-007	0.00000E+000	2.26430E-006	0.00000E+000	4.80767E-004	-3.27672E+002	7	...........
	135	136	3.85307E+000	5.87657E-007	0.00000E+000	2.26428E-006	0.00000E+000	4.85083E-004	-3.27672E+002	7	...........
	136	137	3.85311E+000	5.87899E-007	0.00000E+000	2.26524E-006	0.00000E+000	4.83250E-004	-3.27672E+002	7	...........
	137	138	3.85315E+000	5.88825E-007	0.00000E+000	2.26883E-006	0.00000E+000	4.85133E-004	-3.27672E+002	7	...........
	138	139	3.85319E+000	5.88694E-007	0.00000E+000	2.26835E-006	0.00000E+000	4.89833E-004	-3.27672E+002	7	...........
	139	140	3.85324E+000	5.88792E-007	0.00000E+000	2.26875E-006	0.00000E+000	4.90433E-004	-3.27672E+002	7	...........
	140	141	3.85328E+000	5.88603E-007	0.00000E+000	2.26805E-006	0.00000E+000	4.90283E-004	-3.27672E+002	7	...........
	141	142	3.85331E+000	5.88856E-007	0.00000E+000	2.26904E-006	0.00000E+000	4.93900E-004	-3.27672E+002	7	...........
	142	143	3.85335E+000	5.88309E-007	0.00000E+000	2.26696E-006	0.00000E+000	4.96483E-004	-3.27672E+002	7	...........
	143	144	3.85338E+000	5.88397E-007	0.00000E+000	2.26732E-006	0.00000E+000	4.91950E-004	-3.27672E+002	7	...........
	144	145	3.85344E+000	5.89124E-007	0.00000E+000	2.27015E-006	0.00000E+000	5.01917E-004	-3.27672E+002	7	...........
	145	146	3.85347E+000	5.88803E-007	0.00000E+000	2.26893E-006	0.00000E+000	4.96017E-004	-3.27672E+002	7	...........
	146	147	3.85351E+000	5.88652E-007	0.00000E+000	2.26837E-006	0.00000E+000	4.98467E-004	-3.27672E+002	7	...........
	147	148	3.85355E+000	5.89105E-007	0.00000E+000	2.27015E-006	0.00000E+000	4.97000E-004	-3.27672E+002	7	...........
	148	149	3.85359E+000	5.88924E-007	0.00000E+000	2.26947E-006	0.00000E+000	5.00667E-004	-3.27672E+002	7	...........
	149	150	3.85364E+000	5.89357E-007	0.00000E+000	2.27117E-006	0.00000E+000	4.97150E-004	-3.27672E+002	7	...........
	150	151	3.85367E+000	5.89269E-007	0.00000E+000	2.27085E-006	0.00000E+000	5.00933E-004	-3.27672E+002	7	...........
	151	152	3.85372E+000	5.89736E-007	0.00000E+000	2.27268E-006	0.00000E+000	5.00450E-004	-3.27672E+002	7	...........
	152	153	3.85374E+000	5.90063E-007	0.00000E+000	2.27395E-006	0.00000E+000	5.00367E-004	-3.27672E+002	7	...........
	153	154	3.85378E+000	5.90627E-007	0.00000E+000	2.27615E-006	0.00000E+000	5.00100E-004	-3.27672E+002	7	...........
	154	155	3.85382E+000	5.89915E-007	0.00000E+000	2.27343E-006	0.00000E+000	5.01200E-004	-3.27672E+002	7	...........
	155	156	3.85386E+000	5.89685E-007	0.00000E+000	2.27256E-006	0.00000E+000	5.00850E-004	-3.27672E+002	7	...........
	156	157	3.85389E+000	5.89958E-007	0.00000E+000	2.27363E-006	0.00000E+000	5.02583E-004	-3.27672E+002	7	...........
	157	158	3.85392E+000	5.89514E-007	0.00000E+000	2.27194E-006	0.00000E+000	5.01850E-004	-3.27672E+002	7	...........
	158	159	3.85394E+000	5.89430E-007	0.00000E+000	2.27163E-006	0.00000E+000	4.98167E-004	-3.27672E+002	7	...........
	159	160	3.85398E+000	5.89940E-007	0.00000E+000	2.27362E-006	0.00000E+000	4.96183E-004	-3.27672E+002	7	...........
	160	161	3.85403E+000	5.90674E-007	0.00000E+000	2.27647E-006	0.00000E+000	4.99867E-004	-3.27672E+002	7	...........
	161	162	3.85405E+000	5.90368E-007	0.00000E+000	2.27531E-006	0.00000E+000	4.99250E-004	-3.27672E+002	7	...........
	162	163	3.85408E+000	5.90325E-007	0.00000E+000	2.27516E-006	0.00000E+000	5.01350E-004	-3.27672E+002	7	...........
	163	164	3.85410E+000	5.90985E-007	0.00000E+000	2.27771E-006	0.00000E+000	4.98617E-004	-3.27672E+002	7	...........
	164	165	3.85414E+000	5.90908E-007	0.00000E+000	2.27744E-006	0.00000E+000	4.99917E-004	-3.27672E+002	7	...........
	165	166	3.85418E+000	5.90416E-007	0.00000E+000	2.27557E-006	0.00000E+000	4.96067E-004	-3.27672E+002	7	...........
	166	167	3.85420E+000	5.90825E-007	0.00000E+000	2.27716E-006	0.00000E+000	4.98900E-004	-3.27672E+002	7	...........
	167	168	3.85424E+000	5.90422E-007	0.00000E+000	2.27563E-006	0.00000E+000	4.98067E-004	-3.27672E+002	7	...........
	168	169	3.85425E+000	5.91369E-007	0.00000E+000	2.27928E-006	0.00000E+000	4.97733E-004	-3.27672E+002	7	...........
	169	170	3.85427E+000	5.90717E-007	0.00000E+000	2.27678E-006	0.00000E+000	5.00100E-004	-3.27672E+002	7	...........
	170	171	3.85431E+000	5.91220E-007	0.00000E+000	2.27875E-006	0.00000E+000	4.96600E-004	-3.27672E+002	7	...........
	171	172	3.85433E+000	5.91636E-007	0.00000E+000	2.28036E-006	0.00000E+000	4.97167E-004	-3.27672E+002	7	...........
	172	173	3.85435E+000	5.91980E-007	0.00000E+000	2.28170E-006	0.00000E+000	4.97333E-004	-3.27672E+002	7	...........
	173	174	3.85439E+000	5.91779E-007	0.00000E+000	2.28094E-006	0.00000E+000	4.97267E-004	-3.27672E+002	7	...........
	174	175	3.85441E+000	5.92638E-007	0.00000E+000	2.28427E-006	0.00000E+000	4.98533E-004	-3.27672E+002	7	...........
	175	176	3.85445E+000	5.92150E-007	0.00000E+000	2.28241E-006	0.00000E+000	4.97267E-004	-3.27672E+002	7	...........
	176	177	3.85446E+000	5.91781E-007	0.00000E+000	2.28100E-006	0.00000E+000	4.97183E-004	-3.27672E+002	7	...........
	177	178	3.85448E+000	5.91800E-007	0.00000E+000	2.28108E-006	0.00000E+000	4.93583E-004	-3.27672E+002	7	...........
	178	179	3.85451E+000	5.92129E-007	0.00000E+000	2.28237E-006	0.00000E+000	4.93367E-004	-3.27672E+002	7	...........
	179	180	3.85454E+000	5.92070E-007	0.00000E+000	2.28216E-006	0.00000E+000	4.95300E-004	-3.27672E+002	7	...........
	180	181	3.85456E+000	5.92708E-007	0.00000E+000	2.28463E-006	0.00000E+000	4.90267E-004	-3.27672E+002	7	...........
	181	182	3.85459E+000	5.92070E-007	0.00000E+000	2.28219E-006	0.00000E+000	4.87167E-004	-3.27672E+002	7	...........
	182	183	3.85460E+000	5.92519E-007	0.00000E+000	2.28393E-006	0.00000E+000	4.92517E-004	-3.27672E+002	7	...........
	183	184	3.85462E+000	5.92206E-007	0.00000E+000	2.28273E-006	0.00000E+000	4.90017E-004	-3.27672E+002	7	...........
	184	185	3.85465E+000	5.92404E-007	0.00000E+000	2.28351E-006	0.00000E+000	4.92917E-004	-3.27672E+002	7	...........
	185	186	3.85467E+000	5.91701E-007	0.00000E+000	2.28081E-006	0.00000E+000	4.91267E-004	-3.27672E+002	7	...........
	186	187	3.85468E+000	5.92205E-007	0.00000E+000	2.28276E-006	0.00000E+000	4.89600E-004	-3.27672E+002	7	...........
	187	188	3.85470E+000	5.92691E-007	0.00000E+000	2.28465E-006	0.00000E+000	4.91583E-004	-3.27672E+002	7	...........
	188	189	3.85472E+000	5.91818E-007	0.00000E+000	2.28129E-006	0.00000E+000	4.86817E-004	-3.27672E+002	7	...........
	189	190	3.85474E+000	5.92025E-007	0.00000E+000	2.28210E-006	0.00000E+000	4.88000E-004	-3.27672E+002	7	...........
	190	191	3.85475E+000	5.92380E-007	0.00000E+000	2.28348E-006	0.00000E+000	4.85800E-004	-3.27672E+002	7	...........
	191	192	3.85477E+000	5.92422E-007	0.00000E+000	2.28365E-006	0.00000E+000	4.90983E-004	-3.27672E+002	7	...........
	192	193	3.85479E+000	5.92727E-007	0.00000E+000	2.28484E-006	0.00000E+000	4.88250E-004	-3.27672E+002	7	...........
	193	194	3.85481E+000	5.92697E-007	0.00000E+000	2.28473E-006	0.00000E+000	4.91917E-004	-3.27672E+002	7	...........
	194	195	3.85483E+000	5.93442E-007	0.00000E+000	2.28762E-006	0.00000E+000	4.88517E-004	-3.27672E+002	7	...........
	195	196	3.85484E+000	5.93646E-007	0.00000E+000	2.28841E-006	0.00000E+000	4.88300E-004	-3.27672E+002	7	...........
	196	197	3.85485E+000	5.93622E-007	0.00000E+000	2.28832E-006	0.00000E+000	4.88967E-004	-3.27672E+002	7	...........
	197	198	3.85487E+000	5.93717E-007	0.00000E+000	2.28870E-006	0.00000E+000	4.89100E-004	-3.27672E+002	7	...........
	198	199	3.85489E+000	5.93382E-007	0.00000E+000	2.28742E-006	0.00000E+000	4.88967E-004	-3.27672E+002	7	...........
	199	200	3.85491E+000	5.93466E-007	0.00000E+000	2.28776E-006	0.00000E+000	4.90183E-004	-3.27672E+002	7	...........
	200	201	3.85492E+000	5.93723E-007	0.00000E+000	2.28876E-006	0.00000E+000	4.90833E-004	-3.27672E+002	7	...........
	201	202	3.85494E+000	5.94162E-007	0.00000E+000	2.29046E-006	0.00000E+000	4.91433E-004	-3.27672E+002	7	...........
	202	203	3.85496E+000	5.93354E-007	0.00000E+000	2.28736E-006	0.00000E+000	4.87167E-004	-3.27672E+002	7	...........
	203	204	3.85498E+000	5.93853E-007	0.00000E+000	2.28929E-006	0.00000E+000	4.90950E-004	-3.27672E+002	7	...........
	204	205	3.85500E+000	5.94604E-007	0.00000E+000	2.29220E-006	0.00000E+000	4.88350E-004	-3.27672E+002	7	...........
	205	206	3.85502E+000	5.94051E-007	0.00000E+000	2.29008E-006	0.00000E+000	4.88617E-004	-3.27672E+002	7	...........
	206	207	3.85503E+000	5.93838E-007	0.00000E+000	2.28926E-006	0.00000E+000	4.87483E-004	-3.27672E+002	7	...........
	207	208	3.85504E+000	5.93634E-007	0.00000E+000	2.28848E-006	0.00000E+000	4.87700E-004	-3.27672E+002	7	...........
	208	209	3.85508E+000	5.94181E-007	0.00000E+000	2.29061E-006	0.00000E+000	4.85067E-004	-3.27672E+002	7	...........
	209	210	3.85508E+000	5.94004E-007	0.00000E+000	2.28993E-006	0.00000E+000	4.88017E-004	-3.27672E+002	7	...........
	210	211	3.85510E+000	5.93917E-007	0.00000E+000	2.28961E-006	0.00000E+000	4.86583E-004	-3.27672E+002	7	...........
	211	212	3.85513E+000	5.94209E-007	0.00000E+000	2.29075E-006	0.00000E+000	4.84300E-004	-3.27672E+002	7	...........
	212	213	3.85515E+000	5.94091E-007	0.00000E+000	2.29031E-006	0.00000E+000	4.82333E-004	-3.27672E+002	7	...........
	213	214	3.85517E+000	5.93801E-007	0.00000E+000	2.28920E-006	0.00000E+000	4.84517E-004	-3.27672E+002	7	...........
	214	215	3.85520E+000	5.94597E-007	0.00000E+000	2.29229E-006	0.00000E+000	4.90150E-004	-3.27672E+002	7	...........
	215	216	3.85522E+000	5.94695E-007	0.00000E+000	2.29268E-006	0.00000E+000	4.87400E-004	-3.27672E+002	7	...........
	216	217	3.85524E+000	5.95345E-007	0.00000E+000	2.29520E-006	0.00000E+000	4.84633E-004	-3.27672E+002	7	...........
	217	218	3.85526E+000	5.95313E-007	0.00000E+000	2.29509E-006	0.00000E+000	4.87083E-004	-3.27672E+002	7	...........
	218	219	3.85530E+000	5.95132E-007	0.00000E+000	2.29442E-006	0.00000E+000	4.83200E-004	-3.27672E+002	7	...........
	219	220	3.85531E+000	5.95689E-007	0.00000E+000	2.29657E-006	0.00000E+000	4.84967E-004	-3.27672E+002	7	...........
	220	221	3.85534E+000	5.95619E-007	0.00000E+000	2.29632E-006	0.00000E+000	4.83150E-004	-3.27672E+002	7	...........
	221	222	3.85536E+000	5.95115E-007	0.00000E+000	2.29438E-006	0.00000E+000	4.78867E-004	-3.27672E+002	7	...........
	222	223	3.85538E+000	5.94296E-007	0.00000E+000	2.29124E-006	0.00000E+000	4.81300E-004	-3.27672E+002	7	...........
	223	224	3.85540E+000	5.95311E-007	0.00000E+000	2.29516E-006	0.00000E+000	4.81450E-004	-3.27672E+002	7	...........
	224	225	3.85544E+000	5.95221E-007	0.00000E+000	2.29484E-006	0.00000E+000	4.81350E-004	-3.27672E+002	7	...........
	225	226	3.85545E+000	5.95296E-007	0.00000E+000	2.29513E-006	0.00000E+000	4.78867E-004	-3.27672E+002	7	...........
	226	227	3.85546E+000	5.95653E-007	0.00000E+000	2.29652E-006	0.00000E+000	4.78100E-004	-3.27672E+002	7	...........
	227	228	3.85549E+000	5.94927E-007	0.00000E+000	2.29373E-006	0.00000E+000	4.77933E-004	-3.27672E+002	7	...........
	228	229	3.85551E+000	5.95599E-007	0.00000E+000	2.29634E-006	0.00000E+000	4.80083E-004	-3.27672E+002	7	...........
	229	230	3.85553E+000	5.94691E-007	0.00000E+000	2.29285E-006	0.00000E+000	4.80000E-004	-3.27672E+002	7	...........
	230	231	3.85557E+000	5.95458E-007	0.00000E+000	2.29583E-006	0.00000E+000	4.82200E-004	-3.27672E+002	7	...........
	231	232	3.85559E+000	5.95731E-007	0.00000E+000	2.29689E-006	0.00000E+000	4.81167E-004	-3.27672E+002	7	...........
	232	233	3.85561E+000	5.96056E-007	0.00000E+000	2.29816E-006	0.00000E+000	4.80067E-004	-3.27672E+002	7	...........
	233	234	3.85563E+000	5.95172E-007	0.00000E+000	2.29476E-006	0.00000E+000	4.79733E-004	-3.27672E+002	7	...........
	234	235	3.85564E+000	5.95738E-007	0.00000E+000	2.29695E-006	0.00000E+000	4.80983E-004	-3.27672E+002	7	...........
	235	236	3.85566E+000	5.95191E-007	0.00000E+000	2.29486E-006	0.00000E+000	4.81600E-004	-3.27672E+002	7	...........
	236	237	3.85570E+000	5.94894E-007	0.00000E+000	2.29373E-006	0.00000E+000	4.78533E-004	-3.27672E+002	7	...........
	237	238	3.85572E+000	5.95172E-007	0.00000E+000	2.29482E-006	0.00000E+000	4.81650E-004	-3.27672E+002	7	...........
	238	239	3.85574E+000	5.95496E-007	0.00000E+000	2.29608E-006	0.00000E+000	4.80717E-004	-3.27672E+002	7	...........
	239	240	3.85576E+000	5.96296E-007	0.00000E+000	2.29917E-006	0.00000E+000	4.82867E-004	-3.27672E+002	7	...........
	240	241	3.85577E+000	5.96442E-007	0.00000E+000	2.29975E-006	0.00000E+000	4.83467E-004	-3.27672E+002	7	...........
	241	242	3.85579E+000	5.96088E-007	0.00000E+000	2.29839E-006	0.00000E+000	4.83683E-004	-3.27672E+002	7	...........
	242	243	3.85581E+000	5.96678E-007	0.00000E+000	2.30068E-006	0.00000E+000	4.84667E-004	-3.27672E+002	7	...........
	243	244	3.85583E+000	5.95793E-007	0.00000E+000	2.29728E-006	0.00000E+000	4.86883E-004	-3.27672E+002	7	...........
	244	245	3.85585E+000	5.95879E-007	0.00000E+000	2.29762E-006	0.00000E+000	4.84317E-004	-3.27672E+002	7	...........
	245	246	3.85588E+000	5.96043E-007	0.00000E+000	2.29827E-006	0.00000E+000	4.85517E-004	-3.27672E+002	7	...........
	246	247	3.85589E+000	5.95841E-007	0.00000E+000	2.29750E-006	0.00000E+000	4.86850E-004	-3.27672E+002	7	...........
	247	248	3.85590E+000	5.96326E-007	0.00000E+000	2.29937E-006	0.00000E+000	4.80933E-004	-3.27672E+002	7	...........
	248	249	3.85592E+000	5.96970E-007	0.00000E+000	2.30187E-006	0.00000E+000	4.79983E-004	-3.27672E+002	7	...........
	249	250	3.85594E+000	5.97641E-007	0.00000E+000	2.30447E-006	0.00000E+000	4.85100E-004	-3.27672E+002	7	...........
	250	251	3.85596E+000	5.96765E-007	0.00000E+000	2.30110E-006	0.00000E+000	4.85900E-004	-3.27672E+002	7	...........
	251	252	3.85597E+000	5.96278E-007	0.00000E+000	2.29923E-006	0.00000E+000	4.85317E-004	-3.27672E+002	7	...........
	252	253	3.85599E+000	5.96513E-007	0.00000E+000	2.30015E-006	0.00000E+000	4.84967E-004	-3.27672E+002	7	...........
	253	254	3.85601E+000	5.96481E-007	0.00000E+000	2.30004E-006	0.00000E+000	4.88717E-004	-3.27672E+002	7	...........
	254	255	3.85603E+000	5.95980E-007	0.00000E+000	2.29812E-006	0.00000E+000	4.91317E-004	-3.27672E+002	7	...........
	255	256	3.85603E+000	5.96350E-007	0.00000E+000	2.29954E-006	0.00000E+000	4.89717E-004	-3.27672E+002	7	...........
	256	257	3.85606E+000	5.96489E-007	0.00000E+000	2.30010E-006	0.00000E+000	4.92050E-004	-3.27672E+002	7	...........
	257	258	3.85607E+000	5.96662E-007	0.00000E+000	2.30077E-006	0.00000E+000	4.91833E-004	-3.27672E+002	7	...........
	258	259	3.85609E+000	5.96619E-007	0.00000E+000	2.30062E-006	0.00000E+000	4.94317E-004	-3.27672E+002	7	...........
	259	260	3.85610E+000	5.96077E-007	0.00000E+000	2.29853E-006	0.00000E+000	4.93267E-004	-3.27672E+002	7	...........
	260	261	3.85612E+000	5.96573E-007	0.00000E+000	2.30046E-006	0.00000E+000	4.92833E-004	-3.27672E+002	7	...........
	261	262	3.85614E+000	5.97086E-007	0.00000E+000	2.30244E-006	0.00000E+000	4.93133E-004	-3.27672E+002	7	...........
	262	263	3.85615E+000	5.97232E-007	0.00000E+000	2.30302E-006	0.00000E+000	4.93850E-004	-3.27672E+002	7	...........
	263	264	3.85616E+000	5.98449E-007	0.00000E+000	2.30772E-006	0.00000E+000	4.93117E-004	-3.27672E+002	7	...........
	264	265	3.85618E+000	5.98080E-007	0.00000E+000	2.30630E-006	0.00000E+000	4.93617E-004	-3.27672E+002	7	...........
	265	266	3.85619E+000	5.96749E-007	0.00000E+000	2.30117E-006	0.00000E+000	4.95533E-004	-3.27672E+002	7	...........
	266	267	3.85620E+000	5.96463E-007	0.00000E+000	2.30008E-006	0.00000E+000	4.94367E-004	-3.27672E+002	7	...........
	267	268	3.85622E+000	5.96755E-007	0.00000E+000	2.30122E-006	0.00000E+000	5.01867E-004	-3.27672E+002	7	...........
	268	269	3.85624E+000	5.96505E-007	0.00000E+000	2.30026E-006	0.00000E+000	4.96967E-004	-3.27672E+002	7	...........
	269	270	3.85624E+000	5.97398E-007	0.00000E+000	2.30371E-006	0.00000E+000	4.97067E-004	-3.27672E+002	7	...........
	270	271	3.85626E+000	5.97334E-007	0.00000E+000	2.30347E-006	0.00000E+000	4.98433E-004	-3.27672E+002	7	...........
	271	272	3.85627E+000	5.97902E-007	0.00000E+000	2.30567E-006	0.00000E+000	4.97083E-004	-3.27672E+002	7	...........
	272	273	3.85628E+000	5.97785E-007	0.00000E+000	2.30523E-006	0.00000E+000	4.99267E-004	-3.27672E+002	7	...........
	273	274	3.85630E+000	5.98108E-007	0.00000E+000	2.30648E-006	0.00000E+000	5.01867E-004	-3.27672E+002	7	...........
	274	275	3.85631E+000	5.97292E-007	0.00000E+000	2.30335E-006	0.00000E+000	5.05417E-004	-3.27672E+002	7	...........
	275	276	3.85633E+000	5.97689E-007	0.00000E+000	2.30488E-006	0.00000E+000	5.00767E-004	-3.27672E+002	7	...........
	276	277	3.85634E+000	5.97449E-007	0.00000E+000	2.30396E-006	0.00000E+000	5.00733E-004	-3.27672E+002	7	...........
	277	278	3.85635E+000	5.97361E-007	0.00000E+000	2.30364E-006	0.00000E+000	4.99617E-004	-3.27672E+002	7	...........
	278	279	3.85637E+000	5.97712E-007	0.00000E+000	2.30500E-006	0.00000E+000	5.03117E-004	-3.27672E+002	7	...........
	279	280	3.85638E+000	5.96677E-007	0.00000E+000	2.30101E-006	0.00000E+000	5.04350E-004	-3.27672E+002	7	...........
	280	281	3.85640E+000	5.97181E-007	0.00000E+000	2.30297E-006	0.00000E+000	5.04083E-004	-3.27672E+002	7	...........
	281	282	3.85640E+000	5.96514E-007	0.00000E+000	2.30040E-006	0.00000E+000	5.02917E-004	-3.27672E+002	7	...........
	282	283	3.85642E+000	5.97363E-007	0.00000E+000	2.30368E-006	0.00000E+000	5.05467E-004	-3.27672E+002	7	...........
	283	284	3.85643E+000	5.97317E-007	0.00000E+000	2.30351E-006	0.00000E+000	5.03133E-004	-3.27672E+002	7	...........
	284	285	3.85645E+000	5.97132E-007	0.00000E+000	2.30281E-006	0.00000E+000	5.00317E-004	-3.27672E+002	7	...........
	285	286	3.85646E+000	5.97910E-007	0.00000E+000	2.30582E-006	0.00000E+000	5.02783E-004	-3.27672E+002	7	...........
	286	287	3.85648E+000	5.97805E-007	0.00000E+000	2.30542E-006	0.00000E+000	5.04400E-004	-3.27672E+002	7	...........
	287	288	3.85649E+000	5.97531E-007	0.00000E+000	2.30437E-006	0.00000E+000	5.04233E-004	-3.27672E+002	7	...........
	288	289	3.85650E+000	5.97712E-007	0.00000E+000	2.30508E-006	0.00000E+000	5.04817E-004	-3.27672E+002	7	...........
	289	290	3.85652E+000	5.97616E-007	0.00000E+000	2.30472E-006	0.00000E+000	5.04533E-004	-3.27672E+002	7	...........
	290	291	3.85653E+000	5.97215E-007	0.00000E+000	2.30318E-006	0.00000E+000	5.03167E-004	-3.27672E+002	7	...........
	291	292	3.85655E+000	5.98076E-007	0.00000E+000	2.30651E-006	0.00000E+000	5.01700E-004	-3.27672E+002	7	...........
	292	293	3.85657E+000	5.97484E-007	0.00000E+000	2.30424E-006	0.00000E+000	5.04300E-004	-3.27672E+002	7	...........
	293	294	3.85659E+000	5.98085E-007	0.00000E+000	2.30656E-006	0.00000E+000	5.05967E-004	-3.27672E+002	7	...........
	294	295	3.85660E+000	5.98527E-007	0.00000E+000	2.30828E-006	0.00000E+000	5.06450E-004	-3.27672E+002	7	...........
	295	296	3.85661E+000	5.98545E-007	0.00000E+000	2.30835E-006	0.00000E+000	5.06217E-004	-3.27672E+002	7	...........
	296	297	3.85663E+000	5.99098E-007	0.00000E+000	2.31050E-006	0.00000E+000	5.07433E-004	-3.27672E+002	7	...........
	297	298	3.85664E+000	5.98210E-007	0.00000E+000	2.30708E-006	0.00000E+000	5.03850E-004	-3.27672E+002	7	...........
	298	299	3.85666E+000	5.97742E-007	0.00000E+000	2.30529E-006	0.00000E+000	5.04450E-004	-3.27672E+002	7	...........
	299	300	3.85668E+000	5.98154E-007	0.00000E+000	2.30689E-006	0.00000E+000	5.07033E-004	-3.27672E+002	7	...........
	300	301	3.85670E+000	5.97766E-007	0.00000E+000	2.30540E-006	0.00000E+000	5.04900E-004	-3.27672E+002	7	...........
	301	302	3.85671E+000	5.98075E-007	0.00000E+000	2.30660E-006	0.00000E+000	5.06050E-004	-3.27672E+002	7	...........
	302	303	3.85672E+000	5.98868E-007	0.00000E+000	2.30966E-006	0.00000E+000	5.05800E-004	-3.27672E+002	7	...........
	303	304	3.85673E+000	5.98329E-007	0.00000E+000	2.30760E-006	0.00000E+000	5.04783E-004	-3.27672E+002	7	...........
	304	305	3.85675E+000	5.98306E-007	0.00000E+000	2.30752E-006	0.00000E+000	5.03267E-004	-3.27672E+002	7	...........
	305	306	3.85677E+000	5.99022E-007	0.00000E+000	2.31029E-006	0.00000E+000	5.01850E-004	-3.27672E+002	7	...........
	306	307	3.85678E+000	5.99100E-007	0.00000E+000	2.31060E-006	0.00000E+000	4.98833E-004	-3.27672E+002	7	...........
	307	308	3.85680E+000	5.99230E-007	0.00000E+000	2.31111E-006	0.00000E+000	5.02100E-004	-3.27672E+002	7	...........
	308	309	3.85682E+000	6.00059E-007	0.00000E+000	2.31432E-006	0.00000E+000	5.02167E-004	-3.27672E+002	7	...........
	309	310	3.85683E+000	5.99024E-007	0.00000E+000	2.31033E-006	0.00000E+000	5.01217E-004	-3.27672E+002	7	...........
	310	311	3.85685E+000	5.98537E-007	0.00000E+000	2.30847E-006	0.00000E+000	5.00767E-004	-3.27672E+002	7	...........
	311	312	3.85688E+000	5.98674E-007	0.00000E+000	2.30901E-006	0.00000E+000	5.00100E-004	-3.27672E+002	7	...........
	312	313	3.85690E+000	5.98177E-007	0.00000E+000	2.30711E-006	0.00000E+000	5.01383E-004	-3.27672E+002	7	...........
	313	314	3.85691E+000	5.98233E-007	0.00000E+000	2.30733E-006	0.00000E+000	5.00983E-004	-3.27672E+002	7	...........
	314	315	3.85692E+000	5.98352E-007	0.00000E+000	2.30779E-006	0.00000E+000	5.02633E-004	-3.27672E+002	7	...........
	315	316	3.85693E+000	5.98416E-007	0.00000E+000	2.30805E-006	0.00000E+000	5.01550E-004	-3.27672E+002	7	...........
	316	317	3.85695E+000	5.98889E-007	0.00000E+000	2.30988E-006	0.00000E+000	4.98700E-004	-3.27672E+002	7	...........
	317	318	3.85696E+000	5.98969E-007	0.00000E+000	2.31020E-006	0.00000E+000	4.97650E-004	-3.27672E+002	7	...........
	318	319	3.85699E+000	5.99686E-007	0.00000E+000	2.31298E-006	0.00000E+000	4.97283E-004	-3.27672E+002	7	...........
	319	320	3.85702E+000	5.98675E-007	0.00000E+000	2.30910E-006	0.00000E+000	4.97183E-004	-3.27672E+002	7	...........
	320	321	3.85703E+000	5.98837E-007	0.00000E+000	2.30973E-006	0.00000E+000	4.99417E-004	-3.27672E+002	7	...........
	321	322	3.85704E+000	5.98959E-007	0.00000E+000	2.31021E-006	0.00000E+000	4.96633E-004	-3.27672E+002	7	...........
	322	323	3.85705E+000	5.98889E-007	0.00000E+000	2.30995E-006	0.00000E+000	4.97383E-004	-3.27672E+002	7	...........
	323	324	3.85707E+000	5.98186E-007	0.00000E+000	2.30724E-006	0.00000E+000	4.93967E-004	-3.27672E+002	7	...........
	324	325	3.85708E+000	5.98109E-007	0.00000E+000	2.30696E-006	0.00000E+000	4.94517E-004	-3.27672E+002	7	...........
	325	326	3.85710E+000	5.98824E-007	0.00000E+000	2.30973E-006	0.00000E+000	4.94067E-004	-3.27672E+002	7	...........
	326	327	3.85712E+000	5.98738E-007	0.00000E+000	2.30940E-006	0.00000E+000	4.97217E-004	-3.27672E+002	7	...........
	327	328	3.85714E+000	5.98931E-007	0.00000E+000	2.31016E-006	0.00000E+000	4.92850E-004	-3.27672E+002	7	...........
	328	329	3.85715E+000	5.99632E-007	0.00000E+000	2.31287E-006	0.00000E+000	4.96050E-004	-3.27672E+002	7	...........
	329	330	3.85716E+000	5.99190E-007	0.00000E+000	2.31117E-006	0.00000E+000	4.93333E-004	-3.27672E+002	7	...........
	330	331	3.85717E+000	5.99837E-007	0.00000E+000	2.31367E-006	0.00000E+000	4.94983E-004	-3.27672E+002	7	...........
	331	332	3.85719E+000	6.00296E-007	0.00000E+000	2.31546E-006	0.00000E+000	4.92867E-004	-3.27672E+002	7	...........
	332	333	3.85720E+000	5.99135E-007	0.00000E+000	2.31098E-006	0.00000E+000	4.94933E-004	-3.27672E+002	7	...........
	333	334	3.85722E+000	5.99127E-007	0.00000E+000	2.31097E-006	0.00000E+000	4.93467E-004	-3.27672E+002	7	...........
	334	335	3.85724E+000	5.99375E-007	0.00000E+000	2.31193E-006	0.00000E+000	4.94900E-004	-3.27672E+002	7	...........
	335	336	3.85725E+000	5.99144E-007	0.00000E+000	2.31105E-006	0.00000E+000	4.92900E-004	-3.27672E+002	7	...........
	336	337	3.85725E+000	5.99046E-007	0.00000E+000	2.31067E-006	0.00000E+000	4.94367E-004	-3.27672E+002	7	...........
	337	338	3.85727E+000	5.98978E-007	0.00000E+000	2.31042E-006	0.00000E+000	4.91250E-004	-3.27672E+002	7	...........
	338	339	3.85729E+000	5.99378E-007	0.00000E+000	2.31198E-006	0.00000E+000	4.90950E-004	-3.27672E+002	7	...........
	339	340	3.85730E+000	5.98924E-007	0.00000E+000	2.31023E-006	0.00000E+000	4.90233E-004	-3.27672E+002	7	...........
	340	341	3.85732E+000	5.99037E-007	0.00000E+000	2.31068E-006	0.00000E+000	4.91667E-004	-3.27672E+002	7	...........
	341	342	3.85733E+000	5.99255E-007	0.00000E+000	2.31152E-006	0.00000E+000	4.90517E-004	-3.27672E+002	7	...........
	342	343	3.85734E+000	6.00136E-007	0.00000E+000	2.31493E-006	0.00000E+000	4.90433E-004	-3.27672E+002	7	...........
	343	344	3.85735E+000	5.99019E-007	0.00000E+000	2.31063E-006	0.00000E+000	4.95183E-004	-3.27672E+002	7	...........
	344	345	3.85738E+000	5.98671E-007	0.00000E+000	2.30930E-006	0.00000E+000	4.91950E-004	-3.27672E+002	7	...........
	345	346	3.85738E+000	5.99376E-007	0.00000E+000	2.31202E-006	0.00000E+000	4.92667E-004	-3.27672E+002	7	...........
	346	347	3.85740E+000	5.98994E-007	0.00000E+000	2.31056E-006	0.00000E+000	4.91400E-004	-3.27672E+002	7	...........
	347	348	3.85741E+000	5.99132E-007	0.00000E+000	2.31110E-006	0.00000E+000	4.89717E-004	-3.27672E+002	7	...........
	348	349	3.85742E+000	5.98928E-007	0.00000E+000	2.31032E-006	0.00000E+000	4.90267E-004	-3.27672E+002	7	...........
	349	350	3.85744E+000	5.99423E-007	0.00000E+000	2.31224E-006	0.00000E+000	4.90250E-004	-3.27672E+002	7	...........
	350	351	3.85744E+000	5.99968E-007	0.00000E+000	2.31434E-006	0.00000E+000	4.86533E-004	-3.27672E+002	7	...........
	351	352	3.85746E+000	5.99376E-007	0.00000E+000	2.31207E-006	0.00000E+000	4.88383E-004	-3.27672E+002	7	...........
	352	353	3.85747E+000	6.00017E-007	0.00000E+000	2.31455E-006	0.00000E+000	4.89583E-004	-3.27672E+002	7	...........
	353	354	3.85748E+000	6.00175E-007	0.00000E+000	2.31517E-006	0.00000E+000	4.90150E-004	-3.27672E+002	7	...........
	354	355	3.85750E+000	5.99560E-007	0.00000E+000	2.31280E-006	0.00000E+000	4.89667E-004	-3.27672E+002	7	...........
	355	356	3.85751E+000	5.99363E-007	0.00000E+000	2.31205E-006	0.00000E+000	4.91000E-004	-3.27672E+002	7	...........
	356	357	3.85752E+000	5.99378E-007	0.00000E+000	2.31211E-006	0.00000E+000	4.90200E-004	-3.27672E+002	7	...........
	357	358	3.85753E+000	5.99969E-007	0.00000E+000	2.31440E-006	0.00000E+000	4.84633E-004	-3.27672E+002	7	...........
	358	359	3.85755E+000	5.99592E-007	0.00000E+000	2.31295E-006	0.00000E+000	4.87783E-004	-3.27672E+002	7	...........
	359	360	3.85756E+000	5.99378E-007	0.00000E+000	2.31213E-006	0.00000E+000	4.86333E-004	-3.27672E+002	7	...........
	360	361	3.85757E+000	6.00041E-007	0.00000E+000	2.31470E-006	0.00000E+000	4.87267E-004	-3.27672E+002	7	...........
	361	362	3.85759E+000	5.99961E-007	0.00000E+000	2.31440E-006	0.00000E+000	4.89367E-004	-3.27672E+002	7	...........
	362	363	3.85759E+000	5.99996E-007	0.00000E+000	2.31454E-006	0.00000E+000	4.86750E-004	-3.27672E+002	7	...........
	363	364	3.85761E+000	5.99332E-007	0.00000E+000	2.31199E-006	0.00000E+000	4.85633E-004	-3.27672E+002	7	...........
	364	365	3.85762E+000	5.99666E-007	0.00000E+000	2.31328E-006	0.00000E+000	4.88800E-004	-3.27672E+002	7	...........
	365	366	3.85762E+000	5.99835E-007	0.00000E+000	2.31394E-006	0.00000E+000	4.86233E-004	-3.27672E+002	7	...........
	366	367	3.85763E+000	5.99896E-007	0.00000E+000	2.31418E-006	0.00000E+000	4.88483E-004	-3.27672E+002	7	...........
	367	368	3.85764E+000	6.00298E-007	0.00000E+000	2.31573E-006	0.00000E+000	4.87767E-004	-3.27672E+002	7	...........
	368	369	3.85766E+000	6.00319E-007	0.00000E+000	2.31582E-006	0.00000E+000	4.87817E-004	-3.27672E+002	7	...........
	369	370	3.85766E+000	6.00059E-007	0.00000E+000	2.31482E-006	0.00000E+000	4.87183E-004	-3.27672E+002	7	...........
	370	371	3.85767E+000	5.99659E-007	0.00000E+000	2.31328E-006	0.00000E+000	4.87133E-004	-3.27672E+002	7	...........
	371	372	3.85768E+000	5.99575E-007	0.00000E+000	2.31296E-006	0.00000E+000	4.87317E-004	-3.27672E+002	7	...........
	372	373	3.85769E+000	5.99619E-007	0.00000E+000	2.31315E-006	0.00000E+000	4.84350E-004	-3.27672E+002	7	...........
	373	374	3.85770E+000	6.00089E-007	0.00000E+000	2.31496E-006	0.00000E+000	4.86567E-004	-3.27672E+002	7	...........
	374	375	3.85771E+000	6.00306E-007	0.00000E+000	2.31581E-006	0.00000E+000	4.86733E-004	-3.27672E+002	7	...........
	375	376	3.85771E+000	6.00802E-007	0.00000E+000	2.31772E-006	0.00000E+000	4.85833E-004	-3.27672E+002	7	...........
	376	377	3.85773E+000	6.01675E-007	0.00000E+000	2.32110E-006	0.00000E+000	4.81433E-004	-3.27672E+002	7	...........
	377	378	3.85773E+000	5.99737E-007	0.00000E+000	2.31362E-006	0.00000E+000	4.85833E-004	-3.27672E+002	7	...........
	378	379	3.85775E+000	5.99848E-007	0.00000E+000	2.31406E-006	0.00000E+000	4.83750E-004	-3.27672E+002	7	...........
	379	380	3.85776E+000	6.00012E-007	0.00000E+000	2.31470E-006	0.00000E+000	4.86583E-004	-3.27672E+002	7	...........
	380	381	3.85776E+000	6.00760E-007	0.00000E+000	2.31759E-006	0.00000E+000	4.88033E-004	-3.27672E+002	7	...........
	381	382	3.85778E+000	6.01027E-007	0.00000E+000	2.31863E-006	0.00000E+000	4.89200E-004	-3.27672E+002	7	...........
	382	383	3.85778E+000	6.00823E-007	0.00000E+000	2.31784E-006	0.00000E+000	4.85633E-004	-3.27672E+002	7	...........
	383	384	3.85780E+000	6.01096E-007	0.00000E+000	2.31891E-006	0.00000E+000	4.90483E-004	-3.27672E+002	7	...........
	384	385	3.85780E+000	6.01672E-007	0.00000E+000	2.32113E-006	0.00000E+000	4.84883E-004	-3.27672E+002	7	...........
	385	386	3.85781E+000	6.00940E-007	0.00000E+000	2.31831E-006	0.00000E+000	4.83483E-004	-3.27672E+002	7	...........
	386	387	3.85783E+000	6.01310E-007	0.00000E+000	2.31975E-006	0.00000E+000	4.87950E-004	-3.27672E+002	7	...........
	387	388	3.85783E+000	6.01543E-007	0.00000E+000	2.32065E-006	0.00000E+000	4.85333E-004	-3.27672E+002	7	...........
	388	389	3.85784E+000	6.00910E-007	0.00000E+000	2.31821E-006	0.00000E+000	4.84817E-004	-3.27672E+002	7	...........
	389	390	3.85784E+000	6.00074E-007	0.00000E+000	2.31499E-006	0.00000E+000	4.87083E-004	-3.27672E+002	7	...........
	390	391	3.85785E+000	6.01024E-007	0.00000E+000	2.31866E-006	0.00000E+000	4.85000E-004	-3.27672E+002	7	...........
	391	392	3.85786E+000	6.01524E-007	0.00000E+000	2.32059E-006	0.00000E+000	4.87767E-004	-3.27672E+002	7	...........
	392	393	3.85787E+000	6.00629E-007	0.00000E+000	2.31715E-006	0.00000E+000	4.84500E-004	-3.27672E+002	7	...........
	393	394	3.85787E+000	6.01174E-007	0.00000E+000	2.31925E-006	0.00000E+000	4.85167E-004	-3.27672E+002	7	...........
	394	395	3.85788E+000	6.01139E-007	0.00000E+000	2.31913E-006	0.00000E+000	4.84100E-004	-3.27672E+002	7	...........
	395	396	3.85789E+000	6.01808E-007	0.00000E+000	2.32171E-006	0.00000E+000	4.83567E-004	-3.27672E+002	7	...........
	396	397	3.85790E+000	6.01702E-007	0.00000E+000	2.32131E-006	0.00000E+000	4.86783E-004	-3.27672E+002	7	...........
	397	398	3.85790E+000	6.01466E-007	0.00000E+000	2.32040E-006	0.00000E+000	4.86383E-004	-3.27672E+002	7	...........
	398	399	3.85791E+000	6.02496E-007	0.00000E+000	2.32438E-006	0.00000E+000	4.83517E-004	-3.27672E+002	7	...........
	399	400	3.85793E+000	6.01194E-007	0.00000E+000	2.31936E-006	0.00000E+000	4.82017E-004	-3.27672E+002	7	...........
	400	401	3.85793E+000	6.00696E-007	0.00000E+000	2.31744E-006	0.00000E+000	4.83333E-004	-3.27672E+002	7	...........
	401	402	3.85794E+000	6.01344E-007	0.00000E+000	2.31995E-006	0.00000E+000	4.81967E-004	-3.27672E+002	7	...........
	402	403	3.85795E+000	6.01252E-007	0.00000E+000	2.31960E-006	0.00000E+000	4.84050E-004	-3.27672E+002	7	...........
	403	404	3.85796E+000	6.00564E-007	0.00000E+000	2.31695E-006	0.00000E+000	4.84783E-004	-3.27672E+002	7	...........
	404	405	3.85797E+000	6.00879E-007	0.00000E+000	2.31817E-006	0.00000E+000	4.86100E-004	-3.27672E+002	7	...........
	405	406	3.85797E+000	6.01173E-007	0.00000E+000	2.31931E-006	0.00000E+000	4.81667E-004	-3.27672E+002	7	...........
	406	407	3.85798E+000	6.01441E-007	0.00000E+000	2.32035E-006	0.00000E+000	4.81667E-004	-3.27672E+002	7	...........
	407	408	3.85799E+000	6.01621E-007	0.00000E+000	2.32105E-006	0.00000E+000	4.84200E-004	-3.27672E+002	7	...........
	408	409	3.85800E+000	6.01728E-007	0.00000E+000	2.32147E-006	0.00000E+000	4.84133E-004	-3.27672E+002	7	...........
	409	410	3.85800E+000	6.01800E-007	0.00000E+000	2.32174E-006	0.00000E+000	4.87167E-004	-3.27672E+002	7	...........
	410	411	3.85801E+000	6.02035E-007	0.00000E+000	2.32266E-006	0.00000E+000	4.86733E-004	-3.27672E+002	7	...........
	411	412	3.85801E+000	6.01713E-007	0.00000E+000	2.32142E-006	0.00000E+000	4.86717E-004	-3.27672E+002	7	...........
	412	413	3.85802E+000	6.01380E-007	0.00000E+000	2.32014E-006	0.00000E+000	4.86417E-004	-3.27672E+002	7	...........
	413	414	3.85803E+000	6.00802E-007	0.00000E+000	2.31791E-006	0.00000E+000	4.87783E-004	-3.27672E+002	7	...........
	414	415	3.85803E+000	6.01599E-007	0.00000E+000	2.32099E-006	0.00000E+000	4.81633E-004	-3.27672E+002	7	...........
	415	416	3.85804E+000	6.01010E-007	0.00000E+000	2.31872E-006	0.00000E+000	4.86267E-004	-3.27672E+002	7	...........
	416	417	3.85806E+000	6.01095E-007	0.00000E+000	2.31906E-006	0.00000E+000	4.82750E-004	-3.27672E+002	7	...........
	417	418	3.85807E+000	6.01328E-007	0.00000E+000	2.31996E-006	0.00000E+000	4.83650E-004	-3.27672E+002	7	...........
	418	419	3.85807E+000	6.02069E-007	0.00000E+000	2.32282E-006	0.00000E+000	4.84867E-004	-3.27672E+002	7	...........
	419	420	3.85808E+000	6.01327E-007	0.00000E+000	2.31997E-006	0.00000E+000	4.82833E-004	-3.27672E+002	7	...........
	420	421	3.85808E+000	6.02985E-007	0.00000E+000	2.32637E-006	0.00000E+000	4.82933E-004	-3.27672E+002	7	...........
	421	422	3.85809E+000	6.02911E-007	0.00000E+000	2.32608E-006	0.00000E+000	4.82283E-004	-3.27672E+002	7	...........
	422	423	3.85810E+000	6.01856E-007	0.00000E+000	2.32202E-006	0.00000E+000	4.84917E-004	-3.27672E+002	7	...........
	423	424	3.85811E+000	6.01630E-007	0.00000E+000	2.32115E-006	0.00000E+000	4.83733E-004	-3.27672E+002	7	...........
	424	425	3.85812E+000	6.01175E-007	0.00000E+000	2.31941E-006	0.00000E+000	4.83800E-004	-3.27672E+002	7	...........
	425	426	3.85812E+000	6.02430E-007	0.00000E+000	2.32425E-006	0.00000E+000	4.82317E-004	-3.27672E+002	7	...........
	426	427	3.85813E+000	6.01740E-007	0.00000E+000	2.32159E-006	0.00000E+000	4.83000E-004	-3.27672E+002	7	...........
	427	428	3.85814E+000	6.01728E-007	0.00000E+000	2.32155E-006	0.00000E+000	4.83700E-004	-3.27672E+002	7	...........
	428	429	3.85815E+000	6.02113E-007	0.00000E+000	2.32304E-006	0.00000E+000	4.82233E-004	-3.27672E+002	7	...........
	429	430	3.85815E+000	6.02745E-007	0.00000E+000	2.32548E-006	0.00000E+000	4.85083E-004	-3.27672E+002	7	...........
	430	431	3.85816E+000	6.02741E-007	0.00000E+000	2.32547E-006	0.00000E+000	4.84500E-004	-3.27672E+002	7	...........
	431	432	3.85817E+000	6.02819E-007	0.00000E+000	2.32577E-006	0.00000E+000	4.82617E-004	-3.27672E+002	7	...........
	432	433	3.85818E+000	6.02713E-007	0.00000E+000	2.32537E-006	0.00000E+000	4.82050E-004	-3.27672E+002	7	...........
	433	434	3.85819E+000	6.02253E-007	0.00000E+000	2.32361E-006	0.00000E+000	4.84133E-004	-3.27672E+002	7	...........
	434	435	3.85819E+000	6.02725E-007	0.00000E+000	2.32543E-006	0.00000E+000	4.82783E-004	-3.27672E+002	7	...........
	435	436	3.85820E+000	6.02357E-007	0.00000E+000	2.32401E-006	0.00000E+000	4.84667E-004	-3.27672E+002	7	...........
	436	437	3.85821E+000	6.02439E-007	0.00000E+000	2.32434E-006	0.00000E+000	4.84600E-004	-3.27672E+002	7	...........
	437	438	3.85823E+000	6.02198E-007	0.00000E+000	2.32342E-006	0.00000E+000	4.82250E-004	-3.27672E+002	7	...........
	438	439	3.85823E+000	6.01701E-007	0.00000E+000	2.32150E-006	0.00000E+000	4.84317E-004	-3.27672E+002	7	...........
	439	440	3.85824E+000	6.02205E-007	0.00000E+000	2.32345E-006	0.00000E+000	4.82567E-004	-3.27672E+002	7	...........
	440	441	3.85824E+000	6.02016E-007	0.00000E+000	2.32272E-006	0.00000E+000	4.82833E-004	-3.27672E+002	7	...........
	441	442	3.85825E+000	6.03140E-007	0.00000E+000	2.32706E-006	0.00000E+000	4.84750E-004	-3.27672E+002	7	...........
	442	443	3.85826E+000	6.02909E-007	0.00000E+000	2.32618E-006	0.00000E+000	4.81183E-004	-3.27672E+002	7	...........
	443	444	3.85827E+000	6.03905E-007	0.00000E+000	2.33002E-006	0.00000E+000	4.80383E-004	-3.27672E+002	7	...........
	444	445	3.85829E+000	6.03819E-007	0.00000E+000	2.32971E-006	0.00000E+000	4.84383E-004	-3.27672E+002	7	...........
	445	446	3.85829E+000	6.03314E-007	0.00000E+000	2.32776E-006	0.00000E+000	4.84167E-004	-3.27672E+002	7	...........
	446	447	3.85829E+000	6.02982E-007	0.00000E+000	2.32648E-006	0.00000E+000	4.82033E-004	-3.27672E+002	7	...........
	447	448	3.85830E+000	6.03492E-007	0.00000E+000	2.32845E-006	0.00000E+000	4.82700E-004	-3.27672E+002	7	...........
	448	449	3.85831E+000	6.03523E-007	0.00000E+000	2.32858E-006	0.00000E+000	4.81867E-004	-3.27672E+002	7	...........
	449	450	3.85832E+000	6.02632E-007	0.00000E+000	2.32515E-006	0.00000E+000	4.80400E-004	-3.27672E+002	7	...........
	450	451	3.85833E+000	6.03473E-007	0.00000E+000	2.32840E-006	0.00000E+000	4.83700E-004	-3.27672E+002	7	...........
	451	452	3.85834E+000	6.03128E-007	0.00000E+000	2.32707E-006	0.00000E+000	4.81150E-004	-3.27672E+002	7	...........
	452	453	3.85834E+000	6.03329E-007	0.00000E+000	2.32785E-006	0.00000E+000	4.85867E-004	-3.27672E+002	7	...........
	453	454	3.85834E+000	6.04408E-007	0.00000E+000	2.33201E-006	0.00000E+000	4.83383E-004	-3.27672E+002	7	...........
	454	455	3.85836E+000	6.03136E-007	0.00000E+000	2.32711E-006	0.00000E+000	4.84150E-004	-3.27672E+002	7	...........
	455	456	3.85837E+000	6.03199E-007	0.00000E+000	2.32737E-006	0.00000E+000	4.80750E-004	-3.27672E+002	7	...........
	456	457	3.85838E+000	6.03325E-007	0.00000E+000	2.32786E-006	0.00000E+000	4.79800E-004	-3.27672E+002	7	...........
	457	458	3.85839E+000	6.02290E-007	0.00000E+000	2.32387E-006	0.00000E+000	4.80133E-004	-3.27672E+002	7	...........
	458	459	3.85839E+000	6.01777E-007	0.00000E+000	2.32189E-006	0.00000E+000	4.80800E-004	-3.27672E+002	7	...........
	459	460	3.85841E+000	6.02119E-007	0.00000E+000	2.32322E-006	0.00000E+000	4.81583E-004	-3.27672E+002	7	...........
	460	461	3.85841E+000	6.01900E-007	0.00000E+000	2.32238E-006	0.00000E+000	4.79450E-004	-3.27672E+002	7	...........
	461	462	3.85842E+000	6.02457E-007	0.00000E+000	2.32453E-006	0.00000E+000	4.81233E-004	-3.27672E+002	7	...........
	462	463	3.85843E+000	6.02319E-007	0.00000E+000	2.32401E-006	0.00000E+000	4.80717E-004	-3.27672E+002	7	...........
	463	464	3.85844E+000	6.02260E-007	0.00000E+000	2.32379E-006	0.00000E+000	4.82600E-004	-3.27672E+002	7	...........
	464	465	3.85845E+000	6.02035E-007	0.00000E+000	2.32292E-006	0.00000E+000	4.82933E-004	-3.27672E+002	7	...........
	465	466	3.85845E+000	6.02337E-007	0.00000E+000	2.32409E-006	0.00000E+000	4.81283E-004	-3.27672E+002	7	...........
	466	467	3.85846E+000	6.02696E-007	0.00000E+000	2.32548E-006	0.00000E+000	4.82467E-004	-3.27672E+002	7	...........
	467	468	3.85847E+000	6.02670E-007	0.00000E+000	2.32538E-006	0.00000E+000	4.80433E-004	-3.27672E+002	7	...........
	468	469	3.85847E+000	6.02504E-007	0.00000E+000	2.32474E-006	0.00000E+000	4.83433E-004	-3.27672E+002	7	...........
	469	470	3.85848E+000	6.02531E-007	0.00000E+000	2.32485E-006	0.00000E+000	4.83033E-004	-3.27672E+002	7	...........
	470	471	3.85848E+000	6.02801E-007	0.00000E+000	2.32590E-006	0.00000E+000	4.83133E-004	-3.27672E+002	7	...........
	471	472	3.85848E+000	6.03160E-007	0.00000E+000	2.32728E-006	0.00000E+000	4.85083E-004	-3.27672E+002	7	...........
	472	473	3.85850E+000	6.03135E-007	0.00000E+000	2.32719E-006	0.00000E+000	4.83050E-004	-3.27672E+002	7	...........
	473	474	3.85850E+000	6.03041E-007	0.00000E+000	2.32683E-006	0.00000E+000	4.82383E-004	-3.27672E+002	7	...........
	474	475	3.85851E+000	6.03428E-007	0.00000E+000	2.32833E-006	0.00000E+000	4.84567E-004	-3.27672E+002	7	...........
	475	476	3.85852E+000	6.03328E-007	0.00000E+000	2.32795E-006	0.00000E+000	4.82283E-004	-3.27672E+002	7	...........
	476	477	3.85852E+000	6.02493E-007	0.00000E+000	2.32473E-006	0.00000E+000	4.79200E-004	-3.27672E+002	7	...........
	477	478	3.85853E+000	6.02519E-007	0.00000E+000	2.32483E-006	0.00000E+000	4.83150E-004	-3.27672E+002	7	...........
	478	479	3.85854E+000	6.03081E-007	0.00000E+000	2.32702E-006	0.00000E+000	4.81750E-004	-3.27672E+002	7	...........
	479	480	3.85855E+000	6.02246E-007	0.00000E+000	2.32380E-006	0.00000E+000	4.82750E-004	-3.27672E+002	7	...........
	480	481	3.85855E+000	6.02630E-007	0.00000E+000	2.32528E-006	0.00000E+000	4.81500E-004	-3.27672E+002	7	...........
	481	482	3.85857E+000	6.02367E-007	0.00000E+000	2.32427E-006	0.00000E+000	4.84200E-004	-3.27672E+002	7	...........
	482	483	3.85857E+000	6.02757E-007	0.00000E+000	2.32578E-006	0.00000E+000	4.84583E-004	-3.27672E+002	7	...........
	483	484	3.85858E+000	6.03019E-007	0.00000E+000	2.32680E-006	0.00000E+000	4.82550E-004	-3.27672E+002	7	...........
	484	485	3.85859E+000	6.01994E-007	0.00000E+000	2.32285E-006	0.00000E+000	4.81450E-004	-3.27672E+002	7	...........
	485	486	3.85860E+000	6.03432E-007	0.00000E+000	2.32840E-006	0.00000E+000	4.82033E-004	-3.27672E+002	7	...........
	486	487	3.85860E+000	6.03218E-007	0.00000E+000	2.32758E-006	0.00000E+000	4.83350E-004	-3.27672E+002	7	...........
	487	488	3.85861E+000	6.03448E-007	0.00000E+000	2.32847E-006	0.00000E+000	4.82350E-004	-3.27672E+002	7	...........
	488	489	3.85861E+000	6.03137E-007	0.00000E+000	2.32727E-006	0.00000E+000	4.80783E-004	-3.27672E+002	7	...........
	489	490	3.85861E+000	6.03487E-007	0.00000E+000	2.32862E-006	0.00000E+000	4.80483E-004	-3.27672E+002	7	...........
	490	491	3.85862E+000	6.03237E-007	0.00000E+000	2.32767E-006	0.00000E+000	4.84717E-004	-3.27672E+002	7	...........
	491	492	3.85863E+000	6.03219E-007	0.00000E+000	2.32760E-006	0.00000E+000	4.82833E-004	-3.27672E+002	7	...........
	492	493	3.85863E+000	6.03525E-007	0.00000E+000	2.32878E-006	0.00000E+000	4.79183E-004	-3.27672E+002	7	...........
	493	494	3.85864E+000	6.03501E-007	0.00000E+000	2.32869E-006	0.00000E+000	4.77850E-004	-3.27672E+002	7	...........
	494	495	3.85865E+000	6.03914E-007	0.00000E+000	2.33029E-006	0.00000E+000	4.80400E-004	-3.27672E+002	7	...........
	495	496	3.85865E+000	6.03818E-007	0.00000E+000	2.32992E-006	0.00000E+000	4.79550E-004	-3.27672E+002	7	...........
	496	497	3.85866E+000	6.04402E-007	0.00000E+000	2.33218E-006	0.00000E+000	4.80617E-004	-3.27672E+002	7	...........
	497	498	3.85866E+000	6.04075E-007	0.00000E+000	2.33092E-006	0.00000E+000	4.84117E-004	-3.27672E+002	7	...........
	498	499	3.85867E+000	6.03189E-007	0.00000E+000	2.32751E-006	0.00000E+000	4.79250E-004	-3.27672E+002	7	...........
	499	500	3.85867E+000	6.03507E-007	0.00000E+000	2.32873E-006	0.00000E+000	4.82333E-004	-3.27672E+002	7	...........
	500	501	3.85868E+000	6.03220E-007	0.00000E+000	2.32763E-006	0.00000E+000	4.79800E-004	-3.27672E+002	7	...........
	501	502	3.85869E+000	6.03479E-007	0.00000E+000	2.32863E-006	0.00000E+000	4.78933E-004	-3.27672E+002	7	...........
	502	503	3.85869E+000	6.04131E-007	0.00000E+000	2.33116E-006	0.00000E+000	4.83617E-004	-3.27672E+002	7	...........
	503	504	3.85869E+000	6.04450E-007	0.00000E+000	2.33239E-006	0.00000E+000	4.77267E-004	-3.27672E+002	7	...........
	504	505	3.85870E+000	6.03274E-007	0.00000E+000	2.32786E-006	0.00000E+000	4.79733E-004	-3.27672E+002	7	...........
	505	506	3.85871E+000	6.03312E-007	0.00000E+000	2.32801E-006	0.00000E+000	4.78433E-004	-3.27672E+002	7	...........
	506	507	3.85871E+000	6.03759E-007	0.00000E+000	2.32973E-006	0.00000E+000	4.82667E-004	-3.27672E+002	7	...........
	507	508	3.85872E+000	6.03165E-007	0.00000E+000	2.32745E-006	0.00000E+000	4.81367E-004	-3.27672E+002	7	...........
	508	509	3.85872E+000	6.03817E-007	0.00000E+000	2.32996E-006	0.00000E+000	4.81467E-004	-3.27672E+002	7	...........
	509	510	3.85873E+000	6.04707E-007	0.00000E+000	2.33340E-006	0.00000E+000	4.79200E-004	-3.27672E+002	7	...........
	510	511	3.85873E+000	6.04333E-007	0.00000E+000	2.33196E-006	0.00000E+000	4.79267E-004	-3.27672E+002	7	...........
	511	512	3.85873E+000	6.04870E-007	0.00000E+000	2.33403E-006	0.00000E+000	4.80683E-004	-3.27672E+002	7	...........
	512	513	3.85874E+000	6.04145E-007	0.00000E+000	2.33124E-006	0.00000E+000	4.79933E-004	-3.27672E+002	7	...........
	513	514	3.85875E+000	6.03789E-007	0.00000E+000	2.32987E-006	0.00000E+000	4.79817E-004	-3.27672E+002	7	...........
	514	515	3.85875E+000	6.03619E-007	0.00000E+000	2.32921E-006	0.00000E+000	4.78267E-004	-3.27672E+002	7	...........
	515	516	3.85876E+000	6.03772E-007	0.00000E+000	2.32981E-006	0.00000E+000	4.81800E-004	-3.27672E+002	7	...........
	516	517	3.85876E+000	6.03723E-007	0.00000E+000	2.32962E-006	0.00000E+000	4.79617E-004	-3.27672E+002	7	...........
	517	518	3.85877E+000	6.04014E-007	0.00000E+000	2.33075E-006	0.00000E+000	4.81233E-004	-3.27672E+002	7	...........
	518	519	3.85877E+000	6.04060E-007	0.00000E+000	2.33093E-006	0.00000E+000	4.82900E-004	-3.27672E+002	7	...........
	519	520	3.85877E+000	6.04811E-007	0.00000E+000	2.33383E-006	0.00000E+000	4.83100E-004	-3.27672E+002	7	...........
	520	521	3.85878E+000	6.04815E-007	0.00000E+000	2.33385E-006	0.00000E+000	4.81550E-004	-3.27672E+002	7	...........
	521	522	3.85878E+000	6.04872E-007	0.00000E+000	2.33407E-006	0.00000E+000	4.82267E-004	-3.27672E+002	7	...........
	522	523	3.85879E+000	6.04380E-007	0.00000E+000	2.33217E-006	0.00000E+000	4.80867E-004	-3.27672E+002	7	...........
	523	524	3.85879E+000	6.04026E-007	0.00000E+000	2.33081E-006	0.00000E+000	4.80183E-004	-3.27672E+002	7	...........
	524	525	3.85880E+000	6.04419E-007	0.00000E+000	2.33233E-006	0.00000E+000	4.78067E-004	-3.27672E+002	7	...........
	525	526	3.85880E+000	6.04149E-007	0.00000E+000	2.33129E-006	0.00000E+000	4.82450E-004	-3.27672E+002	7	...........
	526	527	3.85881E+000	6.04748E-007	0.00000E+000	2.33360E-006	0.00000E+000	4.78783E-004	-3.27672E+002	7	...........
	527	528	3.85882E+000	6.04798E-007	0.00000E+000	2.33380E-006	0.00000E+000	4.78600E-004	-3.27672E+002	7	...........
	528	529	3.85882E+000	6.04803E-007	0.00000E+000	2.33382E-006	0.00000E+000	4.81900E-004	-3.27672E+002	7	...........
	529	530	3.85882E+000	6.04349E-007	0.00000E+000	2.33207E-006	0.00000E+000	4.80667E-004	-3.27672E+002	7	...........
	530	531	3.85882E+000	6.04446E-007	0.00000E+000	2.33245E-006	0.00000E+000	4.82883E-004	-3.27672E+002	7	...........
	531	532	3.85882E+000	6.04409E-007	0.00000E+000	2.33231E-006	0.00000E+000	4.83683E-004	-3.27672E+002	7	...........
	532	533	3.85883E+000	6.04636E-007	0.00000E+000	2.33319E-006	0.00000E+000	4.82850E-004	-3.27672E+002	7	...........
	533	534	3.85883E+000	6.05044E-007	0.00000E+000	2.33477E-006	0.00000E+000	4.83150E-004	-3.27672E+002	7	...........
	534	535	3.85883E+000	6.05621E-007	0.00000E+000	2.33699E-006	0.00000E+000	4.80367E-004	-3.27672E+002	7	...........
	535	536	3.85884E+000	6.04756E-007	0.00000E+000	2.33365E-006	0.00000E+000	4.85833E-004	-3.27672E+002	7	...........
	536	537	3.85885E+000	6.04043E-007	0.00000E+000	2.33091E-006	0.00000E+000	4.79250E-004	-3.27672E+002	7	...........
	537	538	3.85885E+000	6.04358E-007	0.00000E+000	2.33213E-006	0.00000E+000	4.82367E-004	-3.27672E+002	7	...........
	538	539	3.85886E+000	6.04646E-007	0.00000E+000	2.33324E-006	0.00000E+000	4.81883E-004	-3.27672E+002	7	...........
	539	540	3.85886E+000	6.03625E-007	0.00000E+000	2.32930E-006	0.00000E+000	4.83350E-004	-3.27672E+002	7	...........
	540	541	3.85887E+000	6.04450E-007	0.00000E+000	2.33249E-006	0.00000E+000	4.84617E-004	-3.27672E+002	7	...........
	541	542	3.85888E+000	6.05116E-007	0.00000E+000	2.33507E-006	0.00000E+000	4.80867E-004	-3.27672E+002	7	...........
	542	543	3.85888E+000	6.04321E-007	0.00000E+000	2.33200E-006	0.00000E+000	4.82333E-004	-3.27672E+002	7	...........
	543	544	3.85888E+000	6.04635E-007	0.00000E+000	2.33321E-006	0.00000E+000	4.80550E-004	-3.27672E+002	7	...........
	544	545	3.85888E+000	6.04171E-007	0.00000E+000	2.33143E-006	0.00000E+000	4.81333E-004	-3.27672E+002	7	...........
	545	546	3.85889E+000	6.04901E-007	0.00000E+000	2.33424E-006	0.00000E+000	4.83233E-004	-3.27672E+002	7	...........
	546	547	3.85889E+000	6.05003E-007	0.00000E+000	2.33464E-006	0.00000E+000	4.83250E-004	-3.27672E+002	7	...........
	547	548	3.85890E+000	6.04260E-007	0.00000E+000	2.33178E-006	0.00000E+000	4.82967E-004	-3.27672E+002	7	...........
	548	549	3.85889E+000	6.04063E-007	0.00000E+000	2.33101E-006	0.00000E+000	4.84783E-004	-3.27672E+002	7	...........
	549	550	3.85890E+000	6.03925E-007	0.00000E+000	2.33049E-006	0.00000E+000	4.82233E-004	-3.27672E+002	7	...........
	550	551	3.85891E+000	6.04160E-007	0.00000E+000	2.33140E-006	0.00000E+000	4.79567E-004	-3.27672E+002	7	...........
	551	552	3.85891E+000	6.03892E-007	0.00000E+000	2.33037E-006	0.00000E+000	4.83033E-004	-3.27672E+002	7	...........
	552	553	3.85892E+000	6.04518E-007	0.00000E+000	2.33278E-006	0.00000E+000	4.82283E-004	-3.27672E+002	7	...........
	553	554	3.85892E+000	6.05110E-007	0.00000E+000	2.33507E-006	0.00000E+000	4.86117E-004	-3.27672E+002	7	...........
	554	555	3.85892E+000	6.05090E-007	0.00000E+000	2.33500E-006	0.00000E+000	4.83950E-004	-3.27672E+002	7	...........
	555	556	3.85893E+000	6.05295E-007	0.00000E+000	2.33579E-006	0.00000E+000	4.85717E-004	-3.27672E+002	7	...........
	556	557	3.85893E+000	6.05657E-007	0.00000E+000	2.33719E-006	0.00000E+000	4.85433E-004	-3.27672E+002	7	...........
	557	558	3.85894E+000	6.05329E-007	0.00000E+000	2.33593E-006	0.00000E+000	4.84217E-004	-3.27672E+002	7	...........
	558	559	3.85894E+000	6.04437E-007	0.00000E+000	2.33249E-006	0.00000E+000	4.85083E-004	-3.27672E+002	7	...........
	559	560	3.85895E+000	6.04094E-007	0.00000E+000	2.33117E-006	0.00000E+000	4.84583E-004	-3.27672E+002	7	...........
	560	561	3.85895E+000	6.04657E-007	0.00000E+000	2.33334E-006	0.00000E+000	4.84650E-004	-3.27672E+002	7	...........
	561	562	3.85896E+000	6.04249E-007	0.00000E+000	2.33177E-006	0.00000E+000	4.86967E-004	-3.27672E+002	7	...........
	562	563	3.85896E+000	6.04627E-007	0.00000E+000	2.33323E-006	0.00000E+000	4.85983E-004	-3.27672E+002	7	...........
	563	564	3.85896E+000	6.04956E-007	0.00000E+000	2.33450E-006	0.00000E+000	4.84467E-004	-3.27672E+002	7	...........
	564	565	3.85897E+000	6.04330E-007	0.00000E+000	2.33209E-006	0.00000E+000	4.83400E-004	-3.27672E+002	7	...........
	565	566	3.85897E+000	6.04274E-007	0.00000E+000	2.33188E-006	0.00000E+000	4.83000E-004	-3.27672E+002	7	...........
	566	567	3.85898E+000	6.04286E-007	0.00000E+000	2.33193E-006	0.00000E+000	4.86133E-004	-3.27672E+002	7	...........
	567	568	3.85898E+000	6.05068E-007	0.00000E+000	2.33495E-006	0.00000E+000	4.90433E-004	-3.27672E+002	7	...........
	568	569	3.85899E+000	6.04140E-007	0.00000E+000	2.33137E-006	0.00000E+000	4.87433E-004	-3.27672E+002	7	...........
	569	570	3.85899E+000	6.04753E-007	0.00000E+000	2.33373E-006	0.00000E+000	4.85183E-004	-3.27672E+002	7	...........
	570	571	3.85899E+000	6.04338E-007	0.00000E+000	2.33213E-006	0.00000E+000	4.85617E-004	-3.27672E+002	7	...........
	571	572	3.85900E+000	6.04328E-007	0.00000E+000	2.33210E-006	0.00000E+000	4.84150E-004	-3.27672E+002	7	...........
	572	573	3.85901E+000	6.04277E-007	0.00000E+000	2.33191E-006	0.00000E+000	4.86083E-004	-3.27672E+002	7	...........
	573	574	3.85901E+000	6.04098E-007	0.00000E+000	2.33122E-006	0.00000E+000	4.85233E-004	-3.27672E+002	7	...........
	574	575	3.85901E+000	6.04670E-007	0.00000E+000	2.33343E-006	0.00000E+000	4.87183E-004	-3.27672E+002	7	...........
	575	576	3.85902E+000	6.04819E-007	0.00000E+000	2.33401E-006	0.00000E+000	4.87217E-004	-3.27672E+002	7	...........
	576	577	3.85902E+000	6.04750E-007	0.00000E+000	2.33374E-006	0.00000E+000	4.89150E-004	-3.27672E+002	7	...........
	577	578	3.85902E+000	6.05201E-007	0.00000E+000	2.33549E-006	0.00000E+000	4.85933E-004	-3.27672E+002	7	...........
	578	579	3.85904E+000	6.05311E-007	0.00000E+000	2.33592E-006	0.00000E+000	4.84917E-004	-3.27672E+002	7	...........
	579	580	3.85905E+000	6.05859E-007	0.00000E+000	2.33804E-006	0.00000E+000	4.89200E-004	-3.27672E+002	7	...........
	580	581	3.85906E+000	6.05822E-007	0.00000E+000	2.33790E-006	0.00000E+000	4.87850E-004	-3.27672E+002	7	...........
	581	582	3.85905E+000	6.05709E-007	0.00000E+000	2.33746E-006	0.00000E+000	4.86850E-004	-3.27672E+002	7	...........
	582	583	3.85906E+000	6.04807E-007	0.00000E+000	2.33398E-006	0.00000E+000	4.86233E-004	-3.27672E+002	7	...........
	583	584	3.85906E+000	6.05697E-007	0.00000E+000	2.33742E-006	0.00000E+000	4.88267E-004	-3.27672E+002	7	...........
	584	585	3.85907E+000	6.05360E-007	0.00000E+000	2.33612E-006	0.00000E+000	4.87933E-004	-3.27672E+002	7	...........
	585	586	3.85908E+000	6.05434E-007	0.00000E+000	2.33642E-006	0.00000E+000	4.89600E-004	-3.27672E+002	7	...........
	586	587	3.85909E+000	6.05540E-007	0.00000E+000	2.33683E-006	0.00000E+000	4.87583E-004	-3.27672E+002	7	...........
	587	588	3.85909E+000	6.05763E-007	0.00000E+000	2.33769E-006	0.00000E+000	4.90367E-004	-3.27672E+002	7	...........
	588	589	3.85909E+000	6.05634E-007	0.00000E+000	2.33720E-006	0.00000E+000	4.87983E-004	-3.27672E+002	7	...........
	589	590	3.85910E+000	6.05144E-007	0.00000E+000	2.33531E-006	0.00000E+000	4.85383E-004	-3.27672E+002	7	...........
	590	591	3.85910E+000	6.05200E-007	0.00000E+000	2.33553E-006	0.00000E+000	4.88017E-004	-3.27672E+002	7	...........
	591	592	3.85911E+000	6.05549E-007	0.00000E+000	2.33688E-006	0.00000E+000	4.87650E-004	-3.27672E+002	7	...........
	592	593	3.85912E+000	6.05084E-007	0.00000E+000	2.33509E-006	0.00000E+000	4.88883E-004	-3.27672E+002	7	...........
	593	594	3.85912E+000	6.04827E-007	0.00000E+000	2.33410E-006	0.00000E+000	4.90550E-004	-3.27672E+002	7	...........
	594	595	3.85913E+000	6.04398E-007	0.00000E+000	2.33245E-006	0.00000E+000	4.88600E-004	-3.27672E+002	7	...........
	595	596	3.85913E+000	6.04757E-007	0.00000E+000	2.33383E-006	0.00000E+000	4.87250E-004	-3.27672E+002	7	...........
	596	597	3.85913E+000	6.04703E-007	0.00000E+000	2.33363E-006	0.00000E+000	4.87100E-004	-3.27672E+002	7	...........
	597	598	3.85914E+000	6.05301E-007	0.00000E+000	2.33594E-006	0.00000E+000	4.91217E-004	-3.27672E+002	7	...........
	598	599	3.85915E+000	6.05969E-007	0.00000E+000	2.33852E-006	0.00000E+000	4.90467E-004	-3.27672E+002	7	...........
	599	600	3.85916E+000	6.05935E-007	0.00000E+000	2.33840E-006	0.00000E+000	4.91783E-004	-3.27672E+002	7	...........
