EXPLAIN
TAG	PWR800_READVOLTAGE
TITLE	LABEL	PWR Read Voltage	Test Identifier
DATE	LABEL	8.2.2024	Date
TIME	LABEL	16:48:00	Time
NOTES	NOTES	1	Notes...
	
PSTAT	PSTAT	REF600-12055	Potentiostat
CAPACITY	QUANT	1.00000E+000	Capacity (A-hr)
CELLTYPE	SELECTOR	1	Cell Type
WORKINGCONNECTION	SELECTOR	0	Working Connection
MAXTIME	VARIABLEANDUNITS	6.00000E+002	s	6.00000E+002	second(s)	Max Time
SAMPLETIME	QUANT	1.00000E+000	Sample Period (s)
STOPAT1	MULTIPARAM	0	0.00000E+000	Stop At 1	None	N/A
STOPAT2	MULTIPARAM	0	0.00000E+000	Stop At 2	None	N/A
AESBHCSELECTOR	TOGGLE	F	Save Both Half Cells
EOC	QUANT	3.431831	Open Circuit (V)
SEQUENCER	TOGGLE	TRUE	Run as Sequence
PSTATMODEL	IQUANT	4	Pstat Model
PSTATSECTION	LABEL	REF600-12055	Pstat Section
PSTATSERIALNO	LABEL	12055	Pstat Serial Number
CTRLMODE	IQUANT	0	Control Mode
ELECTROMETER	IQUANT	0	RE=0 or CS=1
IESTAB	IQUANT	0	I/E Stability
CASPEED	IQUANT	4	Control Amp Speed
CONVENTION	IQUANT	1	Current Convention
ICHRANGE	IQUANT	2	Ich Range
ICHRANGEMODE	TOGGLE	T	Ich Auto Range
ICHOFFSETENABLE	TOGGLE	F	Ich Offset Enable
ICHOFFSET	QUANT	0	Ich Offset (V)
ICHFILTER	IQUANT	1	Ich Filter
VCHRANGE	IQUANT	3	Vch Range
VCHRANGEMODE	TOGGLE	T	Vch Auto Range
VCHOFFSETENABLE	TOGGLE	F	Vch Offset Enable
VCHOFFSET	QUANT	0	Vch Offset (V)
VCHFILTER	IQUANT	1	Vch Filter
ACHRANGE	IQUANT	2	Ach Range
ACHOFFSETENABLE	TOGGLE	F	Ach Offset Enable
ACHOFFSET	QUANT	0	Ach Offset (V)
ACHFILTER	IQUANT	1	Ach Filter
IERANGELOWERLIMIT	IQUANT	7	I/E Range Lower Limit
IERANGEMODE	TOGGLE	F	I/E AutoRange
IERANGE	IQUANT	11	I/E Range
POSFEEDENABLE	TOGGLE	F	Positive Feedback IR Comp
POSFEEDRESISTANCE	QUANT	0	Positive Feedback Resistance (ohm)
ACHSELECT	IQUANT	4	Ach Select
SENSECABLEID	IQUANT	14	Sense Cable ID
PWRCABLEID	IQUANT	14	Power Cable ID
DCCALDATE	LABEL		DC Calibration Date
ACCALDATE	LABEL		AC Calibration Date
THERMOSELECT	IQUANT	1	Thermo Select
FRAMEWORKVERSION	LABEL	7.10.3	Framework Version
INSTRUMENTVERSION	LABEL	4.91	Instrument Version
COMMVERSION	LABEL	2.24	Communications Version
CPUPLDVERSION	LABEL	0.00	CPU PLD Version
CTRLPLDVERSION	LABEL	0.00	CTRL PLD Version
PSTATPLDVERSION	LABEL	0.00	PSTAT PLD Version
CURVE	TABLE	600
	Pt	T	Vf	Im	Vu	Pwr	Sig	Ach	Temp	IERange	Over
	#	s	V	A	V	W	V	V	deg C	#	bits
	0	1	3.20869E+000	3.87449E-007	0.00000E+000	1.24321E-006	0.00000E+000	7.40750E-004	-3.27672E+002	7	...........
	1	2	3.20919E+000	3.86251E-007	0.00000E+000	1.23956E-006	0.00000E+000	7.34583E-004	-3.27672E+002	7	...........
	2	3	3.20952E+000	3.84862E-007	0.00000E+000	1.23522E-006	0.00000E+000	7.36333E-004	-3.27672E+002	7	...........
	3	4	3.20982E+000	3.84417E-007	0.00000E+000	1.23391E-006	0.00000E+000	7.40867E-004	-3.27672E+002	7	...........
	4	5	3.21011E+000	3.83107E-007	0.00000E+000	1.22982E-006	0.00000E+000	7.40450E-004	-3.27672E+002	7	...........
	5	6	3.21041E+000	3.82384E-007	0.00000E+000	1.22761E-006	0.00000E+000	7.32883E-004	-3.27672E+002	7	...........
	6	7	3.21067E+000	3.81567E-007	0.00000E+000	1.22509E-006	0.00000E+000	7.23017E-004	-3.27672E+002	7	...........
	7	8	3.21088E+000	3.81083E-007	0.00000E+000	1.22361E-006	0.00000E+000	7.20450E-004	-3.27672E+002	7	...........
	8	9	3.21108E+000	3.80053E-007	0.00000E+000	1.22038E-006	0.00000E+000	7.22500E-004	-3.27672E+002	7	...........
	9	10	3.21127E+000	3.80256E-007	0.00000E+000	1.22111E-006	0.00000E+000	7.27300E-004	-3.27672E+002	7	...........
	10	11	3.21145E+000	3.78472E-007	0.00000E+000	1.21544E-006	0.00000E+000	7.27533E-004	-3.27672E+002	7	...........
	11	12	3.21166E+000	3.78403E-007	0.00000E+000	1.21530E-006	0.00000E+000	7.31767E-004	-3.27672E+002	7	...........
	12	13	3.21186E+000	3.77807E-007	0.00000E+000	1.21346E-006	0.00000E+000	7.36817E-004	-3.27672E+002	7	...........
	13	14	3.21206E+000	3.77204E-007	0.00000E+000	1.21160E-006	0.00000E+000	7.32450E-004	-3.27672E+002	7	...........
	14	15	3.21223E+000	3.75874E-007	0.00000E+000	1.20740E-006	0.00000E+000	7.33317E-004	-3.27672E+002	7	...........
	15	16	3.21237E+000	3.75187E-007	0.00000E+000	1.20524E-006	0.00000E+000	7.30450E-004	-3.27672E+002	7	...........
	16	17	3.21251E+000	3.74333E-007	0.00000E+000	1.20255E-006	0.00000E+000	7.33067E-004	-3.27672E+002	7	...........
	17	18	3.21264E+000	3.73250E-007	0.00000E+000	1.19912E-006	0.00000E+000	7.34717E-004	-3.27672E+002	7	...........
	18	19	3.21276E+000	3.72630E-007	0.00000E+000	1.19717E-006	0.00000E+000	7.36667E-004	-3.27672E+002	7	...........
	19	20	3.21291E+000	3.72550E-007	0.00000E+000	1.19697E-006	0.00000E+000	7.40017E-004	-3.27672E+002	7	...........
	20	21	3.21307E+000	3.71297E-007	0.00000E+000	1.19300E-006	0.00000E+000	5.58350E-004	-3.27672E+002	7	...........
	21	22	3.21325E+000	3.71421E-007	0.00000E+000	1.19347E-006	0.00000E+000	4.85617E-004	-3.27672E+002	7	...........
	22	23	3.21345E+000	3.71061E-007	0.00000E+000	1.19238E-006	0.00000E+000	4.90383E-004	-3.27672E+002	7	...........
	23	24	3.21363E+000	3.70791E-007	0.00000E+000	1.19159E-006	0.00000E+000	4.88900E-004	-3.27672E+002	7	...........
	24	25	3.21379E+000	3.70494E-007	0.00000E+000	1.19069E-006	0.00000E+000	4.91717E-004	-3.27672E+002	7	...........
	25	26	3.21394E+000	3.70179E-007	0.00000E+000	1.18973E-006	0.00000E+000	4.90283E-004	-3.27672E+002	7	...........
	26	27	3.21406E+000	3.69011E-007	0.00000E+000	1.18602E-006	0.00000E+000	4.86750E-004	-3.27672E+002	7	...........
	27	28	3.21420E+000	3.68338E-007	0.00000E+000	1.18391E-006	0.00000E+000	4.85900E-004	-3.27672E+002	7	...........
	28	29	3.21432E+000	3.67764E-007	0.00000E+000	1.18211E-006	0.00000E+000	4.86867E-004	-3.27672E+002	7	...........
	29	30	3.21444E+000	3.67554E-007	0.00000E+000	1.18148E-006	0.00000E+000	4.82683E-004	-3.27672E+002	7	...........
	30	31	3.21456E+000	3.66262E-007	0.00000E+000	1.17737E-006	0.00000E+000	4.81200E-004	-3.27672E+002	7	...........
	31	32	3.21470E+000	3.66885E-007	0.00000E+000	1.17942E-006	0.00000E+000	4.81717E-004	-3.27672E+002	7	...........
	32	33	3.21482E+000	3.66396E-007	0.00000E+000	1.17790E-006	0.00000E+000	4.77150E-004	-3.27672E+002	7	...........
	33	34	3.21497E+000	3.65489E-007	0.00000E+000	1.17503E-006	0.00000E+000	4.77133E-004	-3.27672E+002	7	...........
	34	35	3.21510E+000	3.65068E-007	0.00000E+000	1.17373E-006	0.00000E+000	4.71817E-004	-3.27672E+002	7	...........
	35	36	3.21524E+000	3.65254E-007	0.00000E+000	1.17438E-006	0.00000E+000	4.69650E-004	-3.27672E+002	7	...........
	36	37	3.21535E+000	3.64174E-007	0.00000E+000	1.17095E-006	0.00000E+000	4.64867E-004	-3.27672E+002	7	...........
	37	38	3.21547E+000	3.63438E-007	0.00000E+000	1.16862E-006	0.00000E+000	4.63400E-004	-3.27672E+002	7	...........
	38	39	3.21557E+000	3.63195E-007	0.00000E+000	1.16788E-006	0.00000E+000	4.60383E-004	-3.27672E+002	7	...........
	39	40	3.21566E+000	3.62814E-007	0.00000E+000	1.16669E-006	0.00000E+000	4.63117E-004	-3.27672E+002	7	...........
	40	41	3.21576E+000	3.62699E-007	0.00000E+000	1.16635E-006	0.00000E+000	4.62150E-004	-3.27672E+002	7	...........
	41	42	3.21586E+000	3.62599E-007	0.00000E+000	1.16607E-006	0.00000E+000	4.61617E-004	-3.27672E+002	7	...........
	42	43	3.21596E+000	3.62563E-007	0.00000E+000	1.16599E-006	0.00000E+000	4.67750E-004	-3.27672E+002	7	...........
	43	44	3.21606E+000	3.62375E-007	0.00000E+000	1.16542E-006	0.00000E+000	4.70967E-004	-3.27672E+002	7	...........
	44	45	3.21616E+000	3.61441E-007	0.00000E+000	1.16245E-006	0.00000E+000	4.67717E-004	-3.27672E+002	7	...........
	45	46	3.21626E+000	3.60234E-007	0.00000E+000	1.15861E-006	0.00000E+000	4.75550E-004	-3.27672E+002	7	...........
	46	47	3.21637E+000	3.60821E-007	0.00000E+000	1.16053E-006	0.00000E+000	4.79383E-004	-3.27672E+002	7	...........
	47	48	3.21648E+000	3.60059E-007	0.00000E+000	1.15812E-006	0.00000E+000	4.83317E-004	-3.27672E+002	7	...........
	48	49	3.21660E+000	3.59301E-007	0.00000E+000	1.15573E-006	0.00000E+000	4.81950E-004	-3.27672E+002	7	...........
	49	50	3.21671E+000	3.59808E-007	0.00000E+000	1.15740E-006	0.00000E+000	4.82833E-004	-3.27672E+002	7	...........
	50	51	3.21682E+000	3.59594E-007	0.00000E+000	1.15675E-006	0.00000E+000	4.82083E-004	-3.27672E+002	7	...........
	51	52	3.21693E+000	3.59094E-007	0.00000E+000	1.15518E-006	0.00000E+000	4.81083E-004	-3.27672E+002	7	...........
	52	53	3.21704E+000	3.59378E-007	0.00000E+000	1.15613E-006	0.00000E+000	4.77733E-004	-3.27672E+002	7	...........
	53	54	3.21712E+000	3.58315E-007	0.00000E+000	1.15274E-006	0.00000E+000	4.77300E-004	-3.27672E+002	7	...........
	54	55	3.21722E+000	3.58060E-007	0.00000E+000	1.15196E-006	0.00000E+000	4.75450E-004	-3.27672E+002	7	...........
	55	56	3.21731E+000	3.57759E-007	0.00000E+000	1.15102E-006	0.00000E+000	4.73300E-004	-3.27672E+002	7	...........
	56	57	3.21739E+000	3.57711E-007	0.00000E+000	1.15089E-006	0.00000E+000	4.71950E-004	-3.27672E+002	7	...........
	57	58	3.21748E+000	3.56453E-007	0.00000E+000	1.14688E-006	0.00000E+000	4.72050E-004	-3.27672E+002	7	...........
	58	59	3.21756E+000	3.56406E-007	0.00000E+000	1.14676E-006	0.00000E+000	4.72117E-004	-3.27672E+002	7	...........
	59	60	3.21764E+000	3.56467E-007	0.00000E+000	1.14699E-006	0.00000E+000	4.75433E-004	-3.27672E+002	7	...........
	60	61	3.21772E+000	3.57079E-007	0.00000E+000	1.14898E-006	0.00000E+000	4.72150E-004	-3.27672E+002	7	...........
	61	62	3.21780E+000	3.56607E-007	0.00000E+000	1.14749E-006	0.00000E+000	4.69750E-004	-3.27672E+002	7	...........
	62	63	3.21788E+000	3.56522E-007	0.00000E+000	1.14725E-006	0.00000E+000	4.69667E-004	-3.27672E+002	7	...........
	63	64	3.21797E+000	3.55053E-007	0.00000E+000	1.14255E-006	0.00000E+000	4.67183E-004	-3.27672E+002	7	...........
	64	65	3.21806E+000	3.54994E-007	0.00000E+000	1.14239E-006	0.00000E+000	4.67633E-004	-3.27672E+002	7	...........
	65	66	3.21814E+000	3.54937E-007	0.00000E+000	1.14224E-006	0.00000E+000	4.65833E-004	-3.27672E+002	7	...........
	66	67	3.21824E+000	3.54587E-007	0.00000E+000	1.14115E-006	0.00000E+000	4.64783E-004	-3.27672E+002	7	...........
	67	68	3.21832E+000	3.54560E-007	0.00000E+000	1.14109E-006	0.00000E+000	4.62300E-004	-3.27672E+002	7	...........
	68	69	3.21842E+000	3.54565E-007	0.00000E+000	1.14114E-006	0.00000E+000	4.58467E-004	-3.27672E+002	7	...........
	69	70	3.21849E+000	3.54640E-007	0.00000E+000	1.14140E-006	0.00000E+000	4.59567E-004	-3.27672E+002	7	...........
	70	71	3.21857E+000	3.54241E-007	0.00000E+000	1.14015E-006	0.00000E+000	4.58000E-004	-3.27672E+002	7	...........
	71	72	3.21864E+000	3.53823E-007	0.00000E+000	1.13883E-006	0.00000E+000	4.55867E-004	-3.27672E+002	7	...........
	72	73	3.21871E+000	3.53263E-007	0.00000E+000	1.13705E-006	0.00000E+000	4.56367E-004	-3.27672E+002	7	...........
	73	74	3.21878E+000	3.53444E-007	0.00000E+000	1.13766E-006	0.00000E+000	4.55983E-004	-3.27672E+002	7	...........
	74	75	3.21883E+000	3.52964E-007	0.00000E+000	1.13613E-006	0.00000E+000	4.58300E-004	-3.27672E+002	7	...........
	75	76	3.21890E+000	3.52136E-007	0.00000E+000	1.13349E-006	0.00000E+000	4.55917E-004	-3.27672E+002	7	...........
	76	77	3.21896E+000	3.52150E-007	0.00000E+000	1.13356E-006	0.00000E+000	4.55500E-004	-3.27672E+002	7	...........
	77	78	3.21901E+000	3.52171E-007	0.00000E+000	1.13364E-006	0.00000E+000	4.59900E-004	-3.27672E+002	7	...........
	78	79	3.21907E+000	3.52674E-007	0.00000E+000	1.13528E-006	0.00000E+000	4.57883E-004	-3.27672E+002	7	...........
	79	80	3.21913E+000	3.52573E-007	0.00000E+000	1.13498E-006	0.00000E+000	4.64100E-004	-3.27672E+002	7	...........
	80	81	3.21919E+000	3.52906E-007	0.00000E+000	1.13607E-006	0.00000E+000	4.65717E-004	-3.27672E+002	7	...........
	81	82	3.21925E+000	3.52869E-007	0.00000E+000	1.13597E-006	0.00000E+000	4.60800E-004	-3.27672E+002	7	...........
	82	83	3.21931E+000	3.51768E-007	0.00000E+000	1.13245E-006	0.00000E+000	4.67067E-004	-3.27672E+002	7	...........
	83	84	3.21938E+000	3.51275E-007	0.00000E+000	1.13089E-006	0.00000E+000	4.70400E-004	-3.27672E+002	7	...........
	84	85	3.21946E+000	3.50496E-007	0.00000E+000	1.12841E-006	0.00000E+000	4.73550E-004	-3.27672E+002	7	...........
	85	86	3.21954E+000	3.51131E-007	0.00000E+000	1.13048E-006	0.00000E+000	4.77367E-004	-3.27672E+002	7	...........
	86	87	3.21962E+000	3.50637E-007	0.00000E+000	1.12892E-006	0.00000E+000	4.75383E-004	-3.27672E+002	7	...........
	87	88	3.21970E+000	3.50926E-007	0.00000E+000	1.12988E-006	0.00000E+000	4.79550E-004	-3.27672E+002	7	...........
	88	89	3.21977E+000	3.50352E-007	0.00000E+000	1.12805E-006	0.00000E+000	4.80200E-004	-3.27672E+002	7	...........
	89	90	3.21986E+000	3.51017E-007	0.00000E+000	1.13022E-006	0.00000E+000	4.81367E-004	-3.27672E+002	7	...........
	90	91	3.21995E+000	3.50269E-007	0.00000E+000	1.12785E-006	0.00000E+000	4.84767E-004	-3.27672E+002	7	...........
	91	92	3.22004E+000	3.49623E-007	0.00000E+000	1.12580E-006	0.00000E+000	4.85133E-004	-3.27672E+002	7	...........
	92	93	3.22011E+000	3.49827E-007	0.00000E+000	1.12648E-006	0.00000E+000	4.85700E-004	-3.27672E+002	7	...........
	93	94	3.22018E+000	3.49863E-007	0.00000E+000	1.12662E-006	0.00000E+000	4.83667E-004	-3.27672E+002	7	...........
	94	95	3.22025E+000	3.49452E-007	0.00000E+000	1.12532E-006	0.00000E+000	4.86233E-004	-3.27672E+002	7	...........
	95	96	3.22031E+000	3.49076E-007	0.00000E+000	1.12413E-006	0.00000E+000	4.84700E-004	-3.27672E+002	7	...........
	96	97	3.22036E+000	3.48841E-007	0.00000E+000	1.12340E-006	0.00000E+000	4.82900E-004	-3.27672E+002	7	...........
	97	98	3.22043E+000	3.48471E-007	0.00000E+000	1.12223E-006	0.00000E+000	4.83433E-004	-3.27672E+002	7	...........
	98	99	3.22048E+000	3.48567E-007	0.00000E+000	1.12256E-006	0.00000E+000	4.83933E-004	-3.27672E+002	7	...........
	99	100	3.22054E+000	3.49049E-007	0.00000E+000	1.12412E-006	0.00000E+000	4.82883E-004	-3.27672E+002	7	...........
	100	101	3.22059E+000	3.49928E-007	0.00000E+000	1.12697E-006	0.00000E+000	4.82433E-004	-3.27672E+002	7	...........
	101	102	3.22064E+000	3.48634E-007	0.00000E+000	1.12283E-006	0.00000E+000	4.84083E-004	-3.27672E+002	7	...........
	102	103	3.22070E+000	3.47435E-007	0.00000E+000	1.11898E-006	0.00000E+000	4.85933E-004	-3.27672E+002	7	...........
	103	104	3.22076E+000	3.47501E-007	0.00000E+000	1.11922E-006	0.00000E+000	4.79483E-004	-3.27672E+002	7	...........
	104	105	3.22081E+000	3.46635E-007	0.00000E+000	1.11645E-006	0.00000E+000	4.81033E-004	-3.27672E+002	7	...........
	105	106	3.22087E+000	3.47440E-007	0.00000E+000	1.11906E-006	0.00000E+000	4.78450E-004	-3.27672E+002	7	...........
	106	107	3.22092E+000	3.47704E-007	0.00000E+000	1.11993E-006	0.00000E+000	4.75167E-004	-3.27672E+002	7	...........
	107	108	3.22099E+000	3.48079E-007	0.00000E+000	1.12116E-006	0.00000E+000	4.75000E-004	-3.27672E+002	7	...........
	108	109	3.22103E+000	3.47416E-007	0.00000E+000	1.11904E-006	0.00000E+000	4.77600E-004	-3.27672E+002	7	...........
	109	110	3.22109E+000	3.47058E-007	0.00000E+000	1.11791E-006	0.00000E+000	4.75683E-004	-3.27672E+002	7	...........
	110	111	3.22114E+000	3.45896E-007	0.00000E+000	1.11418E-006	0.00000E+000	4.72750E-004	-3.27672E+002	7	...........
	111	112	3.22121E+000	3.46486E-007	0.00000E+000	1.11610E-006	0.00000E+000	4.70950E-004	-3.27672E+002	7	...........
	112	113	3.22127E+000	3.45946E-007	0.00000E+000	1.11439E-006	0.00000E+000	4.69533E-004	-3.27672E+002	7	...........
	113	114	3.22133E+000	3.46003E-007	0.00000E+000	1.11459E-006	0.00000E+000	4.66617E-004	-3.27672E+002	7	...........
	114	115	3.22139E+000	3.45868E-007	0.00000E+000	1.11418E-006	0.00000E+000	4.67417E-004	-3.27672E+002	7	...........
	115	116	3.22146E+000	3.46588E-007	0.00000E+000	1.11652E-006	0.00000E+000	4.66883E-004	-3.27672E+002	7	...........
	116	117	3.22152E+000	3.46730E-007	0.00000E+000	1.11700E-006	0.00000E+000	4.61150E-004	-3.27672E+002	7	...........
	117	118	3.22158E+000	3.46901E-007	0.00000E+000	1.11757E-006	0.00000E+000	4.63150E-004	-3.27672E+002	7	...........
	118	119	3.22163E+000	3.46835E-007	0.00000E+000	1.11738E-006	0.00000E+000	4.62400E-004	-3.27672E+002	7	...........
	119	120	3.22168E+000	3.46990E-007	0.00000E+000	1.11789E-006	0.00000E+000	4.61567E-004	-3.27672E+002	7	...........
	120	121	3.22174E+000	3.46192E-007	0.00000E+000	1.11534E-006	0.00000E+000	4.56933E-004	-3.27672E+002	7	...........
	121	122	3.22179E+000	3.45979E-007	0.00000E+000	1.11467E-006	0.00000E+000	4.56600E-004	-3.27672E+002	7	...........
	122	123	3.22185E+000	3.45349E-007	0.00000E+000	1.11266E-006	0.00000E+000	4.55183E-004	-3.27672E+002	7	...........
	123	124	3.22189E+000	3.46164E-007	0.00000E+000	1.11530E-006	0.00000E+000	4.53917E-004	-3.27672E+002	7	...........
	124	125	3.22193E+000	3.45263E-007	0.00000E+000	1.11241E-006	0.00000E+000	4.57883E-004	-3.27672E+002	7	...........
	125	126	3.22198E+000	3.45336E-007	0.00000E+000	1.11267E-006	0.00000E+000	4.56167E-004	-3.27672E+002	7	...........
	126	127	3.22203E+000	3.44361E-007	0.00000E+000	1.10954E-006	0.00000E+000	4.54617E-004	-3.27672E+002	7	...........
	127	128	3.22208E+000	3.45239E-007	0.00000E+000	1.11239E-006	0.00000E+000	4.55450E-004	-3.27672E+002	7	...........
	128	129	3.22212E+000	3.44897E-007	0.00000E+000	1.11130E-006	0.00000E+000	4.54867E-004	-3.27672E+002	7	...........
	129	130	3.22217E+000	3.44350E-007	0.00000E+000	1.10955E-006	0.00000E+000	4.53217E-004	-3.27672E+002	7	...........
	130	131	3.22221E+000	3.44337E-007	0.00000E+000	1.10953E-006	0.00000E+000	4.56633E-004	-3.27672E+002	7	...........
	131	132	3.22225E+000	3.43637E-007	0.00000E+000	1.10728E-006	0.00000E+000	4.52967E-004	-3.27672E+002	7	...........
	132	133	3.22229E+000	3.43699E-007	0.00000E+000	1.10750E-006	0.00000E+000	4.56033E-004	-3.27672E+002	7	...........
	133	134	3.22234E+000	3.43862E-007	0.00000E+000	1.10804E-006	0.00000E+000	4.57100E-004	-3.27672E+002	7	...........
	134	135	3.22237E+000	3.43756E-007	0.00000E+000	1.10771E-006	0.00000E+000	4.59217E-004	-3.27672E+002	7	...........
	135	136	3.22242E+000	3.43003E-007	0.00000E+000	1.10530E-006	0.00000E+000	4.61583E-004	-3.27672E+002	7	...........
	136	137	3.22246E+000	3.43515E-007	0.00000E+000	1.10696E-006	0.00000E+000	4.60817E-004	-3.27672E+002	7	...........
	137	138	3.22250E+000	3.44099E-007	0.00000E+000	1.10886E-006	0.00000E+000	4.63217E-004	-3.27672E+002	7	...........
	138	139	3.22255E+000	3.44484E-007	0.00000E+000	1.11012E-006	0.00000E+000	4.60950E-004	-3.27672E+002	7	...........
	139	140	3.22260E+000	3.44221E-007	0.00000E+000	1.10929E-006	0.00000E+000	4.66067E-004	-3.27672E+002	7	...........
	140	141	3.22265E+000	3.43794E-007	0.00000E+000	1.10793E-006	0.00000E+000	4.65167E-004	-3.27672E+002	7	...........
	141	142	3.22270E+000	3.43700E-007	0.00000E+000	1.10764E-006	0.00000E+000	4.68117E-004	-3.27672E+002	7	...........
	142	143	3.22273E+000	3.43750E-007	0.00000E+000	1.10782E-006	0.00000E+000	4.70267E-004	-3.27672E+002	7	...........
	143	144	3.22278E+000	3.43825E-007	0.00000E+000	1.10807E-006	0.00000E+000	4.69633E-004	-3.27672E+002	7	...........
	144	145	3.22284E+000	3.43769E-007	0.00000E+000	1.10791E-006	0.00000E+000	4.72367E-004	-3.27672E+002	7	...........
	145	146	3.22289E+000	3.43226E-007	0.00000E+000	1.10618E-006	0.00000E+000	4.71600E-004	-3.27672E+002	7	...........
	146	147	3.22295E+000	3.43751E-007	0.00000E+000	1.10789E-006	0.00000E+000	4.73767E-004	-3.27672E+002	7	...........
	147	148	3.22300E+000	3.42413E-007	0.00000E+000	1.10360E-006	0.00000E+000	4.71100E-004	-3.27672E+002	7	...........
	148	149	3.22305E+000	3.42703E-007	0.00000E+000	1.10455E-006	0.00000E+000	4.74433E-004	-3.27672E+002	7	...........
	149	150	3.22311E+000	3.42802E-007	0.00000E+000	1.10489E-006	0.00000E+000	4.75150E-004	-3.27672E+002	7	...........
	150	151	3.22316E+000	3.41997E-007	0.00000E+000	1.10231E-006	0.00000E+000	4.76917E-004	-3.27672E+002	7	...........
	151	152	3.22321E+000	3.41873E-007	0.00000E+000	1.10193E-006	0.00000E+000	4.75300E-004	-3.27672E+002	7	...........
	152	153	3.22326E+000	3.41514E-007	0.00000E+000	1.10079E-006	0.00000E+000	4.74267E-004	-3.27672E+002	7	...........
	153	154	3.22331E+000	3.41832E-007	0.00000E+000	1.10183E-006	0.00000E+000	4.75950E-004	-3.27672E+002	7	...........
	154	155	3.22335E+000	3.41381E-007	0.00000E+000	1.10039E-006	0.00000E+000	4.73900E-004	-3.27672E+002	7	...........
	155	156	3.22340E+000	3.41929E-007	0.00000E+000	1.10217E-006	0.00000E+000	4.74050E-004	-3.27672E+002	7	...........
	156	157	3.22344E+000	3.41896E-007	0.00000E+000	1.10208E-006	0.00000E+000	4.71917E-004	-3.27672E+002	7	...........
	157	158	3.22349E+000	3.42045E-007	0.00000E+000	1.10258E-006	0.00000E+000	4.73867E-004	-3.27672E+002	7	...........
	158	159	3.22353E+000	3.41518E-007	0.00000E+000	1.10089E-006	0.00000E+000	4.71183E-004	-3.27672E+002	7	...........
	159	160	3.22357E+000	3.41065E-007	0.00000E+000	1.09945E-006	0.00000E+000	4.71817E-004	-3.27672E+002	7	...........
	160	161	3.22362E+000	3.41018E-007	0.00000E+000	1.09932E-006	0.00000E+000	4.70783E-004	-3.27672E+002	7	...........
	161	162	3.22366E+000	3.40601E-007	0.00000E+000	1.09798E-006	0.00000E+000	4.71167E-004	-3.27672E+002	7	...........
	162	163	3.22369E+000	3.40842E-007	0.00000E+000	1.09877E-006	0.00000E+000	4.68683E-004	-3.27672E+002	7	...........
	163	164	3.22373E+000	3.41004E-007	0.00000E+000	1.09931E-006	0.00000E+000	4.71500E-004	-3.27672E+002	7	...........
	164	165	3.22377E+000	3.40331E-007	0.00000E+000	1.09715E-006	0.00000E+000	4.72283E-004	-3.27672E+002	7	...........
	165	166	3.22381E+000	3.40522E-007	0.00000E+000	1.09778E-006	0.00000E+000	4.69717E-004	-3.27672E+002	7	...........
	166	167	3.22385E+000	3.40370E-007	0.00000E+000	1.09730E-006	0.00000E+000	4.71400E-004	-3.27672E+002	7	...........
	167	168	3.22389E+000	3.40029E-007	0.00000E+000	1.09622E-006	0.00000E+000	4.71533E-004	-3.27672E+002	7	...........
	168	169	3.22392E+000	3.40952E-007	0.00000E+000	1.09920E-006	0.00000E+000	4.72300E-004	-3.27672E+002	7	...........
	169	170	3.22396E+000	3.40232E-007	0.00000E+000	1.09689E-006	0.00000E+000	4.70667E-004	-3.27672E+002	7	...........
	170	171	3.22401E+000	3.40681E-007	0.00000E+000	1.09836E-006	0.00000E+000	4.72400E-004	-3.27672E+002	7	...........
	171	172	3.22404E+000	3.40346E-007	0.00000E+000	1.09729E-006	0.00000E+000	4.71667E-004	-3.27672E+002	7	...........
	172	173	3.22408E+000	3.40371E-007	0.00000E+000	1.09738E-006	0.00000E+000	4.73733E-004	-3.27672E+002	7	...........
	173	174	3.22411E+000	3.40127E-007	0.00000E+000	1.09661E-006	0.00000E+000	4.69983E-004	-3.27672E+002	7	...........
	174	175	3.22415E+000	3.40322E-007	0.00000E+000	1.09725E-006	0.00000E+000	4.70800E-004	-3.27672E+002	7	...........
	175	176	3.22418E+000	3.39917E-007	0.00000E+000	1.09595E-006	0.00000E+000	4.73050E-004	-3.27672E+002	7	...........
	176	177	3.22422E+000	3.40164E-007	0.00000E+000	1.09676E-006	0.00000E+000	4.70450E-004	-3.27672E+002	7	...........
	177	178	3.22427E+000	3.40108E-007	0.00000E+000	1.09660E-006	0.00000E+000	4.71917E-004	-3.27672E+002	7	...........
	178	179	3.22431E+000	3.40298E-007	0.00000E+000	1.09723E-006	0.00000E+000	4.69317E-004	-3.27672E+002	7	...........
	179	180	3.22434E+000	3.39619E-007	0.00000E+000	1.09505E-006	0.00000E+000	4.67650E-004	-3.27672E+002	7	...........
	180	181	3.22439E+000	3.40018E-007	0.00000E+000	1.09635E-006	0.00000E+000	4.67233E-004	-3.27672E+002	7	...........
	181	182	3.22444E+000	3.40043E-007	0.00000E+000	1.09645E-006	0.00000E+000	4.62917E-004	-3.27672E+002	7	...........
	182	183	3.22448E+000	3.40442E-007	0.00000E+000	1.09775E-006	0.00000E+000	4.67317E-004	-3.27672E+002	7	...........
	183	184	3.22452E+000	3.40008E-007	0.00000E+000	1.09636E-006	0.00000E+000	4.67450E-004	-3.27672E+002	7	...........
	184	185	3.22455E+000	3.39765E-007	0.00000E+000	1.09559E-006	0.00000E+000	4.64317E-004	-3.27672E+002	7	...........
	185	186	3.22460E+000	3.39629E-007	0.00000E+000	1.09517E-006	0.00000E+000	4.63600E-004	-3.27672E+002	7	...........
	186	187	3.22464E+000	3.39965E-007	0.00000E+000	1.09626E-006	0.00000E+000	4.63617E-004	-3.27672E+002	7	...........
	187	188	3.22469E+000	3.39982E-007	0.00000E+000	1.09634E-006	0.00000E+000	4.60567E-004	-3.27672E+002	7	...........
	188	189	3.22472E+000	3.39515E-007	0.00000E+000	1.09484E-006	0.00000E+000	4.58600E-004	-3.27672E+002	7	...........
	189	190	3.22476E+000	3.38834E-007	0.00000E+000	1.09266E-006	0.00000E+000	4.60967E-004	-3.27672E+002	7	...........
	190	191	3.22481E+000	3.38186E-007	0.00000E+000	1.09058E-006	0.00000E+000	4.57050E-004	-3.27672E+002	7	...........
	191	192	3.22485E+000	3.38509E-007	0.00000E+000	1.09164E-006	0.00000E+000	4.54483E-004	-3.27672E+002	7	...........
	192	193	3.22489E+000	3.38339E-007	0.00000E+000	1.09111E-006	0.00000E+000	4.52267E-004	-3.27672E+002	7	...........
	193	194	3.22494E+000	3.37954E-007	0.00000E+000	1.08988E-006	0.00000E+000	4.56150E-004	-3.27672E+002	7	...........
	194	195	3.22496E+000	3.39016E-007	0.00000E+000	1.09331E-006	0.00000E+000	4.58217E-004	-3.27672E+002	7	...........
	195	196	3.22500E+000	3.38804E-007	0.00000E+000	1.09264E-006	0.00000E+000	4.54300E-004	-3.27672E+002	7	...........
	196	197	3.22503E+000	3.39618E-007	0.00000E+000	1.09528E-006	0.00000E+000	4.53217E-004	-3.27672E+002	7	...........
	197	198	3.22506E+000	3.39068E-007	0.00000E+000	1.09352E-006	0.00000E+000	4.56017E-004	-3.27672E+002	7	...........
	198	199	3.22510E+000	3.38281E-007	0.00000E+000	1.09099E-006	0.00000E+000	4.50267E-004	-3.27672E+002	7	...........
	199	200	3.22513E+000	3.38276E-007	0.00000E+000	1.09098E-006	0.00000E+000	4.51350E-004	-3.27672E+002	7	...........
	200	201	3.22517E+000	3.38776E-007	0.00000E+000	1.09261E-006	0.00000E+000	4.51600E-004	-3.27672E+002	7	...........
	201	202	3.22520E+000	3.37961E-007	0.00000E+000	1.08999E-006	0.00000E+000	4.53750E-004	-3.27672E+002	7	...........
	202	203	3.22522E+000	3.38877E-007	0.00000E+000	1.09295E-006	0.00000E+000	4.54083E-004	-3.27672E+002	7	...........
	203	204	3.22526E+000	3.39147E-007	0.00000E+000	1.09384E-006	0.00000E+000	4.54400E-004	-3.27672E+002	7	...........
	204	205	3.22529E+000	3.38585E-007	0.00000E+000	1.09204E-006	0.00000E+000	4.54650E-004	-3.27672E+002	7	...........
	205	206	3.22531E+000	3.38929E-007	0.00000E+000	1.09315E-006	0.00000E+000	4.50850E-004	-3.27672E+002	7	...........
	206	207	3.22535E+000	3.39129E-007	0.00000E+000	1.09381E-006	0.00000E+000	4.52717E-004	-3.27672E+002	7	...........
	207	208	3.22537E+000	3.37861E-007	0.00000E+000	1.08973E-006	0.00000E+000	4.54000E-004	-3.27672E+002	7	...........
	208	209	3.22540E+000	3.38352E-007	0.00000E+000	1.09132E-006	0.00000E+000	4.52600E-004	-3.27672E+002	7	...........
	209	210	3.22543E+000	3.38095E-007	0.00000E+000	1.09050E-006	0.00000E+000	4.54400E-004	-3.27672E+002	7	...........
	210	211	3.22546E+000	3.37787E-007	0.00000E+000	1.08952E-006	0.00000E+000	4.56333E-004	-3.27672E+002	7	...........
	211	212	3.22550E+000	3.37987E-007	0.00000E+000	1.09018E-006	0.00000E+000	4.54300E-004	-3.27672E+002	7	...........
	212	213	3.22552E+000	3.37955E-007	0.00000E+000	1.09008E-006	0.00000E+000	4.56167E-004	-3.27672E+002	7	...........
	213	214	3.22556E+000	3.37715E-007	0.00000E+000	1.08932E-006	0.00000E+000	4.54300E-004	-3.27672E+002	7	...........
	214	215	3.22559E+000	3.38391E-007	0.00000E+000	1.09151E-006	0.00000E+000	4.58700E-004	-3.27672E+002	7	...........
	215	216	3.22563E+000	3.38833E-007	0.00000E+000	1.09295E-006	0.00000E+000	4.61083E-004	-3.27672E+002	7	...........
	216	217	3.22567E+000	3.39133E-007	0.00000E+000	1.09393E-006	0.00000E+000	4.58983E-004	-3.27672E+002	7	...........
	217	218	3.22570E+000	3.38395E-007	0.00000E+000	1.09156E-006	0.00000E+000	4.58667E-004	-3.27672E+002	7	...........
	218	219	3.22574E+000	3.38620E-007	0.00000E+000	1.09230E-006	0.00000E+000	4.60067E-004	-3.27672E+002	7	...........
	219	220	3.22579E+000	3.37740E-007	0.00000E+000	1.08948E-006	0.00000E+000	4.61267E-004	-3.27672E+002	7	...........
	220	221	3.22583E+000	3.38267E-007	0.00000E+000	1.09119E-006	0.00000E+000	4.62083E-004	-3.27672E+002	7	...........
	221	222	3.22587E+000	3.38180E-007	0.00000E+000	1.09093E-006	0.00000E+000	4.62983E-004	-3.27672E+002	7	...........
	222	223	3.22592E+000	3.38322E-007	0.00000E+000	1.09140E-006	0.00000E+000	4.67650E-004	-3.27672E+002	7	...........
	223	224	3.22596E+000	3.38227E-007	0.00000E+000	1.09111E-006	0.00000E+000	4.68450E-004	-3.27672E+002	7	...........
	224	225	3.22600E+000	3.37534E-007	0.00000E+000	1.08888E-006	0.00000E+000	4.65950E-004	-3.27672E+002	7	...........
	225	226	3.22605E+000	3.37620E-007	0.00000E+000	1.08918E-006	0.00000E+000	4.66517E-004	-3.27672E+002	7	...........
	226	227	3.22609E+000	3.38245E-007	0.00000E+000	1.09121E-006	0.00000E+000	4.65700E-004	-3.27672E+002	7	...........
	227	228	3.22613E+000	3.37711E-007	0.00000E+000	1.08950E-006	0.00000E+000	4.67183E-004	-3.27672E+002	7	...........
	228	229	3.22619E+000	3.37039E-007	0.00000E+000	1.08735E-006	0.00000E+000	4.70100E-004	-3.27672E+002	7	...........
	229	230	3.22623E+000	3.37653E-007	0.00000E+000	1.08935E-006	0.00000E+000	4.69883E-004	-3.27672E+002	7	...........
	230	231	3.22627E+000	3.37704E-007	0.00000E+000	1.08952E-006	0.00000E+000	4.71767E-004	-3.27672E+002	7	...........
	231	232	3.22631E+000	3.37613E-007	0.00000E+000	1.08924E-006	0.00000E+000	4.72833E-004	-3.27672E+002	7	...........
	232	233	3.22637E+000	3.37167E-007	0.00000E+000	1.08783E-006	0.00000E+000	4.72367E-004	-3.27672E+002	7	...........
	233	234	3.22640E+000	3.37085E-007	0.00000E+000	1.08757E-006	0.00000E+000	4.75567E-004	-3.27672E+002	7	...........
	234	235	3.22646E+000	3.36995E-007	0.00000E+000	1.08730E-006	0.00000E+000	4.75467E-004	-3.27672E+002	7	...........
	235	236	3.22648E+000	3.37380E-007	0.00000E+000	1.08855E-006	0.00000E+000	4.75450E-004	-3.27672E+002	7	...........
	236	237	3.22652E+000	3.37382E-007	0.00000E+000	1.08857E-006	0.00000E+000	4.76017E-004	-3.27672E+002	7	...........
	237	238	3.22656E+000	3.37294E-007	0.00000E+000	1.08830E-006	0.00000E+000	4.75850E-004	-3.27672E+002	7	...........
	238	239	3.22659E+000	3.37243E-007	0.00000E+000	1.08814E-006	0.00000E+000	4.76767E-004	-3.27672E+002	7	...........
	239	240	3.22661E+000	3.36783E-007	0.00000E+000	1.08667E-006	0.00000E+000	4.78000E-004	-3.27672E+002	7	...........
	240	241	3.22665E+000	3.37069E-007	0.00000E+000	1.08760E-006	0.00000E+000	4.77233E-004	-3.27672E+002	7	...........
	241	242	3.22667E+000	3.37123E-007	0.00000E+000	1.08778E-006	0.00000E+000	4.78217E-004	-3.27672E+002	7	...........
	242	243	3.22670E+000	3.37820E-007	0.00000E+000	1.09004E-006	0.00000E+000	4.77917E-004	-3.27672E+002	7	...........
	243	244	3.22673E+000	3.36850E-007	0.00000E+000	1.08692E-006	0.00000E+000	4.75550E-004	-3.27672E+002	7	...........
	244	245	3.22675E+000	3.36708E-007	0.00000E+000	1.08647E-006	0.00000E+000	4.78200E-004	-3.27672E+002	7	...........
	245	246	3.22678E+000	3.36939E-007	0.00000E+000	1.08723E-006	0.00000E+000	4.76317E-004	-3.27672E+002	7	...........
	246	247	3.22680E+000	3.35930E-007	0.00000E+000	1.08398E-006	0.00000E+000	4.78800E-004	-3.27672E+002	7	...........
	247	248	3.22682E+000	3.36334E-007	0.00000E+000	1.08529E-006	0.00000E+000	4.78550E-004	-3.27672E+002	7	...........
	248	249	3.22684E+000	3.35578E-007	0.00000E+000	1.08286E-006	0.00000E+000	4.75800E-004	-3.27672E+002	7	...........
	249	250	3.22687E+000	3.35845E-007	0.00000E+000	1.08373E-006	0.00000E+000	4.78317E-004	-3.27672E+002	7	...........
	250	251	3.22690E+000	3.35267E-007	0.00000E+000	1.08187E-006	0.00000E+000	4.75667E-004	-3.27672E+002	7	...........
	251	252	3.22691E+000	3.35126E-007	0.00000E+000	1.08142E-006	0.00000E+000	4.76200E-004	-3.27672E+002	7	...........
	252	253	3.22694E+000	3.36308E-007	0.00000E+000	1.08525E-006	0.00000E+000	4.76300E-004	-3.27672E+002	7	...........
	253	254	3.22696E+000	3.36147E-007	0.00000E+000	1.08473E-006	0.00000E+000	4.75533E-004	-3.27672E+002	7	...........
	254	255	3.22698E+000	3.36512E-007	0.00000E+000	1.08592E-006	0.00000E+000	4.77733E-004	-3.27672E+002	7	...........
	255	256	3.22700E+000	3.36226E-007	0.00000E+000	1.08500E-006	0.00000E+000	4.78433E-004	-3.27672E+002	7	...........
	256	257	3.22703E+000	3.35759E-007	0.00000E+000	1.08351E-006	0.00000E+000	4.77800E-004	-3.27672E+002	7	...........
	257	258	3.22706E+000	3.35899E-007	0.00000E+000	1.08396E-006	0.00000E+000	4.74583E-004	-3.27672E+002	7	...........
	258	259	3.22708E+000	3.35786E-007	0.00000E+000	1.08361E-006	0.00000E+000	4.73667E-004	-3.27672E+002	7	...........
	259	260	3.22711E+000	3.35319E-007	0.00000E+000	1.08211E-006	0.00000E+000	4.75617E-004	-3.27672E+002	7	...........
	260	261	3.22712E+000	3.35209E-007	0.00000E+000	1.08176E-006	0.00000E+000	4.75333E-004	-3.27672E+002	7	...........
	261	262	3.22715E+000	3.36273E-007	0.00000E+000	1.08520E-006	0.00000E+000	4.75867E-004	-3.27672E+002	7	...........
	262	263	3.22717E+000	3.36234E-007	0.00000E+000	1.08508E-006	0.00000E+000	4.76883E-004	-3.27672E+002	7	...........
	263	264	3.22720E+000	3.36142E-007	0.00000E+000	1.08480E-006	0.00000E+000	4.80617E-004	-3.27672E+002	7	...........
	264	265	3.22722E+000	3.35523E-007	0.00000E+000	1.08281E-006	0.00000E+000	4.77433E-004	-3.27672E+002	7	...........
	265	266	3.22726E+000	3.35150E-007	0.00000E+000	1.08161E-006	0.00000E+000	4.78133E-004	-3.27672E+002	7	...........
	266	267	3.22728E+000	3.35734E-007	0.00000E+000	1.08351E-006	0.00000E+000	4.77683E-004	-3.27672E+002	7	...........
	267	268	3.22732E+000	3.35534E-007	0.00000E+000	1.08287E-006	0.00000E+000	4.75200E-004	-3.27672E+002	7	...........
	268	269	3.22734E+000	3.35166E-007	0.00000E+000	1.08170E-006	0.00000E+000	4.73600E-004	-3.27672E+002	7	...........
	269	270	3.22737E+000	3.35810E-007	0.00000E+000	1.08378E-006	0.00000E+000	4.73717E-004	-3.27672E+002	7	...........
	270	271	3.22741E+000	3.35099E-007	0.00000E+000	1.08150E-006	0.00000E+000	4.75233E-004	-3.27672E+002	7	...........
	271	272	3.22743E+000	3.35673E-007	0.00000E+000	1.08336E-006	0.00000E+000	4.71150E-004	-3.27672E+002	7	...........
	272	273	3.22746E+000	3.35024E-007	0.00000E+000	1.08127E-006	0.00000E+000	4.75867E-004	-3.27672E+002	7	...........
	273	274	3.22749E+000	3.35941E-007	0.00000E+000	1.08425E-006	0.00000E+000	4.70917E-004	-3.27672E+002	7	...........
	274	275	3.22751E+000	3.35354E-007	0.00000E+000	1.08236E-006	0.00000E+000	4.70167E-004	-3.27672E+002	7	...........
	275	276	3.22754E+000	3.36061E-007	0.00000E+000	1.08465E-006	0.00000E+000	4.69167E-004	-3.27672E+002	7	...........
	276	277	3.22758E+000	3.35387E-007	0.00000E+000	1.08249E-006	0.00000E+000	4.68967E-004	-3.27672E+002	7	...........
	277	278	3.22761E+000	3.35464E-007	0.00000E+000	1.08275E-006	0.00000E+000	4.67783E-004	-3.27672E+002	7	...........
	278	279	3.22765E+000	3.35392E-007	0.00000E+000	1.08253E-006	0.00000E+000	4.70900E-004	-3.27672E+002	7	...........
	279	280	3.22766E+000	3.35518E-007	0.00000E+000	1.08294E-006	0.00000E+000	4.69033E-004	-3.27672E+002	7	...........
	280	281	3.22770E+000	3.35032E-007	0.00000E+000	1.08138E-006	0.00000E+000	4.71083E-004	-3.27672E+002	7	...........
	281	282	3.22774E+000	3.34867E-007	0.00000E+000	1.08086E-006	0.00000E+000	4.67517E-004	-3.27672E+002	7	...........
	282	283	3.22778E+000	3.35192E-007	0.00000E+000	1.08193E-006	0.00000E+000	4.70317E-004	-3.27672E+002	7	...........
	283	284	3.22781E+000	3.34740E-007	0.00000E+000	1.08048E-006	0.00000E+000	4.67233E-004	-3.27672E+002	7	...........
	284	285	3.22784E+000	3.34665E-007	0.00000E+000	1.08025E-006	0.00000E+000	4.67100E-004	-3.27672E+002	7	...........
	285	286	3.22787E+000	3.34245E-007	0.00000E+000	1.07890E-006	0.00000E+000	4.63217E-004	-3.27672E+002	7	...........
	286	287	3.22791E+000	3.33859E-007	0.00000E+000	1.07767E-006	0.00000E+000	4.61967E-004	-3.27672E+002	7	...........
	287	288	3.22793E+000	3.33315E-007	0.00000E+000	1.07592E-006	0.00000E+000	4.64700E-004	-3.27672E+002	7	...........
	288	289	3.22797E+000	3.33978E-007	0.00000E+000	1.07807E-006	0.00000E+000	4.66400E-004	-3.27672E+002	7	...........
	289	290	3.22800E+000	3.33042E-007	0.00000E+000	1.07506E-006	0.00000E+000	4.64100E-004	-3.27672E+002	7	...........
	290	291	3.22803E+000	3.33806E-007	0.00000E+000	1.07754E-006	0.00000E+000	4.63483E-004	-3.27672E+002	7	...........
	291	292	3.22806E+000	3.32794E-007	0.00000E+000	1.07428E-006	0.00000E+000	4.63300E-004	-3.27672E+002	7	...........
	292	293	3.22810E+000	3.33184E-007	0.00000E+000	1.07555E-006	0.00000E+000	4.62900E-004	-3.27672E+002	7	...........
	293	294	3.22812E+000	3.33620E-007	0.00000E+000	1.07696E-006	0.00000E+000	4.62450E-004	-3.27672E+002	7	...........
	294	295	3.22816E+000	3.34063E-007	0.00000E+000	1.07841E-006	0.00000E+000	4.62767E-004	-3.27672E+002	7	...........
	295	296	3.22818E+000	3.33518E-007	0.00000E+000	1.07666E-006	0.00000E+000	4.62183E-004	-3.27672E+002	7	...........
	296	297	3.22820E+000	3.33407E-007	0.00000E+000	1.07631E-006	0.00000E+000	4.58333E-004	-3.27672E+002	7	...........
	297	298	3.22823E+000	3.33803E-007	0.00000E+000	1.07760E-006	0.00000E+000	4.60317E-004	-3.27672E+002	7	...........
	298	299	3.22825E+000	3.33831E-007	0.00000E+000	1.07769E-006	0.00000E+000	4.62000E-004	-3.27672E+002	7	...........
	299	300	3.22828E+000	3.33580E-007	0.00000E+000	1.07689E-006	0.00000E+000	4.58450E-004	-3.27672E+002	7	...........
	300	301	3.22831E+000	3.33931E-007	0.00000E+000	1.07803E-006	0.00000E+000	4.61967E-004	-3.27672E+002	7	...........
	301	302	3.22833E+000	3.33966E-007	0.00000E+000	1.07815E-006	0.00000E+000	4.61517E-004	-3.27672E+002	7	...........
	302	303	3.22836E+000	3.34248E-007	0.00000E+000	1.07907E-006	0.00000E+000	4.60317E-004	-3.27672E+002	7	...........
	303	304	3.22838E+000	3.33637E-007	0.00000E+000	1.07711E-006	0.00000E+000	4.61583E-004	-3.27672E+002	7	...........
	304	305	3.22841E+000	3.33658E-007	0.00000E+000	1.07718E-006	0.00000E+000	4.62100E-004	-3.27672E+002	7	...........
	305	306	3.22844E+000	3.33912E-007	0.00000E+000	1.07801E-006	0.00000E+000	4.59917E-004	-3.27672E+002	7	...........
	306	307	3.22845E+000	3.33715E-007	0.00000E+000	1.07738E-006	0.00000E+000	4.58717E-004	-3.27672E+002	7	...........
	307	308	3.22847E+000	3.32970E-007	0.00000E+000	1.07498E-006	0.00000E+000	4.61183E-004	-3.27672E+002	7	...........
	308	309	3.22849E+000	3.33133E-007	0.00000E+000	1.07552E-006	0.00000E+000	4.61917E-004	-3.27672E+002	7	...........
	309	310	3.22852E+000	3.32694E-007	0.00000E+000	1.07411E-006	0.00000E+000	4.61200E-004	-3.27672E+002	7	...........
	310	311	3.22855E+000	3.33097E-007	0.00000E+000	1.07542E-006	0.00000E+000	4.60550E-004	-3.27672E+002	7	...........
	311	312	3.22857E+000	3.32888E-007	0.00000E+000	1.07475E-006	0.00000E+000	4.60483E-004	-3.27672E+002	7	...........
	312	313	3.22859E+000	3.32824E-007	0.00000E+000	1.07455E-006	0.00000E+000	4.60533E-004	-3.27672E+002	7	...........
	313	314	3.22862E+000	3.33516E-007	0.00000E+000	1.07679E-006	0.00000E+000	4.61133E-004	-3.27672E+002	7	...........
	314	315	3.22864E+000	3.33839E-007	0.00000E+000	1.07784E-006	0.00000E+000	4.59933E-004	-3.27672E+002	7	...........
	315	316	3.22865E+000	3.33109E-007	0.00000E+000	1.07549E-006	0.00000E+000	4.62467E-004	-3.27672E+002	7	...........
	316	317	3.22868E+000	3.32993E-007	0.00000E+000	1.07513E-006	0.00000E+000	4.62517E-004	-3.27672E+002	7	...........
	317	318	3.22870E+000	3.33508E-007	0.00000E+000	1.07680E-006	0.00000E+000	4.61483E-004	-3.27672E+002	7	...........
	318	319	3.22872E+000	3.32676E-007	0.00000E+000	1.07412E-006	0.00000E+000	4.64467E-004	-3.27672E+002	7	...........
	319	320	3.22874E+000	3.31841E-007	0.00000E+000	1.07143E-006	0.00000E+000	4.68483E-004	-3.27672E+002	7	...........
	320	321	3.22878E+000	3.32836E-007	0.00000E+000	1.07465E-006	0.00000E+000	4.64500E-004	-3.27672E+002	7	...........
	321	322	3.22880E+000	3.33146E-007	0.00000E+000	1.07566E-006	0.00000E+000	4.67117E-004	-3.27672E+002	7	...........
	322	323	3.22881E+000	3.33127E-007	0.00000E+000	1.07560E-006	0.00000E+000	4.65600E-004	-3.27672E+002	7	...........
	323	324	3.22883E+000	3.33269E-007	0.00000E+000	1.07607E-006	0.00000E+000	4.69500E-004	-3.27672E+002	7	...........
	324	325	3.22884E+000	3.32695E-007	0.00000E+000	1.07422E-006	0.00000E+000	4.66933E-004	-3.27672E+002	7	...........
	325	326	3.22886E+000	3.32331E-007	0.00000E+000	1.07305E-006	0.00000E+000	4.65083E-004	-3.27672E+002	7	...........
	326	327	3.22888E+000	3.31829E-007	0.00000E+000	1.07144E-006	0.00000E+000	4.67267E-004	-3.27672E+002	7	...........
	327	328	3.22890E+000	3.32305E-007	0.00000E+000	1.07298E-006	0.00000E+000	4.67483E-004	-3.27672E+002	7	...........
	328	329	3.22893E+000	3.32116E-007	0.00000E+000	1.07238E-006	0.00000E+000	4.69433E-004	-3.27672E+002	7	...........
	329	330	3.22895E+000	3.31735E-007	0.00000E+000	1.07116E-006	0.00000E+000	4.68783E-004	-3.27672E+002	7	...........
	330	331	3.22896E+000	3.31600E-007	0.00000E+000	1.07072E-006	0.00000E+000	4.70200E-004	-3.27672E+002	7	...........
	331	332	3.22899E+000	3.32104E-007	0.00000E+000	1.07236E-006	0.00000E+000	4.71217E-004	-3.27672E+002	7	...........
	332	333	3.22901E+000	3.32380E-007	0.00000E+000	1.07326E-006	0.00000E+000	4.71817E-004	-3.27672E+002	7	...........
	333	334	3.22902E+000	3.32763E-007	0.00000E+000	1.07450E-006	0.00000E+000	4.74500E-004	-3.27672E+002	7	...........
	334	335	3.22903E+000	3.32887E-007	0.00000E+000	1.07490E-006	0.00000E+000	4.71600E-004	-3.27672E+002	7	...........
	335	336	3.22905E+000	3.32192E-007	0.00000E+000	1.07267E-006	0.00000E+000	4.70150E-004	-3.27672E+002	7	...........
	336	337	3.22907E+000	3.31765E-007	0.00000E+000	1.07129E-006	0.00000E+000	4.70950E-004	-3.27672E+002	7	...........
	337	338	3.22909E+000	3.31452E-007	0.00000E+000	1.07029E-006	0.00000E+000	4.71617E-004	-3.27672E+002	7	...........
	338	339	3.22911E+000	3.31830E-007	0.00000E+000	1.07152E-006	0.00000E+000	4.71317E-004	-3.27672E+002	7	...........
	339	340	3.22914E+000	3.31563E-007	0.00000E+000	1.07066E-006	0.00000E+000	4.71200E-004	-3.27672E+002	7	...........
	340	341	3.22915E+000	3.31134E-007	0.00000E+000	1.06928E-006	0.00000E+000	4.70600E-004	-3.27672E+002	7	...........
	341	342	3.22916E+000	3.31696E-007	0.00000E+000	1.07110E-006	0.00000E+000	4.70150E-004	-3.27672E+002	7	...........
	342	343	3.22918E+000	3.31474E-007	0.00000E+000	1.07039E-006	0.00000E+000	4.73500E-004	-3.27672E+002	7	...........
	343	344	3.22921E+000	3.31500E-007	0.00000E+000	1.07048E-006	0.00000E+000	4.70883E-004	-3.27672E+002	7	...........
	344	345	3.22923E+000	3.31006E-007	0.00000E+000	1.06890E-006	0.00000E+000	4.71067E-004	-3.27672E+002	7	...........
	345	346	3.22925E+000	3.31055E-007	0.00000E+000	1.06906E-006	0.00000E+000	4.72033E-004	-3.27672E+002	7	...........
	346	347	3.22926E+000	3.31352E-007	0.00000E+000	1.07002E-006	0.00000E+000	4.69600E-004	-3.27672E+002	7	...........
	347	348	3.22928E+000	3.30876E-007	0.00000E+000	1.06849E-006	0.00000E+000	4.72833E-004	-3.27672E+002	7	...........
	348	349	3.22930E+000	3.31530E-007	0.00000E+000	1.07061E-006	0.00000E+000	4.67617E-004	-3.27672E+002	7	...........
	349	350	3.22932E+000	3.31001E-007	0.00000E+000	1.06891E-006	0.00000E+000	4.74200E-004	-3.27672E+002	7	...........
	350	351	3.22935E+000	3.31018E-007	0.00000E+000	1.06897E-006	0.00000E+000	4.73783E-004	-3.27672E+002	7	...........
	351	352	3.22937E+000	3.30961E-007	0.00000E+000	1.06880E-006	0.00000E+000	4.72133E-004	-3.27672E+002	7	...........
	352	353	3.22938E+000	3.31485E-007	0.00000E+000	1.07049E-006	0.00000E+000	4.71400E-004	-3.27672E+002	7	...........
	353	354	3.22941E+000	3.31672E-007	0.00000E+000	1.07111E-006	0.00000E+000	4.71233E-004	-3.27672E+002	7	...........
	354	355	3.22943E+000	3.31823E-007	0.00000E+000	1.07160E-006	0.00000E+000	4.73450E-004	-3.27672E+002	7	...........
	355	356	3.22945E+000	3.31370E-007	0.00000E+000	1.07014E-006	0.00000E+000	4.72317E-004	-3.27672E+002	7	...........
	356	357	3.22948E+000	3.31017E-007	0.00000E+000	1.06901E-006	0.00000E+000	4.75583E-004	-3.27672E+002	7	...........
	357	358	3.22951E+000	3.31108E-007	0.00000E+000	1.06932E-006	0.00000E+000	4.74183E-004	-3.27672E+002	7	...........
	358	359	3.22952E+000	3.30864E-007	0.00000E+000	1.06853E-006	0.00000E+000	4.72350E-004	-3.27672E+002	7	...........
	359	360	3.22956E+000	3.30774E-007	0.00000E+000	1.06825E-006	0.00000E+000	4.75367E-004	-3.27672E+002	7	...........
	360	361	3.22958E+000	3.31226E-007	0.00000E+000	1.06972E-006	0.00000E+000	4.75633E-004	-3.27672E+002	7	...........
	361	362	3.22959E+000	3.31335E-007	0.00000E+000	1.07008E-006	0.00000E+000	4.71800E-004	-3.27672E+002	7	...........
	362	363	3.22962E+000	3.31450E-007	0.00000E+000	1.07046E-006	0.00000E+000	4.74933E-004	-3.27672E+002	7	...........
	363	364	3.22964E+000	3.30245E-007	0.00000E+000	1.06657E-006	0.00000E+000	4.72450E-004	-3.27672E+002	7	...........
	364	365	3.22966E+000	3.30121E-007	0.00000E+000	1.06618E-006	0.00000E+000	4.72667E-004	-3.27672E+002	7	...........
	365	366	3.22970E+000	3.29739E-007	0.00000E+000	1.06496E-006	0.00000E+000	4.71450E-004	-3.27672E+002	7	...........
	366	367	3.22973E+000	3.29494E-007	0.00000E+000	1.06418E-006	0.00000E+000	4.73583E-004	-3.27672E+002	7	...........
	367	368	3.22974E+000	3.30149E-007	0.00000E+000	1.06630E-006	0.00000E+000	4.71633E-004	-3.27672E+002	7	...........
	368	369	3.22977E+000	3.29841E-007	0.00000E+000	1.06531E-006	0.00000E+000	4.72667E-004	-3.27672E+002	7	...........
	369	370	3.22980E+000	3.29712E-007	0.00000E+000	1.06490E-006	0.00000E+000	4.72450E-004	-3.27672E+002	7	...........
	370	371	3.22984E+000	3.29495E-007	0.00000E+000	1.06421E-006	0.00000E+000	4.75083E-004	-3.27672E+002	7	...........
	371	372	3.22987E+000	3.29425E-007	0.00000E+000	1.06400E-006	0.00000E+000	4.77617E-004	-3.27672E+002	7	...........
	372	373	3.22989E+000	3.29619E-007	0.00000E+000	1.06463E-006	0.00000E+000	4.71467E-004	-3.27672E+002	7	...........
	373	374	3.22992E+000	3.30582E-007	0.00000E+000	1.06775E-006	0.00000E+000	4.72967E-004	-3.27672E+002	7	...........
	374	375	3.22993E+000	3.30395E-007	0.00000E+000	1.06715E-006	0.00000E+000	4.71433E-004	-3.27672E+002	7	...........
	375	376	3.22995E+000	3.29978E-007	0.00000E+000	1.06581E-006	0.00000E+000	4.73450E-004	-3.27672E+002	7	...........
	376	377	3.22999E+000	3.29409E-007	0.00000E+000	1.06399E-006	0.00000E+000	4.74283E-004	-3.27672E+002	7	...........
	377	378	3.23001E+000	3.29385E-007	0.00000E+000	1.06392E-006	0.00000E+000	4.73617E-004	-3.27672E+002	7	...........
	378	379	3.23002E+000	3.29347E-007	0.00000E+000	1.06380E-006	0.00000E+000	4.73483E-004	-3.27672E+002	7	...........
	379	380	3.23005E+000	3.29858E-007	0.00000E+000	1.06546E-006	0.00000E+000	4.75883E-004	-3.27672E+002	7	...........
	380	381	3.23008E+000	3.30000E-007	0.00000E+000	1.06593E-006	0.00000E+000	4.73767E-004	-3.27672E+002	7	...........
	381	382	3.23011E+000	3.29471E-007	0.00000E+000	1.06423E-006	0.00000E+000	4.72150E-004	-3.27672E+002	7	...........
	382	383	3.23013E+000	3.28873E-007	0.00000E+000	1.06230E-006	0.00000E+000	4.72683E-004	-3.27672E+002	7	...........
	383	384	3.23015E+000	3.28998E-007	0.00000E+000	1.06271E-006	0.00000E+000	4.73667E-004	-3.27672E+002	7	...........
	384	385	3.23017E+000	3.29368E-007	0.00000E+000	1.06391E-006	0.00000E+000	4.73233E-004	-3.27672E+002	7	...........
	385	386	3.23019E+000	3.29492E-007	0.00000E+000	1.06432E-006	0.00000E+000	4.74350E-004	-3.27672E+002	7	...........
	386	387	3.23021E+000	3.29289E-007	0.00000E+000	1.06367E-006	0.00000E+000	4.74083E-004	-3.27672E+002	7	...........
	387	388	3.23024E+000	3.28230E-007	0.00000E+000	1.06026E-006	0.00000E+000	4.74317E-004	-3.27672E+002	7	...........
	388	389	3.23026E+000	3.28323E-007	0.00000E+000	1.06057E-006	0.00000E+000	4.73900E-004	-3.27672E+002	7	...........
	389	390	3.23028E+000	3.28717E-007	0.00000E+000	1.06185E-006	0.00000E+000	4.75317E-004	-3.27672E+002	7	...........
	390	391	3.23031E+000	3.28352E-007	0.00000E+000	1.06068E-006	0.00000E+000	4.72617E-004	-3.27672E+002	7	...........
	391	392	3.23033E+000	3.28118E-007	0.00000E+000	1.05993E-006	0.00000E+000	4.74517E-004	-3.27672E+002	7	...........
	392	393	3.23035E+000	3.28134E-007	0.00000E+000	1.05999E-006	0.00000E+000	4.74100E-004	-3.27672E+002	7	...........
	393	394	3.23038E+000	3.28669E-007	0.00000E+000	1.06172E-006	0.00000E+000	4.74750E-004	-3.27672E+002	7	...........
	394	395	3.23040E+000	3.29103E-007	0.00000E+000	1.06313E-006	0.00000E+000	4.76483E-004	-3.27672E+002	7	...........
	395	396	3.23043E+000	3.28094E-007	0.00000E+000	1.05988E-006	0.00000E+000	4.76100E-004	-3.27672E+002	7	...........
	396	397	3.23044E+000	3.27988E-007	0.00000E+000	1.05954E-006	0.00000E+000	4.71533E-004	-3.27672E+002	7	...........
	397	398	3.23045E+000	3.28239E-007	0.00000E+000	1.06036E-006	0.00000E+000	4.75150E-004	-3.27672E+002	7	...........
	398	399	3.23048E+000	3.28218E-007	0.00000E+000	1.06030E-006	0.00000E+000	4.75183E-004	-3.27672E+002	7	...........
	399	400	3.23050E+000	3.27983E-007	0.00000E+000	1.05955E-006	0.00000E+000	4.75683E-004	-3.27672E+002	7	...........
	400	401	3.23052E+000	3.28668E-007	0.00000E+000	1.06177E-006	0.00000E+000	4.74867E-004	-3.27672E+002	7	...........
	401	402	3.23054E+000	3.28658E-007	0.00000E+000	1.06174E-006	0.00000E+000	4.74150E-004	-3.27672E+002	7	...........
	402	403	3.23056E+000	3.28189E-007	0.00000E+000	1.06024E-006	0.00000E+000	4.71317E-004	-3.27672E+002	7	...........
	403	404	3.23059E+000	3.27970E-007	0.00000E+000	1.05953E-006	0.00000E+000	4.74117E-004	-3.27672E+002	7	...........
	404	405	3.23060E+000	3.28131E-007	0.00000E+000	1.06006E-006	0.00000E+000	4.72450E-004	-3.27672E+002	7	...........
	405	406	3.23062E+000	3.27842E-007	0.00000E+000	1.05913E-006	0.00000E+000	4.73117E-004	-3.27672E+002	7	...........
	406	407	3.23063E+000	3.27832E-007	0.00000E+000	1.05910E-006	0.00000E+000	4.74033E-004	-3.27672E+002	7	...........
	407	408	3.23065E+000	3.28397E-007	0.00000E+000	1.06093E-006	0.00000E+000	4.75667E-004	-3.27672E+002	7	...........
	408	409	3.23067E+000	3.28388E-007	0.00000E+000	1.06091E-006	0.00000E+000	4.73633E-004	-3.27672E+002	7	...........
	409	410	3.23069E+000	3.27385E-007	0.00000E+000	1.05768E-006	0.00000E+000	4.74133E-004	-3.27672E+002	7	...........
	410	411	3.23071E+000	3.28016E-007	0.00000E+000	1.05972E-006	0.00000E+000	4.74767E-004	-3.27672E+002	7	...........
	411	412	3.23074E+000	3.27972E-007	0.00000E+000	1.05959E-006	0.00000E+000	4.76433E-004	-3.27672E+002	7	...........
	412	413	3.23075E+000	3.28015E-007	0.00000E+000	1.05973E-006	0.00000E+000	4.74950E-004	-3.27672E+002	7	...........
	413	414	3.23076E+000	3.28046E-007	0.00000E+000	1.05984E-006	0.00000E+000	4.76850E-004	-3.27672E+002	7	...........
	414	415	3.23078E+000	3.28083E-007	0.00000E+000	1.05996E-006	0.00000E+000	4.73333E-004	-3.27672E+002	7	...........
	415	416	3.23080E+000	3.28364E-007	0.00000E+000	1.06088E-006	0.00000E+000	4.74683E-004	-3.27672E+002	7	...........
	416	417	3.23082E+000	3.27749E-007	0.00000E+000	1.05890E-006	0.00000E+000	4.76067E-004	-3.27672E+002	7	...........
	417	418	3.23084E+000	3.27624E-007	0.00000E+000	1.05850E-006	0.00000E+000	4.77150E-004	-3.27672E+002	7	...........
	418	419	3.23085E+000	3.27934E-007	0.00000E+000	1.05951E-006	0.00000E+000	4.72850E-004	-3.27672E+002	7	...........
	419	420	3.23087E+000	3.27643E-007	0.00000E+000	1.05857E-006	0.00000E+000	4.73250E-004	-3.27672E+002	7	...........
	420	421	3.23090E+000	3.27576E-007	0.00000E+000	1.05836E-006	0.00000E+000	4.71017E-004	-3.27672E+002	7	...........
	421	422	3.23091E+000	3.27600E-007	0.00000E+000	1.05845E-006	0.00000E+000	4.72550E-004	-3.27672E+002	7	...........
	422	423	3.23094E+000	3.27222E-007	0.00000E+000	1.05723E-006	0.00000E+000	4.72667E-004	-3.27672E+002	7	...........
	423	424	3.23096E+000	3.27541E-007	0.00000E+000	1.05827E-006	0.00000E+000	4.69650E-004	-3.27672E+002	7	...........
	424	425	3.23098E+000	3.27615E-007	0.00000E+000	1.05852E-006	0.00000E+000	4.71917E-004	-3.27672E+002	7	...........
	425	426	3.23099E+000	3.27209E-007	0.00000E+000	1.05721E-006	0.00000E+000	4.72933E-004	-3.27672E+002	7	...........
	426	427	3.23102E+000	3.27167E-007	0.00000E+000	1.05708E-006	0.00000E+000	4.71517E-004	-3.27672E+002	7	...........
	427	428	3.23104E+000	3.27151E-007	0.00000E+000	1.05704E-006	0.00000E+000	4.70200E-004	-3.27672E+002	7	...........
	428	429	3.23106E+000	3.27187E-007	0.00000E+000	1.05716E-006	0.00000E+000	4.69950E-004	-3.27672E+002	7	...........
	429	430	3.23108E+000	3.26406E-007	0.00000E+000	1.05465E-006	0.00000E+000	4.70733E-004	-3.27672E+002	7	...........
	430	431	3.23110E+000	3.26432E-007	0.00000E+000	1.05473E-006	0.00000E+000	4.70350E-004	-3.27672E+002	7	...........
	431	432	3.23113E+000	3.27173E-007	0.00000E+000	1.05714E-006	0.00000E+000	4.67433E-004	-3.27672E+002	7	...........
	432	433	3.23115E+000	3.26940E-007	0.00000E+000	1.05639E-006	0.00000E+000	4.67050E-004	-3.27672E+002	7	...........
	433	434	3.23116E+000	3.26920E-007	0.00000E+000	1.05633E-006	0.00000E+000	4.71550E-004	-3.27672E+002	7	...........
	434	435	3.23118E+000	3.27201E-007	0.00000E+000	1.05725E-006	0.00000E+000	4.67200E-004	-3.27672E+002	7	...........
	435	436	3.23120E+000	3.25798E-007	0.00000E+000	1.05272E-006	0.00000E+000	4.70267E-004	-3.27672E+002	7	...........
	436	437	3.23124E+000	3.26373E-007	0.00000E+000	1.05459E-006	0.00000E+000	4.69383E-004	-3.27672E+002	7	...........
	437	438	3.23126E+000	3.26512E-007	0.00000E+000	1.05505E-006	0.00000E+000	4.69950E-004	-3.27672E+002	7	...........
	438	439	3.23128E+000	3.25796E-007	0.00000E+000	1.05274E-006	0.00000E+000	4.69333E-004	-3.27672E+002	7	...........
	439	440	3.23129E+000	3.27160E-007	0.00000E+000	1.05715E-006	0.00000E+000	4.65917E-004	-3.27672E+002	7	...........
	440	441	3.23132E+000	3.27179E-007	0.00000E+000	1.05722E-006	0.00000E+000	4.64700E-004	-3.27672E+002	7	...........
	441	442	3.23134E+000	3.26614E-007	0.00000E+000	1.05540E-006	0.00000E+000	4.67200E-004	-3.27672E+002	7	...........
	442	443	3.23136E+000	3.27381E-007	0.00000E+000	1.05789E-006	0.00000E+000	4.66067E-004	-3.27672E+002	7	...........
	443	444	3.23139E+000	3.26452E-007	0.00000E+000	1.05489E-006	0.00000E+000	4.66850E-004	-3.27672E+002	7	...........
	444	445	3.23140E+000	3.26867E-007	0.00000E+000	1.05624E-006	0.00000E+000	4.64967E-004	-3.27672E+002	7	...........
	445	446	3.23141E+000	3.27253E-007	0.00000E+000	1.05749E-006	0.00000E+000	4.66483E-004	-3.27672E+002	7	...........
	446	447	3.23145E+000	3.27588E-007	0.00000E+000	1.05858E-006	0.00000E+000	4.62700E-004	-3.27672E+002	7	...........
	447	448	3.23146E+000	3.26920E-007	0.00000E+000	1.05643E-006	0.00000E+000	4.63833E-004	-3.27672E+002	7	...........
	448	449	3.23148E+000	3.25646E-007	0.00000E+000	1.05232E-006	0.00000E+000	4.64533E-004	-3.27672E+002	7	...........
	449	450	3.23149E+000	3.26621E-007	0.00000E+000	1.05547E-006	0.00000E+000	4.65167E-004	-3.27672E+002	7	...........
	450	451	3.23150E+000	3.26858E-007	0.00000E+000	1.05624E-006	0.00000E+000	4.64200E-004	-3.27672E+002	7	...........
	451	452	3.23152E+000	3.27112E-007	0.00000E+000	1.05707E-006	0.00000E+000	4.61883E-004	-3.27672E+002	7	...........
	452	453	3.23154E+000	3.26621E-007	0.00000E+000	1.05549E-006	0.00000E+000	4.64683E-004	-3.27672E+002	7	...........
	453	454	3.23156E+000	3.27444E-007	0.00000E+000	1.05816E-006	0.00000E+000	4.64200E-004	-3.27672E+002	7	...........
	454	455	3.23157E+000	3.27670E-007	0.00000E+000	1.05889E-006	0.00000E+000	4.61367E-004	-3.27672E+002	7	...........
	455	456	3.23159E+000	3.26226E-007	0.00000E+000	1.05423E-006	0.00000E+000	4.61967E-004	-3.27672E+002	7	...........
	456	457	3.23161E+000	3.26781E-007	0.00000E+000	1.05603E-006	0.00000E+000	4.62133E-004	-3.27672E+002	7	...........
	457	458	3.23162E+000	3.26142E-007	0.00000E+000	1.05397E-006	0.00000E+000	4.63250E-004	-3.27672E+002	7	...........
	458	459	3.23163E+000	3.26379E-007	0.00000E+000	1.05474E-006	0.00000E+000	4.63383E-004	-3.27672E+002	7	...........
	459	460	3.23164E+000	3.27073E-007	0.00000E+000	1.05698E-006	0.00000E+000	4.61533E-004	-3.27672E+002	7	...........
	460	461	3.23165E+000	3.27074E-007	0.00000E+000	1.05699E-006	0.00000E+000	4.62917E-004	-3.27672E+002	7	...........
	461	462	3.23167E+000	3.26447E-007	0.00000E+000	1.05497E-006	0.00000E+000	4.62650E-004	-3.27672E+002	7	...........
	462	463	3.23168E+000	3.26440E-007	0.00000E+000	1.05495E-006	0.00000E+000	4.63233E-004	-3.27672E+002	7	...........
	463	464	3.23169E+000	3.26777E-007	0.00000E+000	1.05604E-006	0.00000E+000	4.62217E-004	-3.27672E+002	7	...........
	464	465	3.23171E+000	3.26088E-007	0.00000E+000	1.05382E-006	0.00000E+000	4.64167E-004	-3.27672E+002	7	...........
	465	466	3.23173E+000	3.27214E-007	0.00000E+000	1.05747E-006	0.00000E+000	4.59283E-004	-3.27672E+002	7	...........
	466	467	3.23174E+000	3.26587E-007	0.00000E+000	1.05544E-006	0.00000E+000	4.60400E-004	-3.27672E+002	7	...........
	467	468	3.23175E+000	3.26085E-007	0.00000E+000	1.05382E-006	0.00000E+000	4.64467E-004	-3.27672E+002	7	...........
	468	469	3.23175E+000	3.25389E-007	0.00000E+000	1.05158E-006	0.00000E+000	4.58450E-004	-3.27672E+002	7	...........
	469	470	3.23176E+000	3.26272E-007	0.00000E+000	1.05443E-006	0.00000E+000	4.65333E-004	-3.27672E+002	7	...........
	470	471	3.23177E+000	3.26154E-007	0.00000E+000	1.05406E-006	0.00000E+000	4.64733E-004	-3.27672E+002	7	...........
	471	472	3.23178E+000	3.25756E-007	0.00000E+000	1.05277E-006	0.00000E+000	4.63217E-004	-3.27672E+002	7	...........
	472	473	3.23180E+000	3.26386E-007	0.00000E+000	1.05482E-006	0.00000E+000	4.63900E-004	-3.27672E+002	7	...........
	473	474	3.23181E+000	3.26215E-007	0.00000E+000	1.05426E-006	0.00000E+000	4.64400E-004	-3.27672E+002	7	...........
	474	475	3.23181E+000	3.26392E-007	0.00000E+000	1.05484E-006	0.00000E+000	4.62250E-004	-3.27672E+002	7	...........
	475	476	3.23182E+000	3.26815E-007	0.00000E+000	1.05621E-006	0.00000E+000	4.61483E-004	-3.27672E+002	7	...........
	476	477	3.23183E+000	3.25762E-007	0.00000E+000	1.05281E-006	0.00000E+000	4.62917E-004	-3.27672E+002	7	...........
	477	478	3.23184E+000	3.26340E-007	0.00000E+000	1.05468E-006	0.00000E+000	4.60883E-004	-3.27672E+002	7	...........
	478	479	3.23184E+000	3.26144E-007	0.00000E+000	1.05405E-006	0.00000E+000	4.63767E-004	-3.27672E+002	7	...........
	479	480	3.23185E+000	3.26109E-007	0.00000E+000	1.05393E-006	0.00000E+000	4.64583E-004	-3.27672E+002	7	...........
	480	481	3.23186E+000	3.26177E-007	0.00000E+000	1.05416E-006	0.00000E+000	4.66183E-004	-3.27672E+002	7	...........
	481	482	3.23186E+000	3.26425E-007	0.00000E+000	1.05496E-006	0.00000E+000	4.63400E-004	-3.27672E+002	7	...........
	482	483	3.23188E+000	3.26468E-007	0.00000E+000	1.05511E-006	0.00000E+000	4.67200E-004	-3.27672E+002	7	...........
	483	484	3.23189E+000	3.26244E-007	0.00000E+000	1.05439E-006	0.00000E+000	4.66250E-004	-3.27672E+002	7	...........
	484	485	3.23189E+000	3.26700E-007	0.00000E+000	1.05586E-006	0.00000E+000	4.66150E-004	-3.27672E+002	7	...........
	485	486	3.23190E+000	3.26328E-007	0.00000E+000	1.05466E-006	0.00000E+000	4.67067E-004	-3.27672E+002	7	...........
	486	487	3.23192E+000	3.24928E-007	0.00000E+000	1.05014E-006	0.00000E+000	4.66500E-004	-3.27672E+002	7	...........
	487	488	3.23192E+000	3.25836E-007	0.00000E+000	1.05308E-006	0.00000E+000	4.67083E-004	-3.27672E+002	7	...........
	488	489	3.23193E+000	3.25619E-007	0.00000E+000	1.05238E-006	0.00000E+000	4.68817E-004	-3.27672E+002	7	...........
	489	490	3.23195E+000	3.26071E-007	0.00000E+000	1.05385E-006	0.00000E+000	4.66933E-004	-3.27672E+002	7	...........
	490	491	3.23196E+000	3.26015E-007	0.00000E+000	1.05367E-006	0.00000E+000	4.68783E-004	-3.27672E+002	7	...........
	491	492	3.23197E+000	3.25880E-007	0.00000E+000	1.05323E-006	0.00000E+000	4.69633E-004	-3.27672E+002	7	...........
	492	493	3.23199E+000	3.25289E-007	0.00000E+000	1.05133E-006	0.00000E+000	4.71833E-004	-3.27672E+002	7	...........
	493	494	3.23199E+000	3.26714E-007	0.00000E+000	1.05594E-006	0.00000E+000	4.70433E-004	-3.27672E+002	7	...........
	494	495	3.23202E+000	3.27320E-007	0.00000E+000	1.05790E-006	0.00000E+000	4.69483E-004	-3.27672E+002	7	...........
	495	496	3.23202E+000	3.26504E-007	0.00000E+000	1.05527E-006	0.00000E+000	4.70000E-004	-3.27672E+002	7	...........
	496	497	3.23204E+000	3.25985E-007	0.00000E+000	1.05359E-006	0.00000E+000	4.71300E-004	-3.27672E+002	7	...........
	497	498	3.23204E+000	3.26503E-007	0.00000E+000	1.05527E-006	0.00000E+000	4.70850E-004	-3.27672E+002	7	...........
	498	499	3.23206E+000	3.25618E-007	0.00000E+000	1.05242E-006	0.00000E+000	4.71400E-004	-3.27672E+002	7	...........
	499	500	3.23208E+000	3.25306E-007	0.00000E+000	1.05142E-006	0.00000E+000	4.75317E-004	-3.27672E+002	7	...........
	500	501	3.23210E+000	3.26011E-007	0.00000E+000	1.05370E-006	0.00000E+000	4.72733E-004	-3.27672E+002	7	...........
	501	502	3.23210E+000	3.25137E-007	0.00000E+000	1.05088E-006	0.00000E+000	4.74867E-004	-3.27672E+002	7	...........
	502	503	3.23212E+000	3.26046E-007	0.00000E+000	1.05382E-006	0.00000E+000	4.72367E-004	-3.27672E+002	7	...........
	503	504	3.23214E+000	3.26018E-007	0.00000E+000	1.05374E-006	0.00000E+000	4.70983E-004	-3.27672E+002	7	...........
	504	505	3.23215E+000	3.25674E-007	0.00000E+000	1.05263E-006	0.00000E+000	4.73567E-004	-3.27672E+002	7	...........
	505	506	3.23217E+000	3.25537E-007	0.00000E+000	1.05219E-006	0.00000E+000	4.73617E-004	-3.27672E+002	7	...........
	506	507	3.23219E+000	3.25594E-007	0.00000E+000	1.05238E-006	0.00000E+000	4.74383E-004	-3.27672E+002	7	...........
	507	508	3.23220E+000	3.25472E-007	0.00000E+000	1.05199E-006	0.00000E+000	4.74867E-004	-3.27672E+002	7	...........
	508	509	3.23222E+000	3.25602E-007	0.00000E+000	1.05242E-006	0.00000E+000	4.76850E-004	-3.27672E+002	7	...........
	509	510	3.23224E+000	3.25206E-007	0.00000E+000	1.05114E-006	0.00000E+000	4.78500E-004	-3.27672E+002	7	...........
	510	511	3.23226E+000	3.25031E-007	0.00000E+000	1.05059E-006	0.00000E+000	4.77250E-004	-3.27672E+002	7	...........
	511	512	3.23229E+000	3.26110E-007	0.00000E+000	1.05408E-006	0.00000E+000	4.75683E-004	-3.27672E+002	7	...........
	512	513	3.23230E+000	3.26125E-007	0.00000E+000	1.05414E-006	0.00000E+000	4.77450E-004	-3.27672E+002	7	...........
	513	514	3.23232E+000	3.26137E-007	0.00000E+000	1.05418E-006	0.00000E+000	4.77533E-004	-3.27672E+002	7	...........
	514	515	3.23233E+000	3.26538E-007	0.00000E+000	1.05548E-006	0.00000E+000	4.77600E-004	-3.27672E+002	7	...........
	515	516	3.23235E+000	3.26609E-007	0.00000E+000	1.05572E-006	0.00000E+000	4.77100E-004	-3.27672E+002	7	...........
	516	517	3.23237E+000	3.25756E-007	0.00000E+000	1.05296E-006	0.00000E+000	4.78633E-004	-3.27672E+002	7	...........
	517	518	3.23239E+000	3.25619E-007	0.00000E+000	1.05253E-006	0.00000E+000	4.81517E-004	-3.27672E+002	7	...........
	518	519	3.23242E+000	3.25341E-007	0.00000E+000	1.05164E-006	0.00000E+000	4.78600E-004	-3.27672E+002	7	...........
	519	520	3.23243E+000	3.25384E-007	0.00000E+000	1.05178E-006	0.00000E+000	4.80617E-004	-3.27672E+002	7	...........
	520	521	3.23245E+000	3.26069E-007	0.00000E+000	1.05400E-006	0.00000E+000	4.82417E-004	-3.27672E+002	7	...........
	521	522	3.23247E+000	3.26066E-007	0.00000E+000	1.05400E-006	0.00000E+000	4.82100E-004	-3.27672E+002	7	...........
	522	523	3.23251E+000	3.26852E-007	0.00000E+000	1.05655E-006	0.00000E+000	4.83350E-004	-3.27672E+002	7	...........
	523	524	3.23251E+000	3.25725E-007	0.00000E+000	1.05291E-006	0.00000E+000	4.78417E-004	-3.27672E+002	7	...........
	524	525	3.23255E+000	3.25613E-007	0.00000E+000	1.05256E-006	0.00000E+000	4.83033E-004	-3.27672E+002	7	...........
	525	526	3.23256E+000	3.25665E-007	0.00000E+000	1.05273E-006	0.00000E+000	4.80617E-004	-3.27672E+002	7	...........
	526	527	3.23258E+000	3.25505E-007	0.00000E+000	1.05222E-006	0.00000E+000	4.84383E-004	-3.27672E+002	7	...........
	527	528	3.23262E+000	3.25430E-007	0.00000E+000	1.05199E-006	0.00000E+000	4.82983E-004	-3.27672E+002	7	...........
	528	529	3.23263E+000	3.25195E-007	0.00000E+000	1.05124E-006	0.00000E+000	4.80733E-004	-3.27672E+002	7	...........
	529	530	3.23265E+000	3.24641E-007	0.00000E+000	1.04945E-006	0.00000E+000	4.82500E-004	-3.27672E+002	7	...........
	530	531	3.23268E+000	3.25058E-007	0.00000E+000	1.05081E-006	0.00000E+000	4.83500E-004	-3.27672E+002	7	...........
	531	532	3.23271E+000	3.25509E-007	0.00000E+000	1.05228E-006	0.00000E+000	4.85400E-004	-3.27672E+002	7	...........
	532	533	3.23274E+000	3.25286E-007	0.00000E+000	1.05157E-006	0.00000E+000	4.86483E-004	-3.27672E+002	7	...........
	533	534	3.23275E+000	3.25300E-007	0.00000E+000	1.05161E-006	0.00000E+000	4.85417E-004	-3.27672E+002	7	...........
	534	535	3.23279E+000	3.25568E-007	0.00000E+000	1.05249E-006	0.00000E+000	4.85550E-004	-3.27672E+002	7	...........
	535	536	3.23281E+000	3.25735E-007	0.00000E+000	1.05304E-006	0.00000E+000	4.86767E-004	-3.27672E+002	7	...........
	536	537	3.23283E+000	3.23913E-007	0.00000E+000	1.04716E-006	0.00000E+000	4.85850E-004	-3.27672E+002	7	...........
	537	538	3.23286E+000	3.24562E-007	0.00000E+000	1.04926E-006	0.00000E+000	4.83950E-004	-3.27672E+002	7	...........
	538	539	3.23287E+000	3.23848E-007	0.00000E+000	1.04696E-006	0.00000E+000	4.84233E-004	-3.27672E+002	7	...........
	539	540	3.23289E+000	3.24387E-007	0.00000E+000	1.04871E-006	0.00000E+000	4.85250E-004	-3.27672E+002	7	...........
	540	541	3.23293E+000	3.25379E-007	0.00000E+000	1.05193E-006	0.00000E+000	4.85733E-004	-3.27672E+002	7	...........
	541	542	3.23296E+000	3.25434E-007	0.00000E+000	1.05211E-006	0.00000E+000	4.85467E-004	-3.27672E+002	7	...........
	542	543	3.23296E+000	3.25148E-007	0.00000E+000	1.05119E-006	0.00000E+000	4.84717E-004	-3.27672E+002	7	...........
	543	544	3.23301E+000	3.25216E-007	0.00000E+000	1.05142E-006	0.00000E+000	4.84383E-004	-3.27672E+002	7	...........
	544	545	3.23303E+000	3.25381E-007	0.00000E+000	1.05197E-006	0.00000E+000	4.85617E-004	-3.27672E+002	7	...........
	545	546	3.23304E+000	3.25489E-007	0.00000E+000	1.05232E-006	0.00000E+000	4.86533E-004	-3.27672E+002	7	...........
	546	547	3.23306E+000	3.24184E-007	0.00000E+000	1.04811E-006	0.00000E+000	4.89967E-004	-3.27672E+002	7	...........
	547	548	3.23308E+000	3.24336E-007	0.00000E+000	1.04860E-006	0.00000E+000	4.86467E-004	-3.27672E+002	7	...........
	548	549	3.23311E+000	3.23767E-007	0.00000E+000	1.04678E-006	0.00000E+000	4.88617E-004	-3.27672E+002	7	...........
	549	550	3.23312E+000	3.23583E-007	0.00000E+000	1.04618E-006	0.00000E+000	4.88400E-004	-3.27672E+002	7	...........
	550	551	3.23313E+000	3.24288E-007	0.00000E+000	1.04847E-006	0.00000E+000	4.88100E-004	-3.27672E+002	7	...........
	551	552	3.23316E+000	3.23860E-007	0.00000E+000	1.04709E-006	0.00000E+000	4.87233E-004	-3.27672E+002	7	...........
	552	553	3.23318E+000	3.23981E-007	0.00000E+000	1.04749E-006	0.00000E+000	4.89950E-004	-3.27672E+002	7	...........
	553	554	3.23320E+000	3.24539E-007	0.00000E+000	1.04930E-006	0.00000E+000	4.88433E-004	-3.27672E+002	7	...........
	554	555	3.23322E+000	3.24109E-007	0.00000E+000	1.04791E-006	0.00000E+000	4.89300E-004	-3.27672E+002	7	...........
	555	556	3.23323E+000	3.25008E-007	0.00000E+000	1.05083E-006	0.00000E+000	4.85650E-004	-3.27672E+002	7	...........
	556	557	3.23326E+000	3.24750E-007	0.00000E+000	1.05000E-006	0.00000E+000	4.89333E-004	-3.27672E+002	7	...........
	557	558	3.23328E+000	3.24845E-007	0.00000E+000	1.05031E-006	0.00000E+000	4.87133E-004	-3.27672E+002	7	...........
	558	559	3.23329E+000	3.24644E-007	0.00000E+000	1.04967E-006	0.00000E+000	4.88000E-004	-3.27672E+002	7	...........
	559	560	3.23331E+000	3.24266E-007	0.00000E+000	1.04845E-006	0.00000E+000	4.88317E-004	-3.27672E+002	7	...........
	560	561	3.23333E+000	3.24817E-007	0.00000E+000	1.05024E-006	0.00000E+000	4.90400E-004	-3.27672E+002	7	...........
	561	562	3.23334E+000	3.24578E-007	0.00000E+000	1.04947E-006	0.00000E+000	4.87900E-004	-3.27672E+002	7	...........
	562	563	3.23335E+000	3.24580E-007	0.00000E+000	1.04948E-006	0.00000E+000	4.89233E-004	-3.27672E+002	7	...........
	563	564	3.23338E+000	3.24081E-007	0.00000E+000	1.04788E-006	0.00000E+000	4.90450E-004	-3.27672E+002	7	...........
	564	565	3.23340E+000	3.24296E-007	0.00000E+000	1.04858E-006	0.00000E+000	4.88733E-004	-3.27672E+002	7	...........
	565	566	3.23342E+000	3.23613E-007	0.00000E+000	1.04638E-006	0.00000E+000	4.87833E-004	-3.27672E+002	7	...........
	566	567	3.23344E+000	3.23789E-007	0.00000E+000	1.04695E-006	0.00000E+000	4.89700E-004	-3.27672E+002	7	...........
	567	568	3.23345E+000	3.23995E-007	0.00000E+000	1.04762E-006	0.00000E+000	4.89750E-004	-3.27672E+002	7	...........
	568	569	3.23347E+000	3.23642E-007	0.00000E+000	1.04649E-006	0.00000E+000	4.88467E-004	-3.27672E+002	7	...........
	569	570	3.23349E+000	3.23347E-007	0.00000E+000	1.04554E-006	0.00000E+000	4.90017E-004	-3.27672E+002	7	...........
	570	571	3.23350E+000	3.22878E-007	0.00000E+000	1.04402E-006	0.00000E+000	4.92033E-004	-3.27672E+002	7	...........
	571	572	3.23352E+000	3.22371E-007	0.00000E+000	1.04239E-006	0.00000E+000	4.90350E-004	-3.27672E+002	7	...........
	572	573	3.23353E+000	3.23568E-007	0.00000E+000	1.04627E-006	0.00000E+000	4.92667E-004	-3.27672E+002	7	...........
	573	574	3.23355E+000	3.23012E-007	0.00000E+000	1.04448E-006	0.00000E+000	4.88133E-004	-3.27672E+002	7	...........
	574	575	3.23357E+000	3.23631E-007	0.00000E+000	1.04648E-006	0.00000E+000	4.92400E-004	-3.27672E+002	7	...........
	575	576	3.23358E+000	3.23359E-007	0.00000E+000	1.04561E-006	0.00000E+000	4.90167E-004	-3.27672E+002	7	...........
	576	577	3.23359E+000	3.23189E-007	0.00000E+000	1.04506E-006	0.00000E+000	4.87333E-004	-3.27672E+002	7	...........
	577	578	3.23360E+000	3.23232E-007	0.00000E+000	1.04520E-006	0.00000E+000	4.89767E-004	-3.27672E+002	7	...........
	578	579	3.23362E+000	3.23294E-007	0.00000E+000	1.04541E-006	0.00000E+000	4.90117E-004	-3.27672E+002	7	...........
	579	580	3.23363E+000	3.22675E-007	0.00000E+000	1.04341E-006	0.00000E+000	4.90633E-004	-3.27672E+002	7	...........
	580	581	3.23364E+000	3.22654E-007	0.00000E+000	1.04335E-006	0.00000E+000	4.88467E-004	-3.27672E+002	7	...........
	581	582	3.23365E+000	3.23400E-007	0.00000E+000	1.04576E-006	0.00000E+000	4.87800E-004	-3.27672E+002	7	...........
	582	583	3.23366E+000	3.22619E-007	0.00000E+000	1.04324E-006	0.00000E+000	4.90750E-004	-3.27672E+002	7	...........
	583	584	3.23368E+000	3.22752E-007	0.00000E+000	1.04368E-006	0.00000E+000	4.93183E-004	-3.27672E+002	7	...........
	584	585	3.23370E+000	3.22664E-007	0.00000E+000	1.04340E-006	0.00000E+000	4.88983E-004	-3.27672E+002	7	...........
	585	586	3.23371E+000	3.22362E-007	0.00000E+000	1.04242E-006	0.00000E+000	4.89600E-004	-3.27672E+002	7	...........
	586	587	3.23373E+000	3.22035E-007	0.00000E+000	1.04137E-006	0.00000E+000	4.90550E-004	-3.27672E+002	7	...........
	587	588	3.23375E+000	3.22352E-007	0.00000E+000	1.04241E-006	0.00000E+000	4.90167E-004	-3.27672E+002	7	...........
	588	589	3.23375E+000	3.22837E-007	0.00000E+000	1.04398E-006	0.00000E+000	4.90367E-004	-3.27672E+002	7	...........
	589	590	3.23376E+000	3.22477E-007	0.00000E+000	1.04281E-006	0.00000E+000	4.91883E-004	-3.27672E+002	7	...........
	590	591	3.23378E+000	3.22274E-007	0.00000E+000	1.04216E-006	0.00000E+000	4.86250E-004	-3.27672E+002	7	...........
	591	592	3.23379E+000	3.21948E-007	0.00000E+000	1.04111E-006	0.00000E+000	4.88900E-004	-3.27672E+002	7	...........
	592	593	3.23380E+000	3.22327E-007	0.00000E+000	1.04234E-006	0.00000E+000	4.89267E-004	-3.27672E+002	7	...........
	593	594	3.23382E+000	3.22059E-007	0.00000E+000	1.04148E-006	0.00000E+000	4.89333E-004	-3.27672E+002	7	...........
	594	595	3.23383E+000	3.21805E-007	0.00000E+000	1.04066E-006	0.00000E+000	4.89700E-004	-3.27672E+002	7	...........
	595	596	3.23384E+000	3.22618E-007	0.00000E+000	1.04330E-006	0.00000E+000	4.89283E-004	-3.27672E+002	7	...........
	596	597	3.23385E+000	3.22115E-007	0.00000E+000	1.04167E-006	0.00000E+000	4.88317E-004	-3.27672E+002	7	...........
	597	598	3.23388E+000	3.21273E-007	0.00000E+000	1.03896E-006	0.00000E+000	4.88350E-004	-3.27672E+002	7	...........
	598	599	3.23388E+000	3.21147E-007	0.00000E+000	1.03855E-006	0.00000E+000	4.88117E-004	-3.27672E+002	7	...........
	599	600	3.23390E+000	3.21019E-007	0.00000E+000	1.03814E-006	0.00000E+000	4.88583E-004	-3.27672E+002	7	...........
