EXPLAIN
TAG	PWR800_READVOLTAGE
TITLE	LABEL	PWR Read Voltage	Test Identifier
DATE	LABEL	7.2.2024	Date
TIME	LABEL	16:43:17	Time
NOTES	NOTES	1	Notes...
	
PSTAT	PSTAT	REF600-12055	Potentiostat
CAPACITY	QUANT	1.00000E+000	Capacity (A-hr)
CELLTYPE	SELECTOR	1	Cell Type
WORKINGCONNECTION	SELECTOR	0	Working Connection
MAXTIME	VARIABLEANDUNITS	6.00000E+002	s	6.00000E+002	second(s)	Max Time
SAMPLETIME	QUANT	1.00000E+000	Sample Period (s)
STOPAT1	MULTIPARAM	0	0.00000E+000	Stop At 1	None	N/A
STOPAT2	MULTIPARAM	0	0.00000E+000	Stop At 2	None	N/A
AESBHCSELECTOR	TOGGLE	F	Save Both Half Cells
EOC	QUANT	3.399653	Open Circuit (V)
SEQUENCER	TOGGLE	TRUE	Run as Sequence
PSTATMODEL	IQUANT	4	Pstat Model
PSTATSECTION	LABEL	REF600-12055	Pstat Section
PSTATSERIALNO	LABEL	12055	Pstat Serial Number
CTRLMODE	IQUANT	0	Control Mode
ELECTROMETER	IQUANT	0	RE=0 or CS=1
IESTAB	IQUANT	0	I/E Stability
CASPEED	IQUANT	4	Control Amp Speed
CONVENTION	IQUANT	1	Current Convention
ICHRANGE	IQUANT	2	Ich Range
ICHRANGEMODE	TOGGLE	T	Ich Auto Range
ICHOFFSETENABLE	TOGGLE	F	Ich Offset Enable
ICHOFFSET	QUANT	0	Ich Offset (V)
ICHFILTER	IQUANT	1	Ich Filter
VCHRANGE	IQUANT	3	Vch Range
VCHRANGEMODE	TOGGLE	T	Vch Auto Range
VCHOFFSETENABLE	TOGGLE	F	Vch Offset Enable
VCHOFFSET	QUANT	0	Vch Offset (V)
VCHFILTER	IQUANT	1	Vch Filter
ACHRANGE	IQUANT	2	Ach Range
ACHOFFSETENABLE	TOGGLE	F	Ach Offset Enable
ACHOFFSET	QUANT	0	Ach Offset (V)
ACHFILTER	IQUANT	1	Ach Filter
IERANGELOWERLIMIT	IQUANT	7	I/E Range Lower Limit
IERANGEMODE	TOGGLE	F	I/E AutoRange
IERANGE	IQUANT	11	I/E Range
POSFEEDENABLE	TOGGLE	F	Positive Feedback IR Comp
POSFEEDRESISTANCE	QUANT	0	Positive Feedback Resistance (ohm)
ACHSELECT	IQUANT	4	Ach Select
SENSECABLEID	IQUANT	14	Sense Cable ID
PWRCABLEID	IQUANT	14	Power Cable ID
DCCALDATE	LABEL		DC Calibration Date
ACCALDATE	LABEL		AC Calibration Date
THERMOSELECT	IQUANT	1	Thermo Select
FRAMEWORKVERSION	LABEL	7.10.3	Framework Version
INSTRUMENTVERSION	LABEL	4.91	Instrument Version
COMMVERSION	LABEL	2.24	Communications Version
CPUPLDVERSION	LABEL	0.00	CPU PLD Version
CTRLPLDVERSION	LABEL	0.00	CTRL PLD Version
PSTATPLDVERSION	LABEL	0.00	PSTAT PLD Version
CURVE	TABLE	600
	Pt	T	Vf	Im	Vu	Pwr	Sig	Ach	Temp	IERange	Over
	#	s	V	A	V	W	V	V	deg C	#	bits
	0	1	3.51062E+000	-9.74403E-007	0.00000E+000	-3.42076E-006	0.00000E+000	6.92617E-004	-3.27672E+002	7	...........
	1	2	3.51042E+000	-9.72587E-007	0.00000E+000	-3.41419E-006	0.00000E+000	6.90533E-004	-3.27672E+002	7	...........
	2	3	3.51029E+000	-9.72532E-007	0.00000E+000	-3.41387E-006	0.00000E+000	6.90050E-004	-3.27672E+002	7	...........
	3	4	3.51017E+000	-9.72990E-007	0.00000E+000	-3.41537E-006	0.00000E+000	6.87483E-004	-3.27672E+002	7	...........
	4	5	3.51007E+000	-9.73624E-007	0.00000E+000	-3.41749E-006	0.00000E+000	6.86433E-004	-3.27672E+002	7	...........
	5	6	3.50998E+000	-9.74243E-007	0.00000E+000	-3.41957E-006	0.00000E+000	6.85550E-004	-3.27672E+002	7	...........
	6	7	3.50987E+000	-9.73681E-007	0.00000E+000	-3.41750E-006	0.00000E+000	6.85867E-004	-3.27672E+002	7	...........
	7	8	3.50978E+000	-9.73452E-007	0.00000E+000	-3.41660E-006	0.00000E+000	6.88283E-004	-3.27672E+002	7	...........
	8	9	3.50969E+000	-9.72709E-007	0.00000E+000	-3.41391E-006	0.00000E+000	6.86550E-004	-3.27672E+002	7	...........
	9	10	3.50960E+000	-9.73295E-007	0.00000E+000	-3.41588E-006	0.00000E+000	6.89117E-004	-3.27672E+002	7	...........
	10	11	3.50951E+000	-9.72939E-007	0.00000E+000	-3.41454E-006	0.00000E+000	6.88250E-004	-3.27672E+002	7	...........
	11	12	3.50943E+000	-9.73241E-007	0.00000E+000	-3.41552E-006	0.00000E+000	6.89433E-004	-3.27672E+002	7	...........
	12	13	3.50935E+000	-9.73666E-007	0.00000E+000	-3.41694E-006	0.00000E+000	6.89933E-004	-3.27672E+002	7	...........
	13	14	3.50928E+000	-9.73833E-007	0.00000E+000	-3.41745E-006	0.00000E+000	6.90033E-004	-3.27672E+002	7	...........
	14	15	3.50921E+000	-9.73367E-007	0.00000E+000	-3.41575E-006	0.00000E+000	6.89333E-004	-3.27672E+002	7	...........
	15	16	3.50914E+000	-9.73188E-007	0.00000E+000	-3.41505E-006	0.00000E+000	6.89467E-004	-3.27672E+002	7	...........
	16	17	3.50907E+000	-9.72924E-007	0.00000E+000	-3.41406E-006	0.00000E+000	6.90100E-004	-3.27672E+002	7	...........
	17	18	3.50901E+000	-9.73361E-007	0.00000E+000	-3.41553E-006	0.00000E+000	6.87667E-004	-3.27672E+002	7	...........
	18	19	3.50895E+000	-9.73253E-007	0.00000E+000	-3.41509E-006	0.00000E+000	6.84650E-004	-3.27672E+002	7	...........
	19	20	3.50888E+000	-9.72395E-007	0.00000E+000	-3.41202E-006	0.00000E+000	6.86933E-004	-3.27672E+002	7	...........
	20	21	3.50882E+000	-9.71598E-007	0.00000E+000	-3.40916E-006	0.00000E+000	5.29483E-004	-3.27672E+002	7	...........
	21	22	3.50876E+000	-9.72992E-007	0.00000E+000	-3.41399E-006	0.00000E+000	4.53467E-004	-3.27672E+002	7	...........
	22	23	3.50870E+000	-9.73449E-007	0.00000E+000	-3.41554E-006	0.00000E+000	4.52383E-004	-3.27672E+002	7	...........
	23	24	3.50863E+000	-9.72479E-007	0.00000E+000	-3.41207E-006	0.00000E+000	4.56117E-004	-3.27672E+002	7	...........
	24	25	3.50859E+000	-9.72056E-007	0.00000E+000	-3.41055E-006	0.00000E+000	4.53217E-004	-3.27672E+002	7	...........
	25	26	3.50852E+000	-9.71508E-007	0.00000E+000	-3.40855E-006	0.00000E+000	4.55583E-004	-3.27672E+002	7	...........
	26	27	3.50847E+000	-9.72241E-007	0.00000E+000	-3.41107E-006	0.00000E+000	4.54117E-004	-3.27672E+002	7	...........
	27	28	3.50841E+000	-9.71822E-007	0.00000E+000	-3.40956E-006	0.00000E+000	4.58617E-004	-3.27672E+002	7	...........
	28	29	3.50835E+000	-9.72096E-007	0.00000E+000	-3.41046E-006	0.00000E+000	4.55633E-004	-3.27672E+002	7	...........
	29	30	3.50831E+000	-9.72696E-007	0.00000E+000	-3.41252E-006	0.00000E+000	4.52200E-004	-3.27672E+002	7	...........
	30	31	3.50824E+000	-9.72651E-007	0.00000E+000	-3.41230E-006	0.00000E+000	4.56983E-004	-3.27672E+002	7	...........
	31	32	3.50818E+000	-9.72298E-007	0.00000E+000	-3.41100E-006	0.00000E+000	4.53450E-004	-3.27672E+002	7	...........
	32	33	3.50813E+000	-9.72472E-007	0.00000E+000	-3.41156E-006	0.00000E+000	4.54633E-004	-3.27672E+002	7	...........
	33	34	3.50807E+000	-9.71400E-007	0.00000E+000	-3.40774E-006	0.00000E+000	4.57683E-004	-3.27672E+002	7	...........
	34	35	3.50801E+000	-9.72417E-007	0.00000E+000	-3.41125E-006	0.00000E+000	4.60283E-004	-3.27672E+002	7	...........
	35	36	3.50795E+000	-9.72589E-007	0.00000E+000	-3.41180E-006	0.00000E+000	4.54750E-004	-3.27672E+002	7	...........
	36	37	3.50790E+000	-9.71114E-007	0.00000E+000	-3.40657E-006	0.00000E+000	4.52900E-004	-3.27672E+002	7	...........
	37	38	3.50784E+000	-9.70714E-007	0.00000E+000	-3.40511E-006	0.00000E+000	4.56500E-004	-3.27672E+002	7	...........
	38	39	3.50780E+000	-9.70544E-007	0.00000E+000	-3.40447E-006	0.00000E+000	4.57583E-004	-3.27672E+002	7	...........
	39	40	3.50774E+000	-9.71196E-007	0.00000E+000	-3.40670E-006	0.00000E+000	4.53783E-004	-3.27672E+002	7	...........
	40	41	3.50768E+000	-9.71786E-007	0.00000E+000	-3.40871E-006	0.00000E+000	4.53883E-004	-3.27672E+002	7	...........
	41	42	3.50762E+000	-9.71756E-007	0.00000E+000	-3.40855E-006	0.00000E+000	4.54683E-004	-3.27672E+002	7	...........
	42	43	3.50757E+000	-9.71197E-007	0.00000E+000	-3.40654E-006	0.00000E+000	4.51900E-004	-3.27672E+002	7	...........
	43	44	3.50753E+000	-9.71651E-007	0.00000E+000	-3.40809E-006	0.00000E+000	4.53467E-004	-3.27672E+002	7	...........
	44	45	3.50749E+000	-9.71567E-007	0.00000E+000	-3.40776E-006	0.00000E+000	4.52367E-004	-3.27672E+002	7	...........
	45	46	3.50743E+000	-9.70286E-007	0.00000E+000	-3.40322E-006	0.00000E+000	4.50150E-004	-3.27672E+002	7	...........
	46	47	3.50739E+000	-9.71158E-007	0.00000E+000	-3.40623E-006	0.00000E+000	4.51700E-004	-3.27672E+002	7	...........
	47	48	3.50736E+000	-9.71945E-007	0.00000E+000	-3.40896E-006	0.00000E+000	4.47717E-004	-3.27672E+002	7	...........
	48	49	3.50732E+000	-9.71023E-007	0.00000E+000	-3.40569E-006	0.00000E+000	4.49417E-004	-3.27672E+002	7	...........
	49	50	3.50728E+000	-9.71321E-007	0.00000E+000	-3.40669E-006	0.00000E+000	4.47917E-004	-3.27672E+002	7	...........
	50	51	3.50724E+000	-9.71312E-007	0.00000E+000	-3.40663E-006	0.00000E+000	4.47117E-004	-3.27672E+002	7	...........
	51	52	3.50721E+000	-9.71804E-007	0.00000E+000	-3.40833E-006	0.00000E+000	4.49083E-004	-3.27672E+002	7	...........
	52	53	3.50719E+000	-9.71522E-007	0.00000E+000	-3.40731E-006	0.00000E+000	4.48583E-004	-3.27672E+002	7	...........
	53	54	3.50715E+000	-9.71164E-007	0.00000E+000	-3.40602E-006	0.00000E+000	4.43800E-004	-3.27672E+002	7	...........
	54	55	3.50712E+000	-9.70956E-007	0.00000E+000	-3.40526E-006	0.00000E+000	4.47883E-004	-3.27672E+002	7	...........
	55	56	3.50710E+000	-9.71358E-007	0.00000E+000	-3.40665E-006	0.00000E+000	4.44100E-004	-3.27672E+002	7	...........
	56	57	3.50707E+000	-9.69719E-007	0.00000E+000	-3.40087E-006	0.00000E+000	4.46083E-004	-3.27672E+002	7	...........
	57	58	3.50704E+000	-9.70535E-007	0.00000E+000	-3.40371E-006	0.00000E+000	4.35750E-004	-3.27672E+002	7	...........
	58	59	3.50702E+000	-9.70885E-007	0.00000E+000	-3.40491E-006	0.00000E+000	4.43617E-004	-3.27672E+002	7	...........
	59	60	3.50699E+000	-9.70643E-007	0.00000E+000	-3.40403E-006	0.00000E+000	4.37517E-004	-3.27672E+002	7	...........
	60	61	3.50697E+000	-9.70102E-007	0.00000E+000	-3.40211E-006	0.00000E+000	4.44617E-004	-3.27672E+002	7	...........
	61	62	3.50694E+000	-9.69785E-007	0.00000E+000	-3.40098E-006	0.00000E+000	4.39333E-004	-3.27672E+002	7	...........
	62	63	3.50692E+000	-9.70412E-007	0.00000E+000	-3.40316E-006	0.00000E+000	4.39167E-004	-3.27672E+002	7	...........
	63	64	3.50690E+000	-9.70448E-007	0.00000E+000	-3.40326E-006	0.00000E+000	4.39717E-004	-3.27672E+002	7	...........
	64	65	3.50688E+000	-9.70255E-007	0.00000E+000	-3.40256E-006	0.00000E+000	4.36517E-004	-3.27672E+002	7	...........
	65	66	3.50686E+000	-9.70421E-007	0.00000E+000	-3.40313E-006	0.00000E+000	4.41750E-004	-3.27672E+002	7	...........
	66	67	3.50684E+000	-9.70375E-007	0.00000E+000	-3.40295E-006	0.00000E+000	4.39617E-004	-3.27672E+002	7	...........
	67	68	3.50681E+000	-9.70949E-007	0.00000E+000	-3.40493E-006	0.00000E+000	4.38833E-004	-3.27672E+002	7	...........
	68	69	3.50678E+000	-9.71223E-007	0.00000E+000	-3.40587E-006	0.00000E+000	4.39383E-004	-3.27672E+002	7	...........
	69	70	3.50676E+000	-9.70752E-007	0.00000E+000	-3.40420E-006	0.00000E+000	4.39967E-004	-3.27672E+002	7	...........
	70	71	3.50673E+000	-9.70407E-007	0.00000E+000	-3.40296E-006	0.00000E+000	4.37167E-004	-3.27672E+002	7	...........
	71	72	3.50671E+000	-9.69557E-007	0.00000E+000	-3.39996E-006	0.00000E+000	4.38383E-004	-3.27672E+002	7	...........
	72	73	3.50669E+000	-9.69206E-007	0.00000E+000	-3.39870E-006	0.00000E+000	4.40467E-004	-3.27672E+002	7	...........
	73	74	3.50666E+000	-9.69302E-007	0.00000E+000	-3.39901E-006	0.00000E+000	4.38800E-004	-3.27672E+002	7	...........
	74	75	3.50664E+000	-9.69587E-007	0.00000E+000	-3.40000E-006	0.00000E+000	4.38617E-004	-3.27672E+002	7	...........
	75	76	3.50662E+000	-9.69799E-007	0.00000E+000	-3.40071E-006	0.00000E+000	4.40383E-004	-3.27672E+002	7	...........
	76	77	3.50660E+000	-9.69363E-007	0.00000E+000	-3.39917E-006	0.00000E+000	4.39450E-004	-3.27672E+002	7	...........
	77	78	3.50657E+000	-9.69393E-007	0.00000E+000	-3.39924E-006	0.00000E+000	4.39250E-004	-3.27672E+002	7	...........
	78	79	3.50655E+000	-9.69744E-007	0.00000E+000	-3.40045E-006	0.00000E+000	4.41367E-004	-3.27672E+002	7	...........
	79	80	3.50653E+000	-9.68884E-007	0.00000E+000	-3.39743E-006	0.00000E+000	4.42400E-004	-3.27672E+002	7	...........
	80	81	3.50651E+000	-9.68868E-007	0.00000E+000	-3.39734E-006	0.00000E+000	4.43033E-004	-3.27672E+002	7	...........
	81	82	3.50648E+000	-9.68575E-007	0.00000E+000	-3.39629E-006	0.00000E+000	4.44000E-004	-3.27672E+002	7	...........
	82	83	3.50646E+000	-9.68772E-007	0.00000E+000	-3.39696E-006	0.00000E+000	4.44400E-004	-3.27672E+002	7	...........
	83	84	3.50643E+000	-9.69366E-007	0.00000E+000	-3.39901E-006	0.00000E+000	4.45967E-004	-3.27672E+002	7	...........
	84	85	3.50642E+000	-9.68870E-007	0.00000E+000	-3.39726E-006	0.00000E+000	4.43833E-004	-3.27672E+002	7	...........
	85	86	3.50639E+000	-9.69937E-007	0.00000E+000	-3.40098E-006	0.00000E+000	4.39483E-004	-3.27672E+002	7	...........
	86	87	3.50636E+000	-9.69795E-007	0.00000E+000	-3.40045E-006	0.00000E+000	4.42117E-004	-3.27672E+002	7	...........
	87	88	3.50636E+000	-9.70123E-007	0.00000E+000	-3.40160E-006	0.00000E+000	4.39233E-004	-3.27672E+002	7	...........
	88	89	3.50633E+000	-9.69132E-007	0.00000E+000	-3.39810E-006	0.00000E+000	4.42150E-004	-3.27672E+002	7	...........
	89	90	3.50630E+000	-9.68809E-007	0.00000E+000	-3.39694E-006	0.00000E+000	4.41933E-004	-3.27672E+002	7	...........
	90	91	3.50629E+000	-9.68749E-007	0.00000E+000	-3.39671E-006	0.00000E+000	4.41233E-004	-3.27672E+002	7	...........
	91	92	3.50626E+000	-9.68591E-007	0.00000E+000	-3.39613E-006	0.00000E+000	4.46333E-004	-3.27672E+002	7	...........
	92	93	3.50624E+000	-9.67827E-007	0.00000E+000	-3.39343E-006	0.00000E+000	4.41483E-004	-3.27672E+002	7	...........
	93	94	3.50622E+000	-9.69462E-007	0.00000E+000	-3.39915E-006	0.00000E+000	4.42783E-004	-3.27672E+002	7	...........
	94	95	3.50620E+000	-9.68685E-007	0.00000E+000	-3.39640E-006	0.00000E+000	4.42267E-004	-3.27672E+002	7	...........
	95	96	3.50617E+000	-9.68780E-007	0.00000E+000	-3.39671E-006	0.00000E+000	4.42583E-004	-3.27672E+002	7	...........
	96	97	3.50616E+000	-9.68204E-007	0.00000E+000	-3.39468E-006	0.00000E+000	4.41667E-004	-3.27672E+002	7	...........
	97	98	3.50613E+000	-9.68476E-007	0.00000E+000	-3.39560E-006	0.00000E+000	4.41167E-004	-3.27672E+002	7	...........
	98	99	3.50611E+000	-9.68021E-007	0.00000E+000	-3.39399E-006	0.00000E+000	4.41433E-004	-3.27672E+002	7	...........
	99	100	3.50609E+000	-9.68025E-007	0.00000E+000	-3.39398E-006	0.00000E+000	4.40400E-004	-3.27672E+002	7	...........
	100	101	3.50607E+000	-9.67877E-007	0.00000E+000	-3.39345E-006	0.00000E+000	4.41767E-004	-3.27672E+002	7	...........
	101	102	3.50606E+000	-9.68446E-007	0.00000E+000	-3.39543E-006	0.00000E+000	4.38467E-004	-3.27672E+002	7	...........
	102	103	3.50604E+000	-9.68190E-007	0.00000E+000	-3.39451E-006	0.00000E+000	4.43383E-004	-3.27672E+002	7	...........
	103	104	3.50601E+000	-9.68624E-007	0.00000E+000	-3.39600E-006	0.00000E+000	4.39550E-004	-3.27672E+002	7	...........
	104	105	3.50599E+000	-9.68598E-007	0.00000E+000	-3.39590E-006	0.00000E+000	4.40350E-004	-3.27672E+002	7	...........
	105	106	3.50597E+000	-9.68366E-007	0.00000E+000	-3.39507E-006	0.00000E+000	4.41400E-004	-3.27672E+002	7	...........
	106	107	3.50596E+000	-9.68728E-007	0.00000E+000	-3.39632E-006	0.00000E+000	4.42467E-004	-3.27672E+002	7	...........
	107	108	3.50595E+000	-9.68421E-007	0.00000E+000	-3.39523E-006	0.00000E+000	4.42467E-004	-3.27672E+002	7	...........
	108	109	3.50593E+000	-9.67203E-007	0.00000E+000	-3.39094E-006	0.00000E+000	4.40617E-004	-3.27672E+002	7	...........
	109	110	3.50591E+000	-9.66702E-007	0.00000E+000	-3.38917E-006	0.00000E+000	4.43817E-004	-3.27672E+002	7	...........
	110	111	3.50589E+000	-9.67714E-007	0.00000E+000	-3.39270E-006	0.00000E+000	4.39383E-004	-3.27672E+002	7	...........
	111	112	3.50587E+000	-9.68788E-007	0.00000E+000	-3.39645E-006	0.00000E+000	4.40300E-004	-3.27672E+002	7	...........
	112	113	3.50586E+000	-9.67982E-007	0.00000E+000	-3.39361E-006	0.00000E+000	4.39550E-004	-3.27672E+002	7	...........
	113	114	3.50584E+000	-9.68271E-007	0.00000E+000	-3.39460E-006	0.00000E+000	4.41867E-004	-3.27672E+002	7	...........
	114	115	3.50582E+000	-9.68204E-007	0.00000E+000	-3.39435E-006	0.00000E+000	4.38100E-004	-3.27672E+002	7	...........
	115	116	3.50581E+000	-9.68055E-007	0.00000E+000	-3.39382E-006	0.00000E+000	4.40233E-004	-3.27672E+002	7	...........
	116	117	3.50579E+000	-9.67979E-007	0.00000E+000	-3.39354E-006	0.00000E+000	4.39400E-004	-3.27672E+002	7	...........
	117	118	3.50578E+000	-9.68193E-007	0.00000E+000	-3.39428E-006	0.00000E+000	4.39833E-004	-3.27672E+002	7	...........
	118	119	3.50577E+000	-9.67692E-007	0.00000E+000	-3.39250E-006	0.00000E+000	4.41917E-004	-3.27672E+002	7	...........
	119	120	3.50575E+000	-9.68025E-007	0.00000E+000	-3.39366E-006	0.00000E+000	4.41283E-004	-3.27672E+002	7	...........
	120	121	3.50573E+000	-9.67757E-007	0.00000E+000	-3.39270E-006	0.00000E+000	4.37283E-004	-3.27672E+002	7	...........
	121	122	3.50572E+000	-9.68248E-007	0.00000E+000	-3.39441E-006	0.00000E+000	4.40450E-004	-3.27672E+002	7	...........
	122	123	3.50570E+000	-9.67504E-007	0.00000E+000	-3.39178E-006	0.00000E+000	4.39300E-004	-3.27672E+002	7	...........
	123	124	3.50568E+000	-9.67514E-007	0.00000E+000	-3.39179E-006	0.00000E+000	4.40917E-004	-3.27672E+002	7	...........
	124	125	3.50567E+000	-9.67347E-007	0.00000E+000	-3.39119E-006	0.00000E+000	4.36217E-004	-3.27672E+002	7	...........
	125	126	3.50566E+000	-9.67187E-007	0.00000E+000	-3.39063E-006	0.00000E+000	4.39233E-004	-3.27672E+002	7	...........
	126	127	3.50563E+000	-9.67197E-007	0.00000E+000	-3.39064E-006	0.00000E+000	4.37383E-004	-3.27672E+002	7	...........
	127	128	3.50562E+000	-9.66798E-007	0.00000E+000	-3.38923E-006	0.00000E+000	4.39767E-004	-3.27672E+002	7	...........
	128	129	3.50560E+000	-9.67054E-007	0.00000E+000	-3.39010E-006	0.00000E+000	4.37733E-004	-3.27672E+002	7	...........
	129	130	3.50558E+000	-9.67666E-007	0.00000E+000	-3.39223E-006	0.00000E+000	4.40533E-004	-3.27672E+002	7	...........
	130	131	3.50557E+000	-9.67769E-007	0.00000E+000	-3.39258E-006	0.00000E+000	4.37000E-004	-3.27672E+002	7	...........
	131	132	3.50555E+000	-9.67960E-007	0.00000E+000	-3.39324E-006	0.00000E+000	4.39517E-004	-3.27672E+002	7	...........
	132	133	3.50554E+000	-9.67204E-007	0.00000E+000	-3.39057E-006	0.00000E+000	4.39767E-004	-3.27672E+002	7	...........
	133	134	3.50553E+000	-9.67333E-007	0.00000E+000	-3.39101E-006	0.00000E+000	4.37500E-004	-3.27672E+002	7	...........
	134	135	3.50551E+000	-9.66895E-007	0.00000E+000	-3.38946E-006	0.00000E+000	4.37617E-004	-3.27672E+002	7	...........
	135	136	3.50550E+000	-9.66780E-007	0.00000E+000	-3.38905E-006	0.00000E+000	4.35983E-004	-3.27672E+002	7	...........
	136	137	3.50548E+000	-9.66861E-007	0.00000E+000	-3.38931E-006	0.00000E+000	4.39367E-004	-3.27672E+002	7	...........
	137	138	3.50546E+000	-9.67206E-007	0.00000E+000	-3.39050E-006	0.00000E+000	4.39283E-004	-3.27672E+002	7	...........
	138	139	3.50545E+000	-9.67238E-007	0.00000E+000	-3.39060E-006	0.00000E+000	4.39817E-004	-3.27672E+002	7	...........
	139	140	3.50543E+000	-9.67609E-007	0.00000E+000	-3.39188E-006	0.00000E+000	4.39317E-004	-3.27672E+002	7	...........
	140	141	3.50541E+000	-9.66980E-007	0.00000E+000	-3.38966E-006	0.00000E+000	4.38167E-004	-3.27672E+002	7	...........
	141	142	3.50539E+000	-9.66780E-007	0.00000E+000	-3.38894E-006	0.00000E+000	4.37100E-004	-3.27672E+002	7	...........
	142	143	3.50538E+000	-9.67016E-007	0.00000E+000	-3.38976E-006	0.00000E+000	4.38800E-004	-3.27672E+002	7	...........
	143	144	3.50537E+000	-9.67168E-007	0.00000E+000	-3.39028E-006	0.00000E+000	4.40483E-004	-3.27672E+002	7	...........
	144	145	3.50536E+000	-9.66870E-007	0.00000E+000	-3.38923E-006	0.00000E+000	4.40750E-004	-3.27672E+002	7	...........
	145	146	3.50534E+000	-9.66704E-007	0.00000E+000	-3.38863E-006	0.00000E+000	4.39617E-004	-3.27672E+002	7	...........
	146	147	3.50532E+000	-9.66705E-007	0.00000E+000	-3.38861E-006	0.00000E+000	4.39450E-004	-3.27672E+002	7	...........
	147	148	3.50531E+000	-9.67496E-007	0.00000E+000	-3.39137E-006	0.00000E+000	4.36350E-004	-3.27672E+002	7	...........
	148	149	3.50529E+000	-9.66825E-007	0.00000E+000	-3.38900E-006	0.00000E+000	4.38267E-004	-3.27672E+002	7	...........
	149	150	3.50528E+000	-9.67431E-007	0.00000E+000	-3.39112E-006	0.00000E+000	4.40983E-004	-3.27672E+002	7	...........
	150	151	3.50526E+000	-9.67164E-007	0.00000E+000	-3.39016E-006	0.00000E+000	4.40767E-004	-3.27672E+002	7	...........
	151	152	3.50524E+000	-9.65856E-007	0.00000E+000	-3.38556E-006	0.00000E+000	4.40217E-004	-3.27672E+002	7	...........
	152	153	3.50523E+000	-9.66702E-007	0.00000E+000	-3.38851E-006	0.00000E+000	4.40250E-004	-3.27672E+002	7	...........
	153	154	3.50522E+000	-9.66142E-007	0.00000E+000	-3.38654E-006	0.00000E+000	4.42133E-004	-3.27672E+002	7	...........
	154	155	3.50521E+000	-9.67053E-007	0.00000E+000	-3.38972E-006	0.00000E+000	4.41433E-004	-3.27672E+002	7	...........
	155	156	3.50519E+000	-9.66451E-007	0.00000E+000	-3.38760E-006	0.00000E+000	4.38033E-004	-3.27672E+002	7	...........
	156	157	3.50517E+000	-9.66762E-007	0.00000E+000	-3.38867E-006	0.00000E+000	4.39267E-004	-3.27672E+002	7	...........
	157	158	3.50516E+000	-9.66748E-007	0.00000E+000	-3.38861E-006	0.00000E+000	4.37300E-004	-3.27672E+002	7	...........
	158	159	3.50515E+000	-9.66652E-007	0.00000E+000	-3.38826E-006	0.00000E+000	4.41100E-004	-3.27672E+002	7	...........
	159	160	3.50513E+000	-9.67219E-007	0.00000E+000	-3.39022E-006	0.00000E+000	4.37967E-004	-3.27672E+002	7	...........
	160	161	3.50512E+000	-9.66438E-007	0.00000E+000	-3.38748E-006	0.00000E+000	4.38933E-004	-3.27672E+002	7	...........
	161	162	3.50511E+000	-9.65830E-007	0.00000E+000	-3.38534E-006	0.00000E+000	4.39200E-004	-3.27672E+002	7	...........
	162	163	3.50509E+000	-9.65846E-007	0.00000E+000	-3.38537E-006	0.00000E+000	4.41700E-004	-3.27672E+002	7	...........
	163	164	3.50507E+000	-9.64967E-007	0.00000E+000	-3.38228E-006	0.00000E+000	4.41717E-004	-3.27672E+002	7	...........
	164	165	3.50506E+000	-9.65877E-007	0.00000E+000	-3.38546E-006	0.00000E+000	4.41633E-004	-3.27672E+002	7	...........
	165	166	3.50505E+000	-9.65964E-007	0.00000E+000	-3.38575E-006	0.00000E+000	4.37350E-004	-3.27672E+002	7	...........
	166	167	3.50503E+000	-9.65893E-007	0.00000E+000	-3.38549E-006	0.00000E+000	4.38850E-004	-3.27672E+002	7	...........
	167	168	3.50502E+000	-9.66786E-007	0.00000E+000	-3.38860E-006	0.00000E+000	4.40500E-004	-3.27672E+002	7	...........
	168	169	3.50500E+000	-9.66377E-007	0.00000E+000	-3.38715E-006	0.00000E+000	4.38717E-004	-3.27672E+002	7	...........
	169	170	3.50501E+000	-9.65140E-007	0.00000E+000	-3.38282E-006	0.00000E+000	4.43200E-004	-3.27672E+002	7	...........
	170	171	3.50498E+000	-9.65649E-007	0.00000E+000	-3.38459E-006	0.00000E+000	4.37367E-004	-3.27672E+002	7	...........
	171	172	3.50497E+000	-9.65807E-007	0.00000E+000	-3.38512E-006	0.00000E+000	4.41667E-004	-3.27672E+002	7	...........
	172	173	3.50497E+000	-9.65953E-007	0.00000E+000	-3.38564E-006	0.00000E+000	4.42467E-004	-3.27672E+002	7	...........
	173	174	3.50496E+000	-9.65968E-007	0.00000E+000	-3.38568E-006	0.00000E+000	4.43750E-004	-3.27672E+002	7	...........
	174	175	3.50494E+000	-9.65496E-007	0.00000E+000	-3.38400E-006	0.00000E+000	4.43867E-004	-3.27672E+002	7	...........
	175	176	3.50492E+000	-9.66626E-007	0.00000E+000	-3.38795E-006	0.00000E+000	4.44583E-004	-3.27672E+002	7	...........
	176	177	3.50492E+000	-9.66304E-007	0.00000E+000	-3.38682E-006	0.00000E+000	4.42550E-004	-3.27672E+002	7	...........
	177	178	3.50490E+000	-9.66229E-007	0.00000E+000	-3.38654E-006	0.00000E+000	4.41567E-004	-3.27672E+002	7	...........
	178	179	3.50489E+000	-9.65840E-007	0.00000E+000	-3.38516E-006	0.00000E+000	4.41983E-004	-3.27672E+002	7	...........
	179	180	3.50488E+000	-9.65758E-007	0.00000E+000	-3.38486E-006	0.00000E+000	4.44500E-004	-3.27672E+002	7	...........
	180	181	3.50485E+000	-9.65693E-007	0.00000E+000	-3.38461E-006	0.00000E+000	4.44817E-004	-3.27672E+002	7	...........
	181	182	3.50484E+000	-9.64666E-007	0.00000E+000	-3.38100E-006	0.00000E+000	4.44983E-004	-3.27672E+002	7	...........
	182	183	3.50483E+000	-9.64979E-007	0.00000E+000	-3.38209E-006	0.00000E+000	4.44917E-004	-3.27672E+002	7	...........
	183	184	3.50482E+000	-9.65678E-007	0.00000E+000	-3.38453E-006	0.00000E+000	4.47150E-004	-3.27672E+002	7	...........
	184	185	3.50482E+000	-9.65177E-007	0.00000E+000	-3.38277E-006	0.00000E+000	4.44017E-004	-3.27672E+002	7	...........
	185	186	3.50480E+000	-9.65669E-007	0.00000E+000	-3.38448E-006	0.00000E+000	4.45583E-004	-3.27672E+002	7	...........
	186	187	3.50478E+000	-9.65380E-007	0.00000E+000	-3.38344E-006	0.00000E+000	4.45950E-004	-3.27672E+002	7	...........
	187	188	3.50477E+000	-9.65381E-007	0.00000E+000	-3.38344E-006	0.00000E+000	4.46767E-004	-3.27672E+002	7	...........
	188	189	3.50476E+000	-9.65444E-007	0.00000E+000	-3.38365E-006	0.00000E+000	4.43267E-004	-3.27672E+002	7	...........
	189	190	3.50475E+000	-9.65252E-007	0.00000E+000	-3.38297E-006	0.00000E+000	4.47150E-004	-3.27672E+002	7	...........
	190	191	3.50474E+000	-9.65140E-007	0.00000E+000	-3.38257E-006	0.00000E+000	4.49317E-004	-3.27672E+002	7	...........
	191	192	3.50472E+000	-9.66388E-007	0.00000E+000	-3.38692E-006	0.00000E+000	4.43150E-004	-3.27672E+002	7	...........
	192	193	3.50471E+000	-9.65505E-007	0.00000E+000	-3.38381E-006	0.00000E+000	4.44017E-004	-3.27672E+002	7	...........
	193	194	3.50471E+000	-9.65451E-007	0.00000E+000	-3.38362E-006	0.00000E+000	4.42617E-004	-3.27672E+002	7	...........
	194	195	3.50469E+000	-9.65377E-007	0.00000E+000	-3.38335E-006	0.00000E+000	4.49067E-004	-3.27672E+002	7	...........
	195	196	3.50468E+000	-9.64870E-007	0.00000E+000	-3.38156E-006	0.00000E+000	4.47767E-004	-3.27672E+002	7	...........
	196	197	3.50468E+000	-9.65282E-007	0.00000E+000	-3.38300E-006	0.00000E+000	4.49750E-004	-3.27672E+002	7	...........
	197	198	3.50466E+000	-9.65005E-007	0.00000E+000	-3.38202E-006	0.00000E+000	4.52517E-004	-3.27672E+002	7	...........
	198	199	3.50465E+000	-9.64667E-007	0.00000E+000	-3.38082E-006	0.00000E+000	4.47317E-004	-3.27672E+002	7	...........
	199	200	3.50464E+000	-9.64229E-007	0.00000E+000	-3.37928E-006	0.00000E+000	4.50067E-004	-3.27672E+002	7	...........
	200	201	3.50463E+000	-9.63536E-007	0.00000E+000	-3.37683E-006	0.00000E+000	4.46550E-004	-3.27672E+002	7	...........
	201	202	3.50462E+000	-9.64585E-007	0.00000E+000	-3.38050E-006	0.00000E+000	4.48067E-004	-3.27672E+002	7	...........
	202	203	3.50460E+000	-9.64979E-007	0.00000E+000	-3.38187E-006	0.00000E+000	4.47017E-004	-3.27672E+002	7	...........
	203	204	3.50460E+000	-9.64705E-007	0.00000E+000	-3.38091E-006	0.00000E+000	4.47500E-004	-3.27672E+002	7	...........
	204	205	3.50460E+000	-9.64537E-007	0.00000E+000	-3.38032E-006	0.00000E+000	4.44633E-004	-3.27672E+002	7	...........
	205	206	3.50458E+000	-9.64963E-007	0.00000E+000	-3.38179E-006	0.00000E+000	4.48417E-004	-3.27672E+002	7	...........
	206	207	3.50457E+000	-9.64974E-007	0.00000E+000	-3.38182E-006	0.00000E+000	4.45317E-004	-3.27672E+002	7	...........
	207	208	3.50457E+000	-9.65199E-007	0.00000E+000	-3.38261E-006	0.00000E+000	4.49750E-004	-3.27672E+002	7	...........
	208	209	3.50455E+000	-9.65091E-007	0.00000E+000	-3.38221E-006	0.00000E+000	4.45933E-004	-3.27672E+002	7	...........
	209	210	3.50453E+000	-9.64693E-007	0.00000E+000	-3.38080E-006	0.00000E+000	4.47083E-004	-3.27672E+002	7	...........
	210	211	3.50452E+000	-9.64764E-007	0.00000E+000	-3.38104E-006	0.00000E+000	4.46950E-004	-3.27672E+002	7	...........
	211	212	3.50452E+000	-9.64583E-007	0.00000E+000	-3.38040E-006	0.00000E+000	4.47533E-004	-3.27672E+002	7	...........
	212	213	3.50451E+000	-9.64292E-007	0.00000E+000	-3.37937E-006	0.00000E+000	4.49167E-004	-3.27672E+002	7	...........
	213	214	3.50450E+000	-9.65045E-007	0.00000E+000	-3.38200E-006	0.00000E+000	4.48600E-004	-3.27672E+002	7	...........
	214	215	3.50449E+000	-9.64459E-007	0.00000E+000	-3.37994E-006	0.00000E+000	4.46117E-004	-3.27672E+002	7	...........
	215	216	3.50448E+000	-9.63990E-007	0.00000E+000	-3.37829E-006	0.00000E+000	4.48517E-004	-3.27672E+002	7	...........
	216	217	3.50448E+000	-9.64861E-007	0.00000E+000	-3.38134E-006	0.00000E+000	4.48033E-004	-3.27672E+002	7	...........
	217	218	3.50446E+000	-9.64987E-007	0.00000E+000	-3.38176E-006	0.00000E+000	4.47333E-004	-3.27672E+002	7	...........
	218	219	3.50445E+000	-9.64836E-007	0.00000E+000	-3.38122E-006	0.00000E+000	4.47867E-004	-3.27672E+002	7	...........
	219	220	3.50445E+000	-9.64914E-007	0.00000E+000	-3.38149E-006	0.00000E+000	4.46683E-004	-3.27672E+002	7	...........
	220	221	3.50443E+000	-9.64748E-007	0.00000E+000	-3.38090E-006	0.00000E+000	4.52433E-004	-3.27672E+002	7	...........
	221	222	3.50443E+000	-9.65307E-007	0.00000E+000	-3.38285E-006	0.00000E+000	4.47900E-004	-3.27672E+002	7	...........
	222	223	3.50442E+000	-9.64709E-007	0.00000E+000	-3.38075E-006	0.00000E+000	4.50517E-004	-3.27672E+002	7	...........
	223	224	3.50440E+000	-9.64528E-007	0.00000E+000	-3.38010E-006	0.00000E+000	4.48983E-004	-3.27672E+002	7	...........
	224	225	3.50439E+000	-9.64630E-007	0.00000E+000	-3.38044E-006	0.00000E+000	4.45850E-004	-3.27672E+002	7	...........
	225	226	3.50438E+000	-9.64425E-007	0.00000E+000	-3.37971E-006	0.00000E+000	4.46933E-004	-3.27672E+002	7	...........
	226	227	3.50438E+000	-9.64988E-007	0.00000E+000	-3.38168E-006	0.00000E+000	4.49900E-004	-3.27672E+002	7	...........
	227	228	3.50437E+000	-9.64475E-007	0.00000E+000	-3.37988E-006	0.00000E+000	4.50117E-004	-3.27672E+002	7	...........
	228	229	3.50436E+000	-9.64598E-007	0.00000E+000	-3.38030E-006	0.00000E+000	4.46083E-004	-3.27672E+002	7	...........
	229	230	3.50436E+000	-9.65407E-007	0.00000E+000	-3.38313E-006	0.00000E+000	4.50617E-004	-3.27672E+002	7	...........
	230	231	3.50434E+000	-9.65399E-007	0.00000E+000	-3.38309E-006	0.00000E+000	4.45800E-004	-3.27672E+002	7	...........
	231	232	3.50433E+000	-9.64826E-007	0.00000E+000	-3.38107E-006	0.00000E+000	4.49833E-004	-3.27672E+002	7	...........
	232	233	3.50432E+000	-9.64750E-007	0.00000E+000	-3.38079E-006	0.00000E+000	4.52200E-004	-3.27672E+002	7	...........
	233	234	3.50432E+000	-9.64411E-007	0.00000E+000	-3.37960E-006	0.00000E+000	4.46617E-004	-3.27672E+002	7	...........
	234	235	3.50431E+000	-9.64059E-007	0.00000E+000	-3.37836E-006	0.00000E+000	4.48567E-004	-3.27672E+002	7	...........
	235	236	3.50430E+000	-9.64326E-007	0.00000E+000	-3.37929E-006	0.00000E+000	4.48383E-004	-3.27672E+002	7	...........
	236	237	3.50429E+000	-9.63131E-007	0.00000E+000	-3.37509E-006	0.00000E+000	4.48883E-004	-3.27672E+002	7	...........
	237	238	3.50428E+000	-9.64045E-007	0.00000E+000	-3.37828E-006	0.00000E+000	4.48783E-004	-3.27672E+002	7	...........
	238	239	3.50428E+000	-9.64385E-007	0.00000E+000	-3.37948E-006	0.00000E+000	4.51500E-004	-3.27672E+002	7	...........
	239	240	3.50427E+000	-9.64747E-007	0.00000E+000	-3.38073E-006	0.00000E+000	4.46133E-004	-3.27672E+002	7	...........
	240	241	3.50426E+000	-9.64235E-007	0.00000E+000	-3.37893E-006	0.00000E+000	4.45917E-004	-3.27672E+002	7	...........
	241	242	3.50425E+000	-9.64110E-007	0.00000E+000	-3.37848E-006	0.00000E+000	4.44467E-004	-3.27672E+002	7	...........
	242	243	3.50424E+000	-9.64966E-007	0.00000E+000	-3.38148E-006	0.00000E+000	4.51517E-004	-3.27672E+002	7	...........
	243	244	3.50423E+000	-9.63940E-007	0.00000E+000	-3.37787E-006	0.00000E+000	4.43383E-004	-3.27672E+002	7	...........
	244	245	3.50422E+000	-9.64385E-007	0.00000E+000	-3.37942E-006	0.00000E+000	4.44383E-004	-3.27672E+002	7	...........
	245	246	3.50421E+000	-9.64305E-007	0.00000E+000	-3.37913E-006	0.00000E+000	4.46300E-004	-3.27672E+002	7	...........
	246	247	3.50421E+000	-9.64791E-007	0.00000E+000	-3.38083E-006	0.00000E+000	4.46833E-004	-3.27672E+002	7	...........
	247	248	3.50420E+000	-9.64860E-007	0.00000E+000	-3.38106E-006	0.00000E+000	4.45133E-004	-3.27672E+002	7	...........
	248	249	3.50419E+000	-9.64656E-007	0.00000E+000	-3.38034E-006	0.00000E+000	4.43467E-004	-3.27672E+002	7	...........
	249	250	3.50418E+000	-9.64452E-007	0.00000E+000	-3.37961E-006	0.00000E+000	4.48067E-004	-3.27672E+002	7	...........
	250	251	3.50418E+000	-9.64301E-007	0.00000E+000	-3.37908E-006	0.00000E+000	4.47717E-004	-3.27672E+002	7	...........
	251	252	3.50417E+000	-9.64602E-007	0.00000E+000	-3.38012E-006	0.00000E+000	4.48550E-004	-3.27672E+002	7	...........
	252	253	3.50416E+000	-9.64725E-007	0.00000E+000	-3.38055E-006	0.00000E+000	4.45733E-004	-3.27672E+002	7	...........
	253	254	3.50415E+000	-9.63890E-007	0.00000E+000	-3.37762E-006	0.00000E+000	4.43450E-004	-3.27672E+002	7	...........
	254	255	3.50415E+000	-9.63474E-007	0.00000E+000	-3.37616E-006	0.00000E+000	4.45433E-004	-3.27672E+002	7	...........
	255	256	3.50414E+000	-9.64583E-007	0.00000E+000	-3.38003E-006	0.00000E+000	4.44600E-004	-3.27672E+002	7	...........
	256	257	3.50413E+000	-9.64677E-007	0.00000E+000	-3.38035E-006	0.00000E+000	4.48033E-004	-3.27672E+002	7	...........
	257	258	3.50413E+000	-9.64596E-007	0.00000E+000	-3.38007E-006	0.00000E+000	4.46533E-004	-3.27672E+002	7	...........
	258	259	3.50412E+000	-9.64497E-007	0.00000E+000	-3.37971E-006	0.00000E+000	4.49700E-004	-3.27672E+002	7	...........
	259	260	3.50411E+000	-9.63843E-007	0.00000E+000	-3.37741E-006	0.00000E+000	4.43400E-004	-3.27672E+002	7	...........
	260	261	3.50411E+000	-9.64041E-007	0.00000E+000	-3.37810E-006	0.00000E+000	4.48583E-004	-3.27672E+002	7	...........
	261	262	3.50410E+000	-9.64302E-007	0.00000E+000	-3.37901E-006	0.00000E+000	4.47300E-004	-3.27672E+002	7	...........
	262	263	3.50411E+000	-9.63992E-007	0.00000E+000	-3.37793E-006	0.00000E+000	4.47417E-004	-3.27672E+002	7	...........
	263	264	3.50409E+000	-9.63686E-007	0.00000E+000	-3.37684E-006	0.00000E+000	4.45083E-004	-3.27672E+002	7	...........
	264	265	3.50409E+000	-9.63519E-007	0.00000E+000	-3.37625E-006	0.00000E+000	4.44383E-004	-3.27672E+002	7	...........
	265	266	3.50408E+000	-9.63882E-007	0.00000E+000	-3.37752E-006	0.00000E+000	4.49183E-004	-3.27672E+002	7	...........
	266	267	3.50407E+000	-9.64652E-007	0.00000E+000	-3.38021E-006	0.00000E+000	4.49817E-004	-3.27672E+002	7	...........
	267	268	3.50406E+000	-9.63945E-007	0.00000E+000	-3.37772E-006	0.00000E+000	4.46533E-004	-3.27672E+002	7	...........
	268	269	3.50405E+000	-9.64181E-007	0.00000E+000	-3.37853E-006	0.00000E+000	4.45617E-004	-3.27672E+002	7	...........
	269	270	3.50403E+000	-9.63896E-007	0.00000E+000	-3.37752E-006	0.00000E+000	4.46733E-004	-3.27672E+002	7	...........
	270	271	3.50403E+000	-9.63474E-007	0.00000E+000	-3.37604E-006	0.00000E+000	4.47267E-004	-3.27672E+002	7	...........
	271	272	3.50402E+000	-9.63713E-007	0.00000E+000	-3.37687E-006	0.00000E+000	4.43817E-004	-3.27672E+002	7	...........
	272	273	3.50402E+000	-9.63024E-007	0.00000E+000	-3.37445E-006	0.00000E+000	4.44367E-004	-3.27672E+002	7	...........
	273	274	3.50400E+000	-9.63399E-007	0.00000E+000	-3.37576E-006	0.00000E+000	4.40617E-004	-3.27672E+002	7	...........
	274	275	3.50400E+000	-9.64343E-007	0.00000E+000	-3.37906E-006	0.00000E+000	4.44183E-004	-3.27672E+002	7	...........
	275	276	3.50399E+000	-9.64605E-007	0.00000E+000	-3.37996E-006	0.00000E+000	4.44950E-004	-3.27672E+002	7	...........
	276	277	3.50399E+000	-9.64173E-007	0.00000E+000	-3.37845E-006	0.00000E+000	4.44417E-004	-3.27672E+002	7	...........
	277	278	3.50398E+000	-9.64544E-007	0.00000E+000	-3.37975E-006	0.00000E+000	4.41700E-004	-3.27672E+002	7	...........
	278	279	3.50398E+000	-9.64019E-007	0.00000E+000	-3.37790E-006	0.00000E+000	4.47617E-004	-3.27672E+002	7	...........
	279	280	3.50397E+000	-9.64481E-007	0.00000E+000	-3.37952E-006	0.00000E+000	4.46117E-004	-3.27672E+002	7	...........
	280	281	3.50396E+000	-9.63984E-007	0.00000E+000	-3.37777E-006	0.00000E+000	4.45833E-004	-3.27672E+002	7	...........
	281	282	3.50395E+000	-9.64135E-007	0.00000E+000	-3.37829E-006	0.00000E+000	4.46250E-004	-3.27672E+002	7	...........
	282	283	3.50395E+000	-9.63859E-007	0.00000E+000	-3.37731E-006	0.00000E+000	4.47117E-004	-3.27672E+002	7	...........
	283	284	3.50394E+000	-9.63924E-007	0.00000E+000	-3.37753E-006	0.00000E+000	4.44283E-004	-3.27672E+002	7	...........
	284	285	3.50393E+000	-9.63923E-007	0.00000E+000	-3.37752E-006	0.00000E+000	4.44250E-004	-3.27672E+002	7	...........
	285	286	3.50392E+000	-9.63579E-007	0.00000E+000	-3.37630E-006	0.00000E+000	4.47233E-004	-3.27672E+002	7	...........
	286	287	3.50392E+000	-9.63760E-007	0.00000E+000	-3.37694E-006	0.00000E+000	4.45567E-004	-3.27672E+002	7	...........
	287	288	3.50391E+000	-9.64115E-007	0.00000E+000	-3.37817E-006	0.00000E+000	4.43383E-004	-3.27672E+002	7	...........
	288	289	3.50390E+000	-9.63417E-007	0.00000E+000	-3.37571E-006	0.00000E+000	4.44400E-004	-3.27672E+002	7	...........
	289	290	3.50389E+000	-9.63202E-007	0.00000E+000	-3.37495E-006	0.00000E+000	4.40533E-004	-3.27672E+002	7	...........
	290	291	3.50389E+000	-9.62439E-007	0.00000E+000	-3.37228E-006	0.00000E+000	4.41283E-004	-3.27672E+002	7	...........
	291	292	3.50388E+000	-9.63441E-007	0.00000E+000	-3.37578E-006	0.00000E+000	4.41133E-004	-3.27672E+002	7	...........
	292	293	3.50387E+000	-9.64424E-007	0.00000E+000	-3.37922E-006	0.00000E+000	4.43350E-004	-3.27672E+002	7	...........
	293	294	3.50387E+000	-9.63430E-007	0.00000E+000	-3.37573E-006	0.00000E+000	4.42000E-004	-3.27672E+002	7	...........
	294	295	3.50386E+000	-9.63074E-007	0.00000E+000	-3.37447E-006	0.00000E+000	4.42967E-004	-3.27672E+002	7	...........
	295	296	3.50385E+000	-9.64065E-007	0.00000E+000	-3.37794E-006	0.00000E+000	4.41933E-004	-3.27672E+002	7	...........
	296	297	3.50384E+000	-9.62933E-007	0.00000E+000	-3.37397E-006	0.00000E+000	4.44100E-004	-3.27672E+002	7	...........
	297	298	3.50384E+000	-9.63500E-007	0.00000E+000	-3.37595E-006	0.00000E+000	4.42350E-004	-3.27672E+002	7	...........
	298	299	3.50383E+000	-9.63804E-007	0.00000E+000	-3.37701E-006	0.00000E+000	4.44450E-004	-3.27672E+002	7	...........
	299	300	3.50382E+000	-9.64649E-007	0.00000E+000	-3.37996E-006	0.00000E+000	4.39750E-004	-3.27672E+002	7	...........
	300	301	3.50382E+000	-9.63485E-007	0.00000E+000	-3.37588E-006	0.00000E+000	4.40367E-004	-3.27672E+002	7	...........
	301	302	3.50381E+000	-9.63936E-007	0.00000E+000	-3.37745E-006	0.00000E+000	4.43400E-004	-3.27672E+002	7	...........
	302	303	3.50381E+000	-9.64030E-007	0.00000E+000	-3.37778E-006	0.00000E+000	4.45700E-004	-3.27672E+002	7	...........
	303	304	3.50379E+000	-9.64360E-007	0.00000E+000	-3.37892E-006	0.00000E+000	4.42383E-004	-3.27672E+002	7	...........
	304	305	3.50380E+000	-9.64463E-007	0.00000E+000	-3.37928E-006	0.00000E+000	4.42850E-004	-3.27672E+002	7	...........
	305	306	3.50379E+000	-9.64541E-007	0.00000E+000	-3.37954E-006	0.00000E+000	4.44300E-004	-3.27672E+002	7	...........
	306	307	3.50378E+000	-9.64172E-007	0.00000E+000	-3.37825E-006	0.00000E+000	4.44917E-004	-3.27672E+002	7	...........
	307	308	3.50377E+000	-9.62876E-007	0.00000E+000	-3.37370E-006	0.00000E+000	4.42817E-004	-3.27672E+002	7	...........
	308	309	3.50376E+000	-9.62774E-007	0.00000E+000	-3.37333E-006	0.00000E+000	4.42650E-004	-3.27672E+002	7	...........
	309	310	3.50376E+000	-9.63634E-007	0.00000E+000	-3.37634E-006	0.00000E+000	4.45300E-004	-3.27672E+002	7	...........
	310	311	3.50375E+000	-9.63333E-007	0.00000E+000	-3.37528E-006	0.00000E+000	4.47150E-004	-3.27672E+002	7	...........
	311	312	3.50374E+000	-9.63959E-007	0.00000E+000	-3.37746E-006	0.00000E+000	4.48250E-004	-3.27672E+002	7	...........
	312	313	3.50374E+000	-9.63380E-007	0.00000E+000	-3.37543E-006	0.00000E+000	4.41833E-004	-3.27672E+002	7	...........
	313	314	3.50373E+000	-9.63514E-007	0.00000E+000	-3.37589E-006	0.00000E+000	4.40200E-004	-3.27672E+002	7	...........
	314	315	3.50373E+000	-9.63640E-007	0.00000E+000	-3.37633E-006	0.00000E+000	4.45150E-004	-3.27672E+002	7	...........
	315	316	3.50373E+000	-9.63775E-007	0.00000E+000	-3.37680E-006	0.00000E+000	4.40750E-004	-3.27672E+002	7	...........
	316	317	3.50372E+000	-9.63919E-007	0.00000E+000	-3.37730E-006	0.00000E+000	4.41450E-004	-3.27672E+002	7	...........
	317	318	3.50370E+000	-9.64670E-007	0.00000E+000	-3.37992E-006	0.00000E+000	4.42467E-004	-3.27672E+002	7	...........
	318	319	3.50370E+000	-9.64040E-007	0.00000E+000	-3.37770E-006	0.00000E+000	4.42633E-004	-3.27672E+002	7	...........
	319	320	3.50369E+000	-9.63591E-007	0.00000E+000	-3.37612E-006	0.00000E+000	4.46733E-004	-3.27672E+002	7	...........
	320	321	3.50368E+000	-9.63430E-007	0.00000E+000	-3.37556E-006	0.00000E+000	4.41400E-004	-3.27672E+002	7	...........
	321	322	3.50368E+000	-9.63807E-007	0.00000E+000	-3.37687E-006	0.00000E+000	4.40433E-004	-3.27672E+002	7	...........
	322	323	3.50368E+000	-9.63621E-007	0.00000E+000	-3.37622E-006	0.00000E+000	4.38583E-004	-3.27672E+002	7	...........
	323	324	3.50367E+000	-9.63470E-007	0.00000E+000	-3.37568E-006	0.00000E+000	4.39633E-004	-3.27672E+002	7	...........
	324	325	3.50367E+000	-9.63595E-007	0.00000E+000	-3.37612E-006	0.00000E+000	4.41017E-004	-3.27672E+002	7	...........
	325	326	3.50366E+000	-9.62804E-007	0.00000E+000	-3.37334E-006	0.00000E+000	4.42717E-004	-3.27672E+002	7	...........
	326	327	3.50366E+000	-9.62759E-007	0.00000E+000	-3.37318E-006	0.00000E+000	4.42367E-004	-3.27672E+002	7	...........
	327	328	3.50365E+000	-9.63247E-007	0.00000E+000	-3.37488E-006	0.00000E+000	4.41583E-004	-3.27672E+002	7	...........
	328	329	3.50364E+000	-9.63933E-007	0.00000E+000	-3.37728E-006	0.00000E+000	4.42967E-004	-3.27672E+002	7	...........
	329	330	3.50363E+000	-9.63038E-007	0.00000E+000	-3.37413E-006	0.00000E+000	4.44050E-004	-3.27672E+002	7	...........
	330	331	3.50363E+000	-9.63466E-007	0.00000E+000	-3.37563E-006	0.00000E+000	4.40667E-004	-3.27672E+002	7	...........
	331	332	3.50362E+000	-9.63542E-007	0.00000E+000	-3.37589E-006	0.00000E+000	4.45833E-004	-3.27672E+002	7	...........
	332	333	3.50361E+000	-9.63087E-007	0.00000E+000	-3.37428E-006	0.00000E+000	4.43267E-004	-3.27672E+002	7	...........
	333	334	3.50361E+000	-9.63249E-007	0.00000E+000	-3.37485E-006	0.00000E+000	4.46200E-004	-3.27672E+002	7	...........
	334	335	3.50360E+000	-9.62486E-007	0.00000E+000	-3.37217E-006	0.00000E+000	4.43517E-004	-3.27672E+002	7	...........
	335	336	3.50360E+000	-9.62528E-007	0.00000E+000	-3.37231E-006	0.00000E+000	4.46150E-004	-3.27672E+002	7	...........
	336	337	3.50359E+000	-9.63373E-007	0.00000E+000	-3.37527E-006	0.00000E+000	4.44000E-004	-3.27672E+002	7	...........
	337	338	3.50359E+000	-9.62839E-007	0.00000E+000	-3.37339E-006	0.00000E+000	4.44983E-004	-3.27672E+002	7	...........
	338	339	3.50358E+000	-9.63625E-007	0.00000E+000	-3.37614E-006	0.00000E+000	4.45667E-004	-3.27672E+002	7	...........
	339	340	3.50357E+000	-9.63840E-007	0.00000E+000	-3.37688E-006	0.00000E+000	4.42650E-004	-3.27672E+002	7	...........
	340	341	3.50357E+000	-9.63369E-007	0.00000E+000	-3.37523E-006	0.00000E+000	4.42200E-004	-3.27672E+002	7	...........
	341	342	3.50357E+000	-9.64188E-007	0.00000E+000	-3.37810E-006	0.00000E+000	4.46050E-004	-3.27672E+002	7	...........
	342	343	3.50356E+000	-9.62769E-007	0.00000E+000	-3.37312E-006	0.00000E+000	4.42700E-004	-3.27672E+002	7	...........
	343	344	3.50356E+000	-9.62653E-007	0.00000E+000	-3.37271E-006	0.00000E+000	4.40567E-004	-3.27672E+002	7	...........
	344	345	3.50355E+000	-9.62463E-007	0.00000E+000	-3.37203E-006	0.00000E+000	4.43083E-004	-3.27672E+002	7	...........
	345	346	3.50354E+000	-9.63064E-007	0.00000E+000	-3.37413E-006	0.00000E+000	4.42900E-004	-3.27672E+002	7	...........
	346	347	3.50352E+000	-9.62897E-007	0.00000E+000	-3.37353E-006	0.00000E+000	4.41750E-004	-3.27672E+002	7	...........
	347	348	3.50352E+000	-9.63210E-007	0.00000E+000	-3.37463E-006	0.00000E+000	4.43183E-004	-3.27672E+002	7	...........
	348	349	3.50352E+000	-9.62364E-007	0.00000E+000	-3.37166E-006	0.00000E+000	4.44217E-004	-3.27672E+002	7	...........
	349	350	3.50352E+000	-9.62584E-007	0.00000E+000	-3.37243E-006	0.00000E+000	4.44000E-004	-3.27672E+002	7	...........
	350	351	3.50351E+000	-9.62881E-007	0.00000E+000	-3.37346E-006	0.00000E+000	4.45633E-004	-3.27672E+002	7	...........
	351	352	3.50350E+000	-9.62981E-007	0.00000E+000	-3.37380E-006	0.00000E+000	4.44467E-004	-3.27672E+002	7	...........
	352	353	3.50350E+000	-9.62737E-007	0.00000E+000	-3.37295E-006	0.00000E+000	4.45233E-004	-3.27672E+002	7	...........
	353	354	3.50348E+000	-9.62791E-007	0.00000E+000	-3.37312E-006	0.00000E+000	4.44950E-004	-3.27672E+002	7	...........
	354	355	3.50348E+000	-9.62810E-007	0.00000E+000	-3.37318E-006	0.00000E+000	4.45183E-004	-3.27672E+002	7	...........
	355	356	3.50347E+000	-9.62500E-007	0.00000E+000	-3.37209E-006	0.00000E+000	4.47067E-004	-3.27672E+002	7	...........
	356	357	3.50346E+000	-9.62988E-007	0.00000E+000	-3.37379E-006	0.00000E+000	4.46767E-004	-3.27672E+002	7	...........
	357	358	3.50346E+000	-9.63110E-007	0.00000E+000	-3.37422E-006	0.00000E+000	4.43967E-004	-3.27672E+002	7	...........
	358	359	3.50346E+000	-9.62950E-007	0.00000E+000	-3.37365E-006	0.00000E+000	4.41633E-004	-3.27672E+002	7	...........
	359	360	3.50345E+000	-9.63257E-007	0.00000E+000	-3.37472E-006	0.00000E+000	4.43300E-004	-3.27672E+002	7	...........
	360	361	3.50344E+000	-9.62933E-007	0.00000E+000	-3.37358E-006	0.00000E+000	4.40333E-004	-3.27672E+002	7	...........
	361	362	3.50344E+000	-9.63276E-007	0.00000E+000	-3.37478E-006	0.00000E+000	4.45717E-004	-3.27672E+002	7	...........
	362	363	3.50343E+000	-9.62743E-007	0.00000E+000	-3.37291E-006	0.00000E+000	4.43383E-004	-3.27672E+002	7	...........
	363	364	3.50343E+000	-9.63394E-007	0.00000E+000	-3.37518E-006	0.00000E+000	4.46733E-004	-3.27672E+002	7	...........
	364	365	3.50342E+000	-9.64130E-007	0.00000E+000	-3.37776E-006	0.00000E+000	4.45483E-004	-3.27672E+002	7	...........
	365	366	3.50340E+000	-9.63580E-007	0.00000E+000	-3.37581E-006	0.00000E+000	4.46850E-004	-3.27672E+002	7	...........
	366	367	3.50340E+000	-9.64145E-007	0.00000E+000	-3.37779E-006	0.00000E+000	4.46967E-004	-3.27672E+002	7	...........
	367	368	3.50340E+000	-9.63225E-007	0.00000E+000	-3.37457E-006	0.00000E+000	4.44917E-004	-3.27672E+002	7	...........
	368	369	3.50340E+000	-9.63961E-007	0.00000E+000	-3.37714E-006	0.00000E+000	4.46900E-004	-3.27672E+002	7	...........
	369	370	3.50340E+000	-9.63516E-007	0.00000E+000	-3.37558E-006	0.00000E+000	4.43650E-004	-3.27672E+002	7	...........
	370	371	3.50339E+000	-9.64124E-007	0.00000E+000	-3.37770E-006	0.00000E+000	4.49117E-004	-3.27672E+002	7	...........
	371	372	3.50337E+000	-9.64190E-007	0.00000E+000	-3.37792E-006	0.00000E+000	4.46417E-004	-3.27672E+002	7	...........
	372	373	3.50337E+000	-9.64174E-007	0.00000E+000	-3.37786E-006	0.00000E+000	4.49300E-004	-3.27672E+002	7	...........
	373	374	3.50336E+000	-9.63766E-007	0.00000E+000	-3.37642E-006	0.00000E+000	4.48167E-004	-3.27672E+002	7	...........
	374	375	3.50336E+000	-9.63542E-007	0.00000E+000	-3.37564E-006	0.00000E+000	4.50650E-004	-3.27672E+002	7	...........
	375	376	3.50336E+000	-9.63521E-007	0.00000E+000	-3.37556E-006	0.00000E+000	4.47500E-004	-3.27672E+002	7	...........
	376	377	3.50335E+000	-9.63876E-007	0.00000E+000	-3.37680E-006	0.00000E+000	4.46517E-004	-3.27672E+002	7	...........
	377	378	3.50334E+000	-9.64202E-007	0.00000E+000	-3.37793E-006	0.00000E+000	4.48850E-004	-3.27672E+002	7	...........
	378	379	3.50334E+000	-9.63581E-007	0.00000E+000	-3.37575E-006	0.00000E+000	4.47867E-004	-3.27672E+002	7	...........
	379	380	3.50334E+000	-9.62577E-007	0.00000E+000	-3.37223E-006	0.00000E+000	4.48183E-004	-3.27672E+002	7	...........
	380	381	3.50334E+000	-9.63122E-007	0.00000E+000	-3.37414E-006	0.00000E+000	4.45700E-004	-3.27672E+002	7	...........
	381	382	3.50333E+000	-9.63797E-007	0.00000E+000	-3.37650E-006	0.00000E+000	4.45117E-004	-3.27672E+002	7	...........
	382	383	3.50331E+000	-9.63868E-007	0.00000E+000	-3.37673E-006	0.00000E+000	4.46233E-004	-3.27672E+002	7	...........
	383	384	3.50331E+000	-9.63769E-007	0.00000E+000	-3.37638E-006	0.00000E+000	4.49800E-004	-3.27672E+002	7	...........
	384	385	3.50331E+000	-9.63874E-007	0.00000E+000	-3.37674E-006	0.00000E+000	4.46050E-004	-3.27672E+002	7	...........
	385	386	3.50330E+000	-9.63440E-007	0.00000E+000	-3.37522E-006	0.00000E+000	4.46967E-004	-3.27672E+002	7	...........
	386	387	3.50328E+000	-9.63021E-007	0.00000E+000	-3.37373E-006	0.00000E+000	4.48733E-004	-3.27672E+002	7	...........
	387	388	3.50329E+000	-9.63654E-007	0.00000E+000	-3.37596E-006	0.00000E+000	4.47867E-004	-3.27672E+002	7	...........
	388	389	3.50329E+000	-9.63679E-007	0.00000E+000	-3.37604E-006	0.00000E+000	4.45883E-004	-3.27672E+002	7	...........
	389	390	3.50328E+000	-9.64216E-007	0.00000E+000	-3.37792E-006	0.00000E+000	4.45033E-004	-3.27672E+002	7	...........
	390	391	3.50326E+000	-9.62903E-007	0.00000E+000	-3.37330E-006	0.00000E+000	4.44617E-004	-3.27672E+002	7	...........
	391	392	3.50326E+000	-9.64084E-007	0.00000E+000	-3.37743E-006	0.00000E+000	4.42583E-004	-3.27672E+002	7	...........
	392	393	3.50326E+000	-9.63760E-007	0.00000E+000	-3.37630E-006	0.00000E+000	4.43000E-004	-3.27672E+002	7	...........
	393	394	3.50325E+000	-9.63921E-007	0.00000E+000	-3.37686E-006	0.00000E+000	4.45733E-004	-3.27672E+002	7	...........
	394	395	3.50324E+000	-9.63635E-007	0.00000E+000	-3.37585E-006	0.00000E+000	4.46467E-004	-3.27672E+002	7	...........
	395	396	3.50324E+000	-9.64479E-007	0.00000E+000	-3.37881E-006	0.00000E+000	4.45683E-004	-3.27672E+002	7	...........
	396	397	3.50324E+000	-9.63538E-007	0.00000E+000	-3.37550E-006	0.00000E+000	4.50217E-004	-3.27672E+002	7	...........
	397	398	3.50324E+000	-9.63471E-007	0.00000E+000	-3.37526E-006	0.00000E+000	4.48083E-004	-3.27672E+002	7	...........
	398	399	3.50323E+000	-9.63069E-007	0.00000E+000	-3.37385E-006	0.00000E+000	4.51950E-004	-3.27672E+002	7	...........
	399	400	3.50322E+000	-9.63882E-007	0.00000E+000	-3.37669E-006	0.00000E+000	4.47233E-004	-3.27672E+002	7	...........
	400	401	3.50321E+000	-9.63684E-007	0.00000E+000	-3.37598E-006	0.00000E+000	4.48800E-004	-3.27672E+002	7	...........
	401	402	3.50321E+000	-9.63572E-007	0.00000E+000	-3.37559E-006	0.00000E+000	4.46850E-004	-3.27672E+002	7	...........
	402	403	3.50320E+000	-9.64520E-007	0.00000E+000	-3.37891E-006	0.00000E+000	4.47233E-004	-3.27672E+002	7	...........
	403	404	3.50320E+000	-9.64005E-007	0.00000E+000	-3.37710E-006	0.00000E+000	4.50800E-004	-3.27672E+002	7	...........
	404	405	3.50319E+000	-9.63612E-007	0.00000E+000	-3.37571E-006	0.00000E+000	4.49933E-004	-3.27672E+002	7	...........
	405	406	3.50319E+000	-9.63176E-007	0.00000E+000	-3.37419E-006	0.00000E+000	4.48867E-004	-3.27672E+002	7	...........
	406	407	3.50317E+000	-9.63619E-007	0.00000E+000	-3.37572E-006	0.00000E+000	4.47067E-004	-3.27672E+002	7	...........
	407	408	3.50318E+000	-9.63205E-007	0.00000E+000	-3.37428E-006	0.00000E+000	4.50583E-004	-3.27672E+002	7	...........
	408	409	3.50317E+000	-9.63882E-007	0.00000E+000	-3.37664E-006	0.00000E+000	4.46917E-004	-3.27672E+002	7	...........
	409	410	3.50316E+000	-9.63939E-007	0.00000E+000	-3.37684E-006	0.00000E+000	4.45450E-004	-3.27672E+002	7	...........
	410	411	3.50316E+000	-9.63490E-007	0.00000E+000	-3.37526E-006	0.00000E+000	4.48250E-004	-3.27672E+002	7	...........
	411	412	3.50316E+000	-9.63710E-007	0.00000E+000	-3.37603E-006	0.00000E+000	4.46850E-004	-3.27672E+002	7	...........
	412	413	3.50315E+000	-9.63857E-007	0.00000E+000	-3.37653E-006	0.00000E+000	4.51167E-004	-3.27672E+002	7	...........
	413	414	3.50314E+000	-9.63462E-007	0.00000E+000	-3.37514E-006	0.00000E+000	4.50433E-004	-3.27672E+002	7	...........
	414	415	3.50313E+000	-9.63874E-007	0.00000E+000	-3.37658E-006	0.00000E+000	4.50033E-004	-3.27672E+002	7	...........
	415	416	3.50312E+000	-9.63776E-007	0.00000E+000	-3.37622E-006	0.00000E+000	4.51467E-004	-3.27672E+002	7	...........
	416	417	3.50312E+000	-9.62917E-007	0.00000E+000	-3.37321E-006	0.00000E+000	4.48617E-004	-3.27672E+002	7	...........
	417	418	3.50312E+000	-9.63420E-007	0.00000E+000	-3.37498E-006	0.00000E+000	4.52850E-004	-3.27672E+002	7	...........
	418	419	3.50310E+000	-9.63915E-007	0.00000E+000	-3.37669E-006	0.00000E+000	4.50183E-004	-3.27672E+002	7	...........
	419	420	3.50310E+000	-9.63563E-007	0.00000E+000	-3.37546E-006	0.00000E+000	4.53050E-004	-3.27672E+002	7	...........
	420	421	3.50309E+000	-9.63534E-007	0.00000E+000	-3.37535E-006	0.00000E+000	4.51467E-004	-3.27672E+002	7	...........
	421	422	3.50309E+000	-9.63048E-007	0.00000E+000	-3.37364E-006	0.00000E+000	4.51117E-004	-3.27672E+002	7	...........
	422	423	3.50307E+000	-9.63293E-007	0.00000E+000	-3.37449E-006	0.00000E+000	4.50750E-004	-3.27672E+002	7	...........
	423	424	3.50307E+000	-9.63850E-007	0.00000E+000	-3.37643E-006	0.00000E+000	4.53650E-004	-3.27672E+002	7	...........
	424	425	3.50306E+000	-9.63626E-007	0.00000E+000	-3.37564E-006	0.00000E+000	4.48533E-004	-3.27672E+002	7	...........
	425	426	3.50307E+000	-9.63917E-007	0.00000E+000	-3.37667E-006	0.00000E+000	4.49117E-004	-3.27672E+002	7	...........
	426	427	3.50307E+000	-9.63312E-007	0.00000E+000	-3.37454E-006	0.00000E+000	4.48133E-004	-3.27672E+002	7	...........
	427	428	3.50306E+000	-9.64741E-007	0.00000E+000	-3.37955E-006	0.00000E+000	4.53217E-004	-3.27672E+002	7	...........
	428	429	3.50305E+000	-9.64356E-007	0.00000E+000	-3.37819E-006	0.00000E+000	4.49017E-004	-3.27672E+002	7	...........
	429	430	3.50304E+000	-9.64016E-007	0.00000E+000	-3.37698E-006	0.00000E+000	4.52483E-004	-3.27672E+002	7	...........
	430	431	3.50304E+000	-9.63943E-007	0.00000E+000	-3.37674E-006	0.00000E+000	4.52133E-004	-3.27672E+002	7	...........
	431	432	3.50303E+000	-9.63868E-007	0.00000E+000	-3.37646E-006	0.00000E+000	4.51417E-004	-3.27672E+002	7	...........
	432	433	3.50302E+000	-9.63831E-007	0.00000E+000	-3.37632E-006	0.00000E+000	4.54067E-004	-3.27672E+002	7	...........
	433	434	3.50302E+000	-9.63079E-007	0.00000E+000	-3.37368E-006	0.00000E+000	4.51967E-004	-3.27672E+002	7	...........
	434	435	3.50302E+000	-9.62951E-007	0.00000E+000	-3.37324E-006	0.00000E+000	4.53233E-004	-3.27672E+002	7	...........
	435	436	3.50301E+000	-9.63537E-007	0.00000E+000	-3.37528E-006	0.00000E+000	4.52483E-004	-3.27672E+002	7	...........
	436	437	3.50301E+000	-9.64333E-007	0.00000E+000	-3.37806E-006	0.00000E+000	4.55833E-004	-3.27672E+002	7	...........
	437	438	3.50300E+000	-9.64039E-007	0.00000E+000	-3.37703E-006	0.00000E+000	4.52317E-004	-3.27672E+002	7	...........
	438	439	3.50301E+000	-9.63773E-007	0.00000E+000	-3.37610E-006	0.00000E+000	4.52133E-004	-3.27672E+002	7	...........
	439	440	3.50301E+000	-9.63763E-007	0.00000E+000	-3.37607E-006	0.00000E+000	4.54100E-004	-3.27672E+002	7	...........
	440	441	3.50300E+000	-9.63404E-007	0.00000E+000	-3.37480E-006	0.00000E+000	4.55300E-004	-3.27672E+002	7	...........
	441	442	3.50299E+000	-9.63070E-007	0.00000E+000	-3.37362E-006	0.00000E+000	4.50517E-004	-3.27672E+002	7	...........
	442	443	3.50298E+000	-9.63514E-007	0.00000E+000	-3.37517E-006	0.00000E+000	4.50767E-004	-3.27672E+002	7	...........
	443	444	3.50298E+000	-9.63763E-007	0.00000E+000	-3.37604E-006	0.00000E+000	4.53700E-004	-3.27672E+002	7	...........
	444	445	3.50297E+000	-9.63954E-007	0.00000E+000	-3.37670E-006	0.00000E+000	4.51167E-004	-3.27672E+002	7	...........
	445	446	3.50296E+000	-9.64151E-007	0.00000E+000	-3.37738E-006	0.00000E+000	4.55317E-004	-3.27672E+002	7	...........
	446	447	3.50296E+000	-9.64440E-007	0.00000E+000	-3.37840E-006	0.00000E+000	4.51167E-004	-3.27672E+002	7	...........
	447	448	3.50295E+000	-9.64690E-007	0.00000E+000	-3.37926E-006	0.00000E+000	4.51650E-004	-3.27672E+002	7	...........
	448	449	3.50294E+000	-9.64357E-007	0.00000E+000	-3.37809E-006	0.00000E+000	4.51300E-004	-3.27672E+002	7	...........
	449	450	3.50295E+000	-9.64349E-007	0.00000E+000	-3.37806E-006	0.00000E+000	4.53317E-004	-3.27672E+002	7	...........
	450	451	3.50294E+000	-9.64226E-007	0.00000E+000	-3.37763E-006	0.00000E+000	4.48250E-004	-3.27672E+002	7	...........
	451	452	3.50294E+000	-9.63464E-007	0.00000E+000	-3.37496E-006	0.00000E+000	4.51250E-004	-3.27672E+002	7	...........
	452	453	3.50293E+000	-9.63775E-007	0.00000E+000	-3.37603E-006	0.00000E+000	4.48883E-004	-3.27672E+002	7	...........
	453	454	3.50293E+000	-9.63960E-007	0.00000E+000	-3.37668E-006	0.00000E+000	4.50883E-004	-3.27672E+002	7	...........
	454	455	3.50293E+000	-9.64074E-007	0.00000E+000	-3.37708E-006	0.00000E+000	4.53683E-004	-3.27672E+002	7	...........
	455	456	3.50291E+000	-9.64096E-007	0.00000E+000	-3.37714E-006	0.00000E+000	4.53983E-004	-3.27672E+002	7	...........
	456	457	3.50291E+000	-9.64585E-007	0.00000E+000	-3.37886E-006	0.00000E+000	4.53017E-004	-3.27672E+002	7	...........
	457	458	3.50290E+000	-9.64204E-007	0.00000E+000	-3.37751E-006	0.00000E+000	4.52183E-004	-3.27672E+002	7	...........
	458	459	3.50291E+000	-9.63843E-007	0.00000E+000	-3.37625E-006	0.00000E+000	4.48600E-004	-3.27672E+002	7	...........
	459	460	3.50290E+000	-9.63663E-007	0.00000E+000	-3.37562E-006	0.00000E+000	4.54917E-004	-3.27672E+002	7	...........
	460	461	3.50289E+000	-9.64578E-007	0.00000E+000	-3.37881E-006	0.00000E+000	4.52283E-004	-3.27672E+002	7	...........
	461	462	3.50289E+000	-9.64823E-007	0.00000E+000	-3.37967E-006	0.00000E+000	4.52300E-004	-3.27672E+002	7	...........
	462	463	3.50289E+000	-9.64589E-007	0.00000E+000	-3.37885E-006	0.00000E+000	4.54067E-004	-3.27672E+002	7	...........
	463	464	3.50288E+000	-9.64743E-007	0.00000E+000	-3.37938E-006	0.00000E+000	4.49767E-004	-3.27672E+002	7	...........
	464	465	3.50287E+000	-9.65556E-007	0.00000E+000	-3.38222E-006	0.00000E+000	4.52200E-004	-3.27672E+002	7	...........
	465	466	3.50287E+000	-9.64742E-007	0.00000E+000	-3.37937E-006	0.00000E+000	4.51217E-004	-3.27672E+002	7	...........
	466	467	3.50287E+000	-9.64610E-007	0.00000E+000	-3.37890E-006	0.00000E+000	4.51200E-004	-3.27672E+002	7	...........
	467	468	3.50286E+000	-9.64264E-007	0.00000E+000	-3.37768E-006	0.00000E+000	4.52633E-004	-3.27672E+002	7	...........
	468	469	3.50286E+000	-9.64921E-007	0.00000E+000	-3.37999E-006	0.00000E+000	4.57150E-004	-3.27672E+002	7	...........
	469	470	3.50286E+000	-9.64132E-007	0.00000E+000	-3.37722E-006	0.00000E+000	4.52150E-004	-3.27672E+002	7	...........
	470	471	3.50285E+000	-9.63697E-007	0.00000E+000	-3.37568E-006	0.00000E+000	4.54667E-004	-3.27672E+002	7	...........
	471	472	3.50284E+000	-9.63845E-007	0.00000E+000	-3.37620E-006	0.00000E+000	4.51150E-004	-3.27672E+002	7	...........
	472	473	3.50285E+000	-9.64936E-007	0.00000E+000	-3.38002E-006	0.00000E+000	4.51417E-004	-3.27672E+002	7	...........
	473	474	3.50285E+000	-9.64724E-007	0.00000E+000	-3.37928E-006	0.00000E+000	4.56583E-004	-3.27672E+002	7	...........
	474	475	3.50284E+000	-9.64782E-007	0.00000E+000	-3.37947E-006	0.00000E+000	4.57217E-004	-3.27672E+002	7	...........
	475	476	3.50283E+000	-9.65214E-007	0.00000E+000	-3.38098E-006	0.00000E+000	4.53767E-004	-3.27672E+002	7	...........
	476	477	3.50282E+000	-9.64051E-007	0.00000E+000	-3.37689E-006	0.00000E+000	4.50883E-004	-3.27672E+002	7	...........
	477	478	3.50282E+000	-9.64416E-007	0.00000E+000	-3.37817E-006	0.00000E+000	4.57217E-004	-3.27672E+002	7	...........
	478	479	3.50281E+000	-9.64346E-007	0.00000E+000	-3.37792E-006	0.00000E+000	4.55417E-004	-3.27672E+002	7	...........
	479	480	3.50280E+000	-9.64069E-007	0.00000E+000	-3.37695E-006	0.00000E+000	4.55283E-004	-3.27672E+002	7	...........
	480	481	3.50280E+000	-9.64593E-007	0.00000E+000	-3.37878E-006	0.00000E+000	4.54400E-004	-3.27672E+002	7	...........
	481	482	3.50280E+000	-9.64640E-007	0.00000E+000	-3.37894E-006	0.00000E+000	4.52700E-004	-3.27672E+002	7	...........
	482	483	3.50279E+000	-9.65159E-007	0.00000E+000	-3.38075E-006	0.00000E+000	4.54717E-004	-3.27672E+002	7	...........
	483	484	3.50279E+000	-9.65827E-007	0.00000E+000	-3.38309E-006	0.00000E+000	4.56117E-004	-3.27672E+002	7	...........
	484	485	3.50279E+000	-9.65282E-007	0.00000E+000	-3.38118E-006	0.00000E+000	4.58233E-004	-3.27672E+002	7	...........
	485	486	3.50279E+000	-9.65210E-007	0.00000E+000	-3.38093E-006	0.00000E+000	4.54250E-004	-3.27672E+002	7	...........
	486	487	3.50279E+000	-9.65074E-007	0.00000E+000	-3.38045E-006	0.00000E+000	4.56100E-004	-3.27672E+002	7	...........
	487	488	3.50277E+000	-9.64830E-007	0.00000E+000	-3.37958E-006	0.00000E+000	4.56333E-004	-3.27672E+002	7	...........
	488	489	3.50278E+000	-9.63580E-007	0.00000E+000	-3.37520E-006	0.00000E+000	4.58317E-004	-3.27672E+002	7	...........
	489	490	3.50277E+000	-9.63579E-007	0.00000E+000	-3.37520E-006	0.00000E+000	4.53567E-004	-3.27672E+002	7	...........
	490	491	3.50277E+000	-9.64712E-007	0.00000E+000	-3.37917E-006	0.00000E+000	4.55083E-004	-3.27672E+002	7	...........
	491	492	3.50277E+000	-9.64883E-007	0.00000E+000	-3.37976E-006	0.00000E+000	4.55717E-004	-3.27672E+002	7	...........
	492	493	3.50276E+000	-9.64562E-007	0.00000E+000	-3.37863E-006	0.00000E+000	4.56667E-004	-3.27672E+002	7	...........
	493	494	3.50275E+000	-9.64462E-007	0.00000E+000	-3.37827E-006	0.00000E+000	4.56583E-004	-3.27672E+002	7	...........
	494	495	3.50274E+000	-9.64149E-007	0.00000E+000	-3.37716E-006	0.00000E+000	4.57450E-004	-3.27672E+002	7	...........
	495	496	3.50273E+000	-9.64446E-007	0.00000E+000	-3.37820E-006	0.00000E+000	4.57900E-004	-3.27672E+002	7	...........
	496	497	3.50273E+000	-9.64120E-007	0.00000E+000	-3.37706E-006	0.00000E+000	4.56517E-004	-3.27672E+002	7	...........
	497	498	3.50272E+000	-9.64140E-007	0.00000E+000	-3.37711E-006	0.00000E+000	4.56433E-004	-3.27672E+002	7	...........
	498	499	3.50272E+000	-9.64412E-007	0.00000E+000	-3.37806E-006	0.00000E+000	4.54183E-004	-3.27672E+002	7	...........
	499	500	3.50273E+000	-9.64889E-007	0.00000E+000	-3.37974E-006	0.00000E+000	4.56833E-004	-3.27672E+002	7	...........
	500	501	3.50272E+000	-9.64435E-007	0.00000E+000	-3.37814E-006	0.00000E+000	4.60750E-004	-3.27672E+002	7	...........
	501	502	3.50271E+000	-9.64729E-007	0.00000E+000	-3.37916E-006	0.00000E+000	4.55900E-004	-3.27672E+002	7	...........
	502	503	3.50270E+000	-9.64994E-007	0.00000E+000	-3.38008E-006	0.00000E+000	4.57150E-004	-3.27672E+002	7	...........
	503	504	3.50271E+000	-9.65093E-007	0.00000E+000	-3.38044E-006	0.00000E+000	4.60600E-004	-3.27672E+002	7	...........
	504	505	3.50269E+000	-9.64790E-007	0.00000E+000	-3.37936E-006	0.00000E+000	4.56583E-004	-3.27672E+002	7	...........
	505	506	3.50269E+000	-9.64397E-007	0.00000E+000	-3.37799E-006	0.00000E+000	4.60100E-004	-3.27672E+002	7	...........
	506	507	3.50268E+000	-9.63633E-007	0.00000E+000	-3.37530E-006	0.00000E+000	4.57567E-004	-3.27672E+002	7	...........
	507	508	3.50268E+000	-9.63543E-007	0.00000E+000	-3.37498E-006	0.00000E+000	4.57733E-004	-3.27672E+002	7	...........
	508	509	3.50267E+000	-9.63909E-007	0.00000E+000	-3.37626E-006	0.00000E+000	4.57933E-004	-3.27672E+002	7	...........
	509	510	3.50268E+000	-9.64511E-007	0.00000E+000	-3.37837E-006	0.00000E+000	4.55000E-004	-3.27672E+002	7	...........
	510	511	3.50268E+000	-9.63563E-007	0.00000E+000	-3.37505E-006	0.00000E+000	4.57767E-004	-3.27672E+002	7	...........
	511	512	3.50268E+000	-9.63601E-007	0.00000E+000	-3.37518E-006	0.00000E+000	4.54200E-004	-3.27672E+002	7	...........
	512	513	3.50266E+000	-9.63806E-007	0.00000E+000	-3.37589E-006	0.00000E+000	4.56767E-004	-3.27672E+002	7	...........
	513	514	3.50266E+000	-9.63458E-007	0.00000E+000	-3.37467E-006	0.00000E+000	4.60883E-004	-3.27672E+002	7	...........
	514	515	3.50266E+000	-9.63689E-007	0.00000E+000	-3.37547E-006	0.00000E+000	4.58533E-004	-3.27672E+002	7	...........
	515	516	3.50265E+000	-9.63696E-007	0.00000E+000	-3.37549E-006	0.00000E+000	4.60533E-004	-3.27672E+002	7	...........
	516	517	3.50265E+000	-9.63938E-007	0.00000E+000	-3.37634E-006	0.00000E+000	4.57917E-004	-3.27672E+002	7	...........
	517	518	3.50264E+000	-9.64263E-007	0.00000E+000	-3.37746E-006	0.00000E+000	4.61900E-004	-3.27672E+002	7	...........
	518	519	3.50264E+000	-9.63760E-007	0.00000E+000	-3.37570E-006	0.00000E+000	4.57750E-004	-3.27672E+002	7	...........
	519	520	3.50263E+000	-9.64106E-007	0.00000E+000	-3.37691E-006	0.00000E+000	4.60067E-004	-3.27672E+002	7	...........
	520	521	3.50263E+000	-9.64686E-007	0.00000E+000	-3.37894E-006	0.00000E+000	4.57900E-004	-3.27672E+002	7	...........
	521	522	3.50262E+000	-9.64287E-007	0.00000E+000	-3.37754E-006	0.00000E+000	4.58650E-004	-3.27672E+002	7	...........
	522	523	3.50262E+000	-9.64227E-007	0.00000E+000	-3.37732E-006	0.00000E+000	4.59850E-004	-3.27672E+002	7	...........
	523	524	3.50261E+000	-9.64103E-007	0.00000E+000	-3.37688E-006	0.00000E+000	4.58217E-004	-3.27672E+002	7	...........
	524	525	3.50261E+000	-9.63034E-007	0.00000E+000	-3.37313E-006	0.00000E+000	4.58200E-004	-3.27672E+002	7	...........
	525	526	3.50260E+000	-9.62922E-007	0.00000E+000	-3.37273E-006	0.00000E+000	4.57250E-004	-3.27672E+002	7	...........
	526	527	3.50260E+000	-9.64364E-007	0.00000E+000	-3.37778E-006	0.00000E+000	4.57167E-004	-3.27672E+002	7	...........
	527	528	3.50259E+000	-9.63638E-007	0.00000E+000	-3.37523E-006	0.00000E+000	4.56383E-004	-3.27672E+002	7	...........
	528	529	3.50259E+000	-9.63911E-007	0.00000E+000	-3.37618E-006	0.00000E+000	4.60067E-004	-3.27672E+002	7	...........
	529	530	3.50259E+000	-9.64198E-007	0.00000E+000	-3.37719E-006	0.00000E+000	4.59617E-004	-3.27672E+002	7	...........
	530	531	3.50259E+000	-9.63772E-007	0.00000E+000	-3.37569E-006	0.00000E+000	4.60533E-004	-3.27672E+002	7	...........
	531	532	3.50258E+000	-9.63443E-007	0.00000E+000	-3.37454E-006	0.00000E+000	4.57650E-004	-3.27672E+002	7	...........
	532	533	3.50258E+000	-9.64200E-007	0.00000E+000	-3.37719E-006	0.00000E+000	4.60733E-004	-3.27672E+002	7	...........
	533	534	3.50257E+000	-9.63663E-007	0.00000E+000	-3.37530E-006	0.00000E+000	4.57033E-004	-3.27672E+002	7	...........
	534	535	3.50257E+000	-9.64439E-007	0.00000E+000	-3.37802E-006	0.00000E+000	4.58917E-004	-3.27672E+002	7	...........
	535	536	3.50256E+000	-9.64724E-007	0.00000E+000	-3.37901E-006	0.00000E+000	4.62300E-004	-3.27672E+002	7	...........
	536	537	3.50256E+000	-9.64520E-007	0.00000E+000	-3.37828E-006	0.00000E+000	4.60350E-004	-3.27672E+002	7	...........
	537	538	3.50256E+000	-9.64613E-007	0.00000E+000	-3.37861E-006	0.00000E+000	4.57900E-004	-3.27672E+002	7	...........
	538	539	3.50255E+000	-9.64778E-007	0.00000E+000	-3.37918E-006	0.00000E+000	4.59767E-004	-3.27672E+002	7	...........
	539	540	3.50255E+000	-9.64544E-007	0.00000E+000	-3.37836E-006	0.00000E+000	4.63200E-004	-3.27672E+002	7	...........
	540	541	3.50253E+000	-9.65022E-007	0.00000E+000	-3.38002E-006	0.00000E+000	4.61950E-004	-3.27672E+002	7	...........
	541	542	3.50254E+000	-9.64519E-007	0.00000E+000	-3.37826E-006	0.00000E+000	4.63950E-004	-3.27672E+002	7	...........
	542	543	3.50253E+000	-9.63783E-007	0.00000E+000	-3.37568E-006	0.00000E+000	4.62067E-004	-3.27672E+002	7	...........
	543	544	3.50254E+000	-9.63585E-007	0.00000E+000	-3.37499E-006	0.00000E+000	4.60600E-004	-3.27672E+002	7	...........
	544	545	3.50252E+000	-9.63387E-007	0.00000E+000	-3.37428E-006	0.00000E+000	4.61050E-004	-3.27672E+002	7	...........
	545	546	3.50252E+000	-9.64361E-007	0.00000E+000	-3.37769E-006	0.00000E+000	4.61133E-004	-3.27672E+002	7	...........
	546	547	3.50251E+000	-9.64696E-007	0.00000E+000	-3.37886E-006	0.00000E+000	4.58317E-004	-3.27672E+002	7	...........
	547	548	3.50251E+000	-9.64565E-007	0.00000E+000	-3.37840E-006	0.00000E+000	4.63350E-004	-3.27672E+002	7	...........
	548	549	3.50251E+000	-9.65262E-007	0.00000E+000	-3.38084E-006	0.00000E+000	4.62667E-004	-3.27672E+002	7	...........
	549	550	3.50251E+000	-9.64839E-007	0.00000E+000	-3.37935E-006	0.00000E+000	4.63833E-004	-3.27672E+002	7	...........
	550	551	3.50250E+000	-9.64601E-007	0.00000E+000	-3.37852E-006	0.00000E+000	4.60617E-004	-3.27672E+002	7	...........
	551	552	3.50249E+000	-9.65023E-007	0.00000E+000	-3.37999E-006	0.00000E+000	4.61000E-004	-3.27672E+002	7	...........
	552	553	3.50250E+000	-9.64427E-007	0.00000E+000	-3.37790E-006	0.00000E+000	4.63300E-004	-3.27672E+002	7	...........
	553	554	3.50248E+000	-9.65514E-007	0.00000E+000	-3.38170E-006	0.00000E+000	4.62017E-004	-3.27672E+002	7	...........
	554	555	3.50247E+000	-9.64954E-007	0.00000E+000	-3.37972E-006	0.00000E+000	4.60150E-004	-3.27672E+002	7	...........
	555	556	3.50248E+000	-9.65387E-007	0.00000E+000	-3.38125E-006	0.00000E+000	4.64800E-004	-3.27672E+002	7	...........
	556	557	3.50248E+000	-9.65025E-007	0.00000E+000	-3.37998E-006	0.00000E+000	4.61817E-004	-3.27672E+002	7	...........
	557	558	3.50247E+000	-9.65473E-007	0.00000E+000	-3.38154E-006	0.00000E+000	4.64200E-004	-3.27672E+002	7	...........
	558	559	3.50246E+000	-9.64763E-007	0.00000E+000	-3.37905E-006	0.00000E+000	4.64317E-004	-3.27672E+002	7	...........
	559	560	3.50246E+000	-9.64615E-007	0.00000E+000	-3.37852E-006	0.00000E+000	4.62267E-004	-3.27672E+002	7	...........
	560	561	3.50245E+000	-9.64444E-007	0.00000E+000	-3.37792E-006	0.00000E+000	4.65467E-004	-3.27672E+002	7	...........
	561	562	3.50245E+000	-9.63421E-007	0.00000E+000	-3.37433E-006	0.00000E+000	4.60750E-004	-3.27672E+002	7	...........
	562	563	3.50245E+000	-9.64289E-007	0.00000E+000	-3.37738E-006	0.00000E+000	4.62683E-004	-3.27672E+002	7	...........
	563	564	3.50245E+000	-9.64395E-007	0.00000E+000	-3.37774E-006	0.00000E+000	4.61833E-004	-3.27672E+002	7	...........
	564	565	3.50244E+000	-9.64544E-007	0.00000E+000	-3.37826E-006	0.00000E+000	4.61483E-004	-3.27672E+002	7	...........
	565	566	3.50244E+000	-9.64646E-007	0.00000E+000	-3.37862E-006	0.00000E+000	4.63400E-004	-3.27672E+002	7	...........
	566	567	3.50243E+000	-9.63821E-007	0.00000E+000	-3.37572E-006	0.00000E+000	4.61667E-004	-3.27672E+002	7	...........
	567	568	3.50243E+000	-9.64242E-007	0.00000E+000	-3.37719E-006	0.00000E+000	4.61967E-004	-3.27672E+002	7	...........
	568	569	3.50242E+000	-9.64209E-007	0.00000E+000	-3.37707E-006	0.00000E+000	4.62000E-004	-3.27672E+002	7	...........
	569	570	3.50241E+000	-9.64405E-007	0.00000E+000	-3.37775E-006	0.00000E+000	4.64167E-004	-3.27672E+002	7	...........
	570	571	3.50241E+000	-9.65200E-007	0.00000E+000	-3.38053E-006	0.00000E+000	4.65117E-004	-3.27672E+002	7	...........
	571	572	3.50241E+000	-9.64601E-007	0.00000E+000	-3.37843E-006	0.00000E+000	4.58600E-004	-3.27672E+002	7	...........
	572	573	3.50240E+000	-9.65147E-007	0.00000E+000	-3.38033E-006	0.00000E+000	4.65533E-004	-3.27672E+002	7	...........
	573	574	3.50241E+000	-9.65254E-007	0.00000E+000	-3.38071E-006	0.00000E+000	4.64717E-004	-3.27672E+002	7	...........
	574	575	3.50240E+000	-9.65410E-007	0.00000E+000	-3.38125E-006	0.00000E+000	4.62583E-004	-3.27672E+002	7	...........
	575	576	3.50238E+000	-9.65185E-007	0.00000E+000	-3.38045E-006	0.00000E+000	4.62017E-004	-3.27672E+002	7	...........
	576	577	3.50239E+000	-9.64811E-007	0.00000E+000	-3.37914E-006	0.00000E+000	4.65467E-004	-3.27672E+002	7	...........
	577	578	3.50238E+000	-9.65228E-007	0.00000E+000	-3.38059E-006	0.00000E+000	4.62700E-004	-3.27672E+002	7	...........
	578	579	3.50238E+000	-9.64659E-007	0.00000E+000	-3.37860E-006	0.00000E+000	4.63133E-004	-3.27672E+002	7	...........
	579	580	3.50237E+000	-9.63971E-007	0.00000E+000	-3.37618E-006	0.00000E+000	4.59300E-004	-3.27672E+002	7	...........
	580	581	3.50236E+000	-9.63776E-007	0.00000E+000	-3.37549E-006	0.00000E+000	4.64550E-004	-3.27672E+002	7	...........
	581	582	3.50237E+000	-9.65124E-007	0.00000E+000	-3.38022E-006	0.00000E+000	4.64483E-004	-3.27672E+002	7	...........
	582	583	3.50236E+000	-9.65348E-007	0.00000E+000	-3.38100E-006	0.00000E+000	4.62950E-004	-3.27672E+002	7	...........
	583	584	3.50236E+000	-9.65148E-007	0.00000E+000	-3.38030E-006	0.00000E+000	4.63300E-004	-3.27672E+002	7	...........
	584	585	3.50236E+000	-9.64916E-007	0.00000E+000	-3.37948E-006	0.00000E+000	4.67583E-004	-3.27672E+002	7	...........
	585	586	3.50236E+000	-9.63827E-007	0.00000E+000	-3.37567E-006	0.00000E+000	4.64983E-004	-3.27672E+002	7	...........
	586	587	3.50235E+000	-9.64182E-007	0.00000E+000	-3.37690E-006	0.00000E+000	4.62817E-004	-3.27672E+002	7	...........
	587	588	3.50234E+000	-9.64050E-007	0.00000E+000	-3.37643E-006	0.00000E+000	4.67950E-004	-3.27672E+002	7	...........
	588	589	3.50234E+000	-9.65075E-007	0.00000E+000	-3.38002E-006	0.00000E+000	4.62900E-004	-3.27672E+002	7	...........
	589	590	3.50233E+000	-9.65112E-007	0.00000E+000	-3.38014E-006	0.00000E+000	4.65717E-004	-3.27672E+002	7	...........
	590	591	3.50234E+000	-9.64785E-007	0.00000E+000	-3.37900E-006	0.00000E+000	4.62083E-004	-3.27672E+002	7	...........
	591	592	3.50233E+000	-9.65369E-007	0.00000E+000	-3.38104E-006	0.00000E+000	4.63867E-004	-3.27672E+002	7	...........
	592	593	3.50233E+000	-9.65561E-007	0.00000E+000	-3.38171E-006	0.00000E+000	4.65650E-004	-3.27672E+002	7	...........
	593	594	3.50233E+000	-9.65613E-007	0.00000E+000	-3.38189E-006	0.00000E+000	4.64083E-004	-3.27672E+002	7	...........
	594	595	3.50233E+000	-9.65595E-007	0.00000E+000	-3.38183E-006	0.00000E+000	4.63367E-004	-3.27672E+002	7	...........
	595	596	3.50232E+000	-9.65548E-007	0.00000E+000	-3.38166E-006	0.00000E+000	4.61533E-004	-3.27672E+002	7	...........
	596	597	3.50231E+000	-9.65175E-007	0.00000E+000	-3.38034E-006	0.00000E+000	4.65283E-004	-3.27672E+002	7	...........
	597	598	3.50230E+000	-9.64651E-007	0.00000E+000	-3.37850E-006	0.00000E+000	4.61500E-004	-3.27672E+002	7	...........
	598	599	3.50230E+000	-9.64677E-007	0.00000E+000	-3.37858E-006	0.00000E+000	4.66300E-004	-3.27672E+002	7	...........
	599	600	3.50229E+000	-9.65238E-007	0.00000E+000	-3.38054E-006	0.00000E+000	4.60833E-004	-3.27672E+002	7	...........
