EXPLAIN
TAG	PWR800_READVOLTAGE
TITLE	LABEL	PWR Read Voltage	Test Identifier
DATE	LABEL	7.2.2024	Date
TIME	LABEL	19:22:49	Time
NOTES	NOTES	1	Notes...
	
PSTAT	PSTAT	REF600-12055	Potentiostat
CAPACITY	QUANT	1.00000E+000	Capacity (A-hr)
CELLTYPE	SELECTOR	1	Cell Type
WORKINGCONNECTION	SELECTOR	0	Working Connection
MAXTIME	VARIABLEANDUNITS	6.00000E+002	s	6.00000E+002	second(s)	Max Time
SAMPLETIME	QUANT	1.00000E+000	Sample Period (s)
STOPAT1	MULTIPARAM	0	0.00000E+000	Stop At 1	None	N/A
STOPAT2	MULTIPARAM	0	0.00000E+000	Stop At 2	None	N/A
AESBHCSELECTOR	TOGGLE	F	Save Both Half Cells
EOC	QUANT	3.573213	Open Circuit (V)
SEQUENCER	TOGGLE	TRUE	Run as Sequence
PSTATMODEL	IQUANT	4	Pstat Model
PSTATSECTION	LABEL	REF600-12055	Pstat Section
PSTATSERIALNO	LABEL	12055	Pstat Serial Number
CTRLMODE	IQUANT	0	Control Mode
ELECTROMETER	IQUANT	0	RE=0 or CS=1
IESTAB	IQUANT	0	I/E Stability
CASPEED	IQUANT	4	Control Amp Speed
CONVENTION	IQUANT	1	Current Convention
ICHRANGE	IQUANT	2	Ich Range
ICHRANGEMODE	TOGGLE	T	Ich Auto Range
ICHOFFSETENABLE	TOGGLE	F	Ich Offset Enable
ICHOFFSET	QUANT	0	Ich Offset (V)
ICHFILTER	IQUANT	1	Ich Filter
VCHRANGE	IQUANT	3	Vch Range
VCHRANGEMODE	TOGGLE	T	Vch Auto Range
VCHOFFSETENABLE	TOGGLE	F	Vch Offset Enable
VCHOFFSET	QUANT	0	Vch Offset (V)
VCHFILTER	IQUANT	1	Vch Filter
ACHRANGE	IQUANT	2	Ach Range
ACHOFFSETENABLE	TOGGLE	F	Ach Offset Enable
ACHOFFSET	QUANT	0	Ach Offset (V)
ACHFILTER	IQUANT	1	Ach Filter
IERANGELOWERLIMIT	IQUANT	7	I/E Range Lower Limit
IERANGEMODE	TOGGLE	F	I/E AutoRange
IERANGE	IQUANT	11	I/E Range
POSFEEDENABLE	TOGGLE	F	Positive Feedback IR Comp
POSFEEDRESISTANCE	QUANT	0	Positive Feedback Resistance (ohm)
ACHSELECT	IQUANT	4	Ach Select
SENSECABLEID	IQUANT	14	Sense Cable ID
PWRCABLEID	IQUANT	14	Power Cable ID
DCCALDATE	LABEL		DC Calibration Date
ACCALDATE	LABEL		AC Calibration Date
THERMOSELECT	IQUANT	1	Thermo Select
FRAMEWORKVERSION	LABEL	7.10.3	Framework Version
INSTRUMENTVERSION	LABEL	4.91	Instrument Version
COMMVERSION	LABEL	2.24	Communications Version
CPUPLDVERSION	LABEL	0.00	CPU PLD Version
CTRLPLDVERSION	LABEL	0.00	CTRL PLD Version
PSTATPLDVERSION	LABEL	0.00	PSTAT PLD Version
CURVE	TABLE	600
	Pt	T	Vf	Im	Vu	Pwr	Sig	Ach	Temp	IERange	Over
	#	s	V	A	V	W	V	V	deg C	#	bits
	0	1	3.64260E+000	-1.18079E-006	0.00000E+000	-4.30115E-006	0.00000E+000	7.45700E-004	-3.27672E+002	7	...........
	1	2	3.64220E+000	-1.17902E-006	0.00000E+000	-4.29424E-006	0.00000E+000	7.47883E-004	-3.27672E+002	7	...........
	2	3	3.64195E+000	-1.17929E-006	0.00000E+000	-4.29493E-006	0.00000E+000	7.49100E-004	-3.27672E+002	7	...........
	3	4	3.64176E+000	-1.17863E-006	0.00000E+000	-4.29228E-006	0.00000E+000	7.47833E-004	-3.27672E+002	7	...........
	4	5	3.64164E+000	-1.17870E-006	0.00000E+000	-4.29241E-006	0.00000E+000	7.47100E-004	-3.27672E+002	7	...........
	5	6	3.64154E+000	-1.17773E-006	0.00000E+000	-4.28877E-006	0.00000E+000	7.45683E-004	-3.27672E+002	7	...........
	6	7	3.64147E+000	-1.17751E-006	0.00000E+000	-4.28788E-006	0.00000E+000	7.42767E-004	-3.27672E+002	7	...........
	7	8	3.64140E+000	-1.17818E-006	0.00000E+000	-4.29022E-006	0.00000E+000	7.42483E-004	-3.27672E+002	7	...........
	8	9	3.64135E+000	-1.17791E-006	0.00000E+000	-4.28917E-006	0.00000E+000	7.41117E-004	-3.27672E+002	7	...........
	9	10	3.64129E+000	-1.17741E-006	0.00000E+000	-4.28728E-006	0.00000E+000	7.41583E-004	-3.27672E+002	7	...........
	10	11	3.64122E+000	-1.17629E-006	0.00000E+000	-4.28313E-006	0.00000E+000	7.39167E-004	-3.27672E+002	7	...........
	11	12	3.64116E+000	-1.17587E-006	0.00000E+000	-4.28152E-006	0.00000E+000	7.37383E-004	-3.27672E+002	7	...........
	12	13	3.64108E+000	-1.17638E-006	0.00000E+000	-4.28327E-006	0.00000E+000	7.38000E-004	-3.27672E+002	7	...........
	13	14	3.64100E+000	-1.17690E-006	0.00000E+000	-4.28511E-006	0.00000E+000	7.39050E-004	-3.27672E+002	7	...........
	14	15	3.64092E+000	-1.17712E-006	0.00000E+000	-4.28581E-006	0.00000E+000	7.42000E-004	-3.27672E+002	7	...........
	15	16	3.64084E+000	-1.17699E-006	0.00000E+000	-4.28524E-006	0.00000E+000	7.38950E-004	-3.27672E+002	7	...........
	16	17	3.64075E+000	-1.17644E-006	0.00000E+000	-4.28314E-006	0.00000E+000	7.38350E-004	-3.27672E+002	7	...........
	17	18	3.64068E+000	-1.17609E-006	0.00000E+000	-4.28176E-006	0.00000E+000	7.42083E-004	-3.27672E+002	7	...........
	18	19	3.64060E+000	-1.17591E-006	0.00000E+000	-4.28102E-006	0.00000E+000	7.40400E-004	-3.27672E+002	7	...........
	19	20	3.64053E+000	-1.17648E-006	0.00000E+000	-4.28301E-006	0.00000E+000	7.42150E-004	-3.27672E+002	7	...........
	20	21	3.64046E+000	-1.17604E-006	0.00000E+000	-4.28133E-006	0.00000E+000	5.35967E-004	-3.27672E+002	7	...........
	21	22	3.64039E+000	-1.17743E-006	0.00000E+000	-4.28630E-006	0.00000E+000	4.38067E-004	-3.27672E+002	7	...........
	22	23	3.64034E+000	-1.17725E-006	0.00000E+000	-4.28559E-006	0.00000E+000	4.43950E-004	-3.27672E+002	7	...........
	23	24	3.64029E+000	-1.17725E-006	0.00000E+000	-4.28553E-006	0.00000E+000	4.43317E-004	-3.27672E+002	7	...........
	24	25	3.64024E+000	-1.17750E-006	0.00000E+000	-4.28638E-006	0.00000E+000	4.38017E-004	-3.27672E+002	7	...........
	25	26	3.64019E+000	-1.17656E-006	0.00000E+000	-4.28290E-006	0.00000E+000	4.38633E-004	-3.27672E+002	7	...........
	26	27	3.64014E+000	-1.17634E-006	0.00000E+000	-4.28203E-006	0.00000E+000	4.35833E-004	-3.27672E+002	7	...........
	27	28	3.64009E+000	-1.17645E-006	0.00000E+000	-4.28238E-006	0.00000E+000	4.39167E-004	-3.27672E+002	7	...........
	28	29	3.64003E+000	-1.17552E-006	0.00000E+000	-4.27893E-006	0.00000E+000	4.32700E-004	-3.27672E+002	7	...........
	29	30	3.63997E+000	-1.17448E-006	0.00000E+000	-4.27505E-006	0.00000E+000	4.33500E-004	-3.27672E+002	7	...........
	30	31	3.63993E+000	-1.17497E-006	0.00000E+000	-4.27682E-006	0.00000E+000	4.36400E-004	-3.27672E+002	7	...........
	31	32	3.63986E+000	-1.17598E-006	0.00000E+000	-4.28042E-006	0.00000E+000	4.33200E-004	-3.27672E+002	7	...........
	32	33	3.63981E+000	-1.17552E-006	0.00000E+000	-4.27865E-006	0.00000E+000	4.33967E-004	-3.27672E+002	7	...........
	33	34	3.63975E+000	-1.17558E-006	0.00000E+000	-4.27882E-006	0.00000E+000	4.34317E-004	-3.27672E+002	7	...........
	34	35	3.63969E+000	-1.17606E-006	0.00000E+000	-4.28048E-006	0.00000E+000	4.31533E-004	-3.27672E+002	7	...........
	35	36	3.63963E+000	-1.17545E-006	0.00000E+000	-4.27820E-006	0.00000E+000	4.33100E-004	-3.27672E+002	7	...........
	36	37	3.63959E+000	-1.17575E-006	0.00000E+000	-4.27923E-006	0.00000E+000	4.30267E-004	-3.27672E+002	7	...........
	37	38	3.63953E+000	-1.17611E-006	0.00000E+000	-4.28050E-006	0.00000E+000	4.31117E-004	-3.27672E+002	7	...........
	38	39	3.63948E+000	-1.17552E-006	0.00000E+000	-4.27828E-006	0.00000E+000	4.32733E-004	-3.27672E+002	7	...........
	39	40	3.63942E+000	-1.17578E-006	0.00000E+000	-4.27915E-006	0.00000E+000	4.33650E-004	-3.27672E+002	7	...........
	40	41	3.63936E+000	-1.17607E-006	0.00000E+000	-4.28016E-006	0.00000E+000	4.30833E-004	-3.27672E+002	7	...........
	41	42	3.63931E+000	-1.17509E-006	0.00000E+000	-4.27651E-006	0.00000E+000	4.31483E-004	-3.27672E+002	7	...........
	42	43	3.63927E+000	-1.17596E-006	0.00000E+000	-4.27965E-006	0.00000E+000	4.30433E-004	-3.27672E+002	7	...........
	43	44	3.63921E+000	-1.17472E-006	0.00000E+000	-4.27507E-006	0.00000E+000	4.31433E-004	-3.27672E+002	7	...........
	44	45	3.63916E+000	-1.17490E-006	0.00000E+000	-4.27567E-006	0.00000E+000	4.35683E-004	-3.27672E+002	7	...........
	45	46	3.63912E+000	-1.17483E-006	0.00000E+000	-4.27535E-006	0.00000E+000	4.32983E-004	-3.27672E+002	7	...........
	46	47	3.63908E+000	-1.17474E-006	0.00000E+000	-4.27496E-006	0.00000E+000	4.33733E-004	-3.27672E+002	7	...........
	47	48	3.63904E+000	-1.17392E-006	0.00000E+000	-4.27195E-006	0.00000E+000	4.31483E-004	-3.27672E+002	7	...........
	48	49	3.63900E+000	-1.17394E-006	0.00000E+000	-4.27196E-006	0.00000E+000	4.36050E-004	-3.27672E+002	7	...........
	49	50	3.63896E+000	-1.17481E-006	0.00000E+000	-4.27507E-006	0.00000E+000	4.32767E-004	-3.27672E+002	7	...........
	50	51	3.63892E+000	-1.17424E-006	0.00000E+000	-4.27298E-006	0.00000E+000	4.33383E-004	-3.27672E+002	7	...........
	51	52	3.63888E+000	-1.17311E-006	0.00000E+000	-4.26880E-006	0.00000E+000	4.34350E-004	-3.27672E+002	7	...........
	52	53	3.63885E+000	-1.17386E-006	0.00000E+000	-4.27151E-006	0.00000E+000	4.34217E-004	-3.27672E+002	7	...........
	53	54	3.63882E+000	-1.17282E-006	0.00000E+000	-4.26767E-006	0.00000E+000	4.33317E-004	-3.27672E+002	7	...........
	54	55	3.63880E+000	-1.17297E-006	0.00000E+000	-4.26822E-006	0.00000E+000	4.32983E-004	-3.27672E+002	7	...........
	55	56	3.63877E+000	-1.17323E-006	0.00000E+000	-4.26910E-006	0.00000E+000	4.33017E-004	-3.27672E+002	7	...........
	56	57	3.63874E+000	-1.17338E-006	0.00000E+000	-4.26963E-006	0.00000E+000	4.35450E-004	-3.27672E+002	7	...........
	57	58	3.63871E+000	-1.17334E-006	0.00000E+000	-4.26943E-006	0.00000E+000	4.30567E-004	-3.27672E+002	7	...........
	58	59	3.63870E+000	-1.17334E-006	0.00000E+000	-4.26942E-006	0.00000E+000	4.32450E-004	-3.27672E+002	7	...........
	59	60	3.63866E+000	-1.17301E-006	0.00000E+000	-4.26820E-006	0.00000E+000	4.35517E-004	-3.27672E+002	7	...........
	60	61	3.63864E+000	-1.17237E-006	0.00000E+000	-4.26585E-006	0.00000E+000	4.34300E-004	-3.27672E+002	7	...........
	61	62	3.63862E+000	-1.17305E-006	0.00000E+000	-4.26827E-006	0.00000E+000	4.35200E-004	-3.27672E+002	7	...........
	62	63	3.63859E+000	-1.17268E-006	0.00000E+000	-4.26692E-006	0.00000E+000	4.31800E-004	-3.27672E+002	7	...........
	63	64	3.63858E+000	-1.17216E-006	0.00000E+000	-4.26499E-006	0.00000E+000	4.35400E-004	-3.27672E+002	7	...........
	64	65	3.63856E+000	-1.17176E-006	0.00000E+000	-4.26351E-006	0.00000E+000	4.31867E-004	-3.27672E+002	7	...........
	65	66	3.63854E+000	-1.17212E-006	0.00000E+000	-4.26479E-006	0.00000E+000	4.31967E-004	-3.27672E+002	7	...........
	66	67	3.63851E+000	-1.17148E-006	0.00000E+000	-4.26244E-006	0.00000E+000	4.31067E-004	-3.27672E+002	7	...........
	67	68	3.63848E+000	-1.17267E-006	0.00000E+000	-4.26673E-006	0.00000E+000	4.30400E-004	-3.27672E+002	7	...........
	68	69	3.63846E+000	-1.17147E-006	0.00000E+000	-4.26236E-006	0.00000E+000	4.31200E-004	-3.27672E+002	7	...........
	69	70	3.63845E+000	-1.17139E-006	0.00000E+000	-4.26204E-006	0.00000E+000	4.27783E-004	-3.27672E+002	7	...........
	70	71	3.63842E+000	-1.17092E-006	0.00000E+000	-4.26031E-006	0.00000E+000	4.31450E-004	-3.27672E+002	7	...........
	71	72	3.63840E+000	-1.17097E-006	0.00000E+000	-4.26044E-006	0.00000E+000	4.31100E-004	-3.27672E+002	7	...........
	72	73	3.63837E+000	-1.17079E-006	0.00000E+000	-4.25976E-006	0.00000E+000	4.31900E-004	-3.27672E+002	7	...........
	73	74	3.63835E+000	-1.17167E-006	0.00000E+000	-4.26295E-006	0.00000E+000	4.29317E-004	-3.27672E+002	7	...........
	74	75	3.63833E+000	-1.17199E-006	0.00000E+000	-4.26409E-006	0.00000E+000	4.28283E-004	-3.27672E+002	7	...........
	75	76	3.63830E+000	-1.17228E-006	0.00000E+000	-4.26509E-006	0.00000E+000	4.30217E-004	-3.27672E+002	7	...........
	76	77	3.63828E+000	-1.17208E-006	0.00000E+000	-4.26436E-006	0.00000E+000	4.26350E-004	-3.27672E+002	7	...........
	77	78	3.63823E+000	-1.17207E-006	0.00000E+000	-4.26426E-006	0.00000E+000	4.28667E-004	-3.27672E+002	7	...........
	78	79	3.63822E+000	-1.17147E-006	0.00000E+000	-4.26204E-006	0.00000E+000	4.27817E-004	-3.27672E+002	7	...........
	79	80	3.63820E+000	-1.17182E-006	0.00000E+000	-4.26333E-006	0.00000E+000	4.26600E-004	-3.27672E+002	7	...........
	80	81	3.63817E+000	-1.17239E-006	0.00000E+000	-4.26536E-006	0.00000E+000	4.28467E-004	-3.27672E+002	7	...........
	81	82	3.63815E+000	-1.17208E-006	0.00000E+000	-4.26421E-006	0.00000E+000	4.28067E-004	-3.27672E+002	7	...........
	82	83	3.63812E+000	-1.17138E-006	0.00000E+000	-4.26162E-006	0.00000E+000	4.27217E-004	-3.27672E+002	7	...........
	83	84	3.63809E+000	-1.17116E-006	0.00000E+000	-4.26079E-006	0.00000E+000	4.26200E-004	-3.27672E+002	7	...........
	84	85	3.63807E+000	-1.17036E-006	0.00000E+000	-4.25785E-006	0.00000E+000	4.28683E-004	-3.27672E+002	7	...........
	85	86	3.63805E+000	-1.17123E-006	0.00000E+000	-4.26099E-006	0.00000E+000	4.29317E-004	-3.27672E+002	7	...........
	86	87	3.63802E+000	-1.17071E-006	0.00000E+000	-4.25907E-006	0.00000E+000	4.29500E-004	-3.27672E+002	7	...........
	87	88	3.63800E+000	-1.17050E-006	0.00000E+000	-4.25828E-006	0.00000E+000	4.28867E-004	-3.27672E+002	7	...........
	88	89	3.63798E+000	-1.17063E-006	0.00000E+000	-4.25871E-006	0.00000E+000	4.27917E-004	-3.27672E+002	7	...........
	89	90	3.63795E+000	-1.17003E-006	0.00000E+000	-4.25652E-006	0.00000E+000	4.26700E-004	-3.27672E+002	7	...........
	90	91	3.63792E+000	-1.17062E-006	0.00000E+000	-4.25863E-006	0.00000E+000	4.29633E-004	-3.27672E+002	7	...........
	91	92	3.63789E+000	-1.17054E-006	0.00000E+000	-4.25829E-006	0.00000E+000	4.29100E-004	-3.27672E+002	7	...........
	92	93	3.63787E+000	-1.16966E-006	0.00000E+000	-4.25507E-006	0.00000E+000	4.28583E-004	-3.27672E+002	7	...........
	93	94	3.63786E+000	-1.17029E-006	0.00000E+000	-4.25735E-006	0.00000E+000	4.28267E-004	-3.27672E+002	7	...........
	94	95	3.63783E+000	-1.17091E-006	0.00000E+000	-4.25956E-006	0.00000E+000	4.28000E-004	-3.27672E+002	7	...........
	95	96	3.63780E+000	-1.17082E-006	0.00000E+000	-4.25921E-006	0.00000E+000	4.30283E-004	-3.27672E+002	7	...........
	96	97	3.63778E+000	-1.17001E-006	0.00000E+000	-4.25626E-006	0.00000E+000	4.28350E-004	-3.27672E+002	7	...........
	97	98	3.63777E+000	-1.17111E-006	0.00000E+000	-4.26022E-006	0.00000E+000	4.31433E-004	-3.27672E+002	7	...........
	98	99	3.63775E+000	-1.17105E-006	0.00000E+000	-4.26000E-006	0.00000E+000	4.31333E-004	-3.27672E+002	7	...........
	99	100	3.63772E+000	-1.17004E-006	0.00000E+000	-4.25627E-006	0.00000E+000	4.30900E-004	-3.27672E+002	7	...........
	100	101	3.63769E+000	-1.16988E-006	0.00000E+000	-4.25566E-006	0.00000E+000	4.32300E-004	-3.27672E+002	7	...........
	101	102	3.63768E+000	-1.16945E-006	0.00000E+000	-4.25408E-006	0.00000E+000	4.30750E-004	-3.27672E+002	7	...........
	102	103	3.63765E+000	-1.16889E-006	0.00000E+000	-4.25201E-006	0.00000E+000	4.32667E-004	-3.27672E+002	7	...........
	103	104	3.63763E+000	-1.17066E-006	0.00000E+000	-4.25843E-006	0.00000E+000	4.34150E-004	-3.27672E+002	7	...........
	104	105	3.63761E+000	-1.16955E-006	0.00000E+000	-4.25438E-006	0.00000E+000	4.33483E-004	-3.27672E+002	7	...........
	105	106	3.63759E+000	-1.16962E-006	0.00000E+000	-4.25460E-006	0.00000E+000	4.31083E-004	-3.27672E+002	7	...........
	106	107	3.63758E+000	-1.16905E-006	0.00000E+000	-4.25252E-006	0.00000E+000	4.33767E-004	-3.27672E+002	7	...........
	107	108	3.63756E+000	-1.16842E-006	0.00000E+000	-4.25019E-006	0.00000E+000	4.31967E-004	-3.27672E+002	7	...........
	108	109	3.63754E+000	-1.16879E-006	0.00000E+000	-4.25151E-006	0.00000E+000	4.31517E-004	-3.27672E+002	7	...........
	109	110	3.63750E+000	-1.16817E-006	0.00000E+000	-4.24923E-006	0.00000E+000	4.35867E-004	-3.27672E+002	7	...........
	110	111	3.63750E+000	-1.16771E-006	0.00000E+000	-4.24755E-006	0.00000E+000	4.37817E-004	-3.27672E+002	7	...........
	111	112	3.63749E+000	-1.16892E-006	0.00000E+000	-4.25193E-006	0.00000E+000	4.37717E-004	-3.27672E+002	7	...........
	112	113	3.63746E+000	-1.16855E-006	0.00000E+000	-4.25054E-006	0.00000E+000	4.37650E-004	-3.27672E+002	7	...........
	113	114	3.63746E+000	-1.16862E-006	0.00000E+000	-4.25082E-006	0.00000E+000	4.34133E-004	-3.27672E+002	7	...........
	114	115	3.63744E+000	-1.16890E-006	0.00000E+000	-4.25180E-006	0.00000E+000	4.35867E-004	-3.27672E+002	7	...........
	115	116	3.63742E+000	-1.16887E-006	0.00000E+000	-4.25166E-006	0.00000E+000	4.35767E-004	-3.27672E+002	7	...........
	116	117	3.63741E+000	-1.16893E-006	0.00000E+000	-4.25189E-006	0.00000E+000	4.38133E-004	-3.27672E+002	7	...........
	117	118	3.63739E+000	-1.16793E-006	0.00000E+000	-4.24822E-006	0.00000E+000	4.35600E-004	-3.27672E+002	7	...........
	118	119	3.63738E+000	-1.16755E-006	0.00000E+000	-4.24684E-006	0.00000E+000	4.39967E-004	-3.27672E+002	7	...........
	119	120	3.63736E+000	-1.16649E-006	0.00000E+000	-4.24294E-006	0.00000E+000	4.37367E-004	-3.27672E+002	7	...........
	120	121	3.63736E+000	-1.16668E-006	0.00000E+000	-4.24363E-006	0.00000E+000	4.39850E-004	-3.27672E+002	7	...........
	121	122	3.63734E+000	-1.16727E-006	0.00000E+000	-4.24575E-006	0.00000E+000	4.37833E-004	-3.27672E+002	7	...........
	122	123	3.63733E+000	-1.16729E-006	0.00000E+000	-4.24581E-006	0.00000E+000	4.39467E-004	-3.27672E+002	7	...........
	123	124	3.63731E+000	-1.16727E-006	0.00000E+000	-4.24574E-006	0.00000E+000	4.41200E-004	-3.27672E+002	7	...........
	124	125	3.63731E+000	-1.16694E-006	0.00000E+000	-4.24451E-006	0.00000E+000	4.41283E-004	-3.27672E+002	7	...........
	125	126	3.63729E+000	-1.16646E-006	0.00000E+000	-4.24275E-006	0.00000E+000	4.42033E-004	-3.27672E+002	7	...........
	126	127	3.63727E+000	-1.16633E-006	0.00000E+000	-4.24226E-006	0.00000E+000	4.39450E-004	-3.27672E+002	7	...........
	127	128	3.63727E+000	-1.16710E-006	0.00000E+000	-4.24507E-006	0.00000E+000	4.44000E-004	-3.27672E+002	7	...........
	128	129	3.63726E+000	-1.16719E-006	0.00000E+000	-4.24536E-006	0.00000E+000	4.40783E-004	-3.27672E+002	7	...........
	129	130	3.63724E+000	-1.16724E-006	0.00000E+000	-4.24553E-006	0.00000E+000	4.38483E-004	-3.27672E+002	7	...........
	130	131	3.63723E+000	-1.16750E-006	0.00000E+000	-4.24649E-006	0.00000E+000	4.40700E-004	-3.27672E+002	7	...........
	131	132	3.63723E+000	-1.16750E-006	0.00000E+000	-4.24648E-006	0.00000E+000	4.43400E-004	-3.27672E+002	7	...........
	132	133	3.63721E+000	-1.16813E-006	0.00000E+000	-4.24872E-006	0.00000E+000	4.41800E-004	-3.27672E+002	7	...........
	133	134	3.63720E+000	-1.16746E-006	0.00000E+000	-4.24630E-006	0.00000E+000	4.42167E-004	-3.27672E+002	7	...........
	134	135	3.63718E+000	-1.16747E-006	0.00000E+000	-4.24629E-006	0.00000E+000	4.42033E-004	-3.27672E+002	7	...........
	135	136	3.63719E+000	-1.16725E-006	0.00000E+000	-4.24550E-006	0.00000E+000	4.43283E-004	-3.27672E+002	7	...........
	136	137	3.63718E+000	-1.16629E-006	0.00000E+000	-4.24200E-006	0.00000E+000	4.45133E-004	-3.27672E+002	7	...........
	137	138	3.63716E+000	-1.16640E-006	0.00000E+000	-4.24239E-006	0.00000E+000	4.41783E-004	-3.27672E+002	7	...........
	138	139	3.63715E+000	-1.16569E-006	0.00000E+000	-4.23979E-006	0.00000E+000	4.43683E-004	-3.27672E+002	7	...........
	139	140	3.63714E+000	-1.16601E-006	0.00000E+000	-4.24093E-006	0.00000E+000	4.41117E-004	-3.27672E+002	7	...........
	140	141	3.63713E+000	-1.16641E-006	0.00000E+000	-4.24240E-006	0.00000E+000	4.43100E-004	-3.27672E+002	7	...........
	141	142	3.63713E+000	-1.16682E-006	0.00000E+000	-4.24387E-006	0.00000E+000	4.40100E-004	-3.27672E+002	7	...........
	142	143	3.63711E+000	-1.16643E-006	0.00000E+000	-4.24243E-006	0.00000E+000	4.40983E-004	-3.27672E+002	7	...........
	143	144	3.63711E+000	-1.16671E-006	0.00000E+000	-4.24344E-006	0.00000E+000	4.42467E-004	-3.27672E+002	7	...........
	144	145	3.63710E+000	-1.16616E-006	0.00000E+000	-4.24145E-006	0.00000E+000	4.45433E-004	-3.27672E+002	7	...........
	145	146	3.63709E+000	-1.16649E-006	0.00000E+000	-4.24261E-006	0.00000E+000	4.44467E-004	-3.27672E+002	7	...........
	146	147	3.63708E+000	-1.16593E-006	0.00000E+000	-4.24057E-006	0.00000E+000	4.42933E-004	-3.27672E+002	7	...........
	147	148	3.63707E+000	-1.16656E-006	0.00000E+000	-4.24285E-006	0.00000E+000	4.43417E-004	-3.27672E+002	7	...........
	148	149	3.63706E+000	-1.16678E-006	0.00000E+000	-4.24366E-006	0.00000E+000	4.44683E-004	-3.27672E+002	7	...........
	149	150	3.63705E+000	-1.16719E-006	0.00000E+000	-4.24514E-006	0.00000E+000	4.44117E-004	-3.27672E+002	7	...........
	150	151	3.63704E+000	-1.16696E-006	0.00000E+000	-4.24427E-006	0.00000E+000	4.45283E-004	-3.27672E+002	7	...........
	151	152	3.63703E+000	-1.16707E-006	0.00000E+000	-4.24466E-006	0.00000E+000	4.42100E-004	-3.27672E+002	7	...........
	152	153	3.63703E+000	-1.16665E-006	0.00000E+000	-4.24312E-006	0.00000E+000	4.44367E-004	-3.27672E+002	7	...........
	153	154	3.63702E+000	-1.16699E-006	0.00000E+000	-4.24435E-006	0.00000E+000	4.45617E-004	-3.27672E+002	7	...........
	154	155	3.63701E+000	-1.16660E-006	0.00000E+000	-4.24294E-006	0.00000E+000	4.42367E-004	-3.27672E+002	7	...........
	155	156	3.63700E+000	-1.16574E-006	0.00000E+000	-4.23981E-006	0.00000E+000	4.42783E-004	-3.27672E+002	7	...........
	156	157	3.63700E+000	-1.16533E-006	0.00000E+000	-4.23829E-006	0.00000E+000	4.45367E-004	-3.27672E+002	7	...........
	157	158	3.63699E+000	-1.16543E-006	0.00000E+000	-4.23867E-006	0.00000E+000	4.43033E-004	-3.27672E+002	7	...........
	158	159	3.63698E+000	-1.16608E-006	0.00000E+000	-4.24103E-006	0.00000E+000	4.46250E-004	-3.27672E+002	7	...........
	159	160	3.63697E+000	-1.16559E-006	0.00000E+000	-4.23924E-006	0.00000E+000	4.45383E-004	-3.27672E+002	7	...........
	160	161	3.63697E+000	-1.16561E-006	0.00000E+000	-4.23928E-006	0.00000E+000	4.45667E-004	-3.27672E+002	7	...........
	161	162	3.63696E+000	-1.16531E-006	0.00000E+000	-4.23819E-006	0.00000E+000	4.45550E-004	-3.27672E+002	7	...........
	162	163	3.63695E+000	-1.16507E-006	0.00000E+000	-4.23731E-006	0.00000E+000	4.46283E-004	-3.27672E+002	7	...........
	163	164	3.63694E+000	-1.16557E-006	0.00000E+000	-4.23911E-006	0.00000E+000	4.45017E-004	-3.27672E+002	7	...........
	164	165	3.63693E+000	-1.16461E-006	0.00000E+000	-4.23560E-006	0.00000E+000	4.43050E-004	-3.27672E+002	7	...........
	165	166	3.63693E+000	-1.16566E-006	0.00000E+000	-4.23941E-006	0.00000E+000	4.42133E-004	-3.27672E+002	7	...........
	166	167	3.63692E+000	-1.16623E-006	0.00000E+000	-4.24149E-006	0.00000E+000	4.44283E-004	-3.27672E+002	7	...........
	167	168	3.63691E+000	-1.16590E-006	0.00000E+000	-4.24028E-006	0.00000E+000	4.44150E-004	-3.27672E+002	7	...........
	168	169	3.63691E+000	-1.16601E-006	0.00000E+000	-4.24068E-006	0.00000E+000	4.44900E-004	-3.27672E+002	7	...........
	169	170	3.63690E+000	-1.16633E-006	0.00000E+000	-4.24183E-006	0.00000E+000	4.42333E-004	-3.27672E+002	7	...........
	170	171	3.63690E+000	-1.16681E-006	0.00000E+000	-4.24356E-006	0.00000E+000	4.42733E-004	-3.27672E+002	7	...........
	171	172	3.63688E+000	-1.16696E-006	0.00000E+000	-4.24409E-006	0.00000E+000	4.41433E-004	-3.27672E+002	7	...........
	172	173	3.63688E+000	-1.16591E-006	0.00000E+000	-4.24028E-006	0.00000E+000	4.44633E-004	-3.27672E+002	7	...........
	173	174	3.63687E+000	-1.16567E-006	0.00000E+000	-4.23939E-006	0.00000E+000	4.44667E-004	-3.27672E+002	7	...........
	174	175	3.63686E+000	-1.16527E-006	0.00000E+000	-4.23793E-006	0.00000E+000	4.48917E-004	-3.27672E+002	7	...........
	175	176	3.63684E+000	-1.16494E-006	0.00000E+000	-4.23668E-006	0.00000E+000	4.46800E-004	-3.27672E+002	7	...........
	176	177	3.63684E+000	-1.16628E-006	0.00000E+000	-4.24157E-006	0.00000E+000	4.41383E-004	-3.27672E+002	7	...........
	177	178	3.63684E+000	-1.16543E-006	0.00000E+000	-4.23848E-006	0.00000E+000	4.44683E-004	-3.27672E+002	7	...........
	178	179	3.63683E+000	-1.16652E-006	0.00000E+000	-4.24242E-006	0.00000E+000	4.44883E-004	-3.27672E+002	7	...........
	179	180	3.63682E+000	-1.16492E-006	0.00000E+000	-4.23660E-006	0.00000E+000	4.47133E-004	-3.27672E+002	7	...........
	180	181	3.63681E+000	-1.16512E-006	0.00000E+000	-4.23732E-006	0.00000E+000	4.42867E-004	-3.27672E+002	7	...........
	181	182	3.63679E+000	-1.16531E-006	0.00000E+000	-4.23798E-006	0.00000E+000	4.43633E-004	-3.27672E+002	7	...........
	182	183	3.63679E+000	-1.16477E-006	0.00000E+000	-4.23603E-006	0.00000E+000	4.45100E-004	-3.27672E+002	7	...........
	183	184	3.63678E+000	-1.16450E-006	0.00000E+000	-4.23502E-006	0.00000E+000	4.43933E-004	-3.27672E+002	7	...........
	184	185	3.63677E+000	-1.16550E-006	0.00000E+000	-4.23864E-006	0.00000E+000	4.44450E-004	-3.27672E+002	7	...........
	185	186	3.63677E+000	-1.16531E-006	0.00000E+000	-4.23797E-006	0.00000E+000	4.42783E-004	-3.27672E+002	7	...........
	186	187	3.63677E+000	-1.16473E-006	0.00000E+000	-4.23584E-006	0.00000E+000	4.43267E-004	-3.27672E+002	7	...........
	187	188	3.63675E+000	-1.16541E-006	0.00000E+000	-4.23832E-006	0.00000E+000	4.47483E-004	-3.27672E+002	7	...........
	188	189	3.63675E+000	-1.16482E-006	0.00000E+000	-4.23615E-006	0.00000E+000	4.46333E-004	-3.27672E+002	7	...........
	189	190	3.63675E+000	-1.16493E-006	0.00000E+000	-4.23657E-006	0.00000E+000	4.45133E-004	-3.27672E+002	7	...........
	190	191	3.63673E+000	-1.16520E-006	0.00000E+000	-4.23753E-006	0.00000E+000	4.47317E-004	-3.27672E+002	7	...........
	191	192	3.63673E+000	-1.16431E-006	0.00000E+000	-4.23430E-006	0.00000E+000	4.46800E-004	-3.27672E+002	7	...........
	192	193	3.63672E+000	-1.16347E-006	0.00000E+000	-4.23122E-006	0.00000E+000	4.46433E-004	-3.27672E+002	7	...........
	193	194	3.63671E+000	-1.16313E-006	0.00000E+000	-4.22998E-006	0.00000E+000	4.47600E-004	-3.27672E+002	7	...........
	194	195	3.63670E+000	-1.16458E-006	0.00000E+000	-4.23523E-006	0.00000E+000	4.46333E-004	-3.27672E+002	7	...........
	195	196	3.63669E+000	-1.16477E-006	0.00000E+000	-4.23591E-006	0.00000E+000	4.46600E-004	-3.27672E+002	7	...........
	196	197	3.63669E+000	-1.16467E-006	0.00000E+000	-4.23554E-006	0.00000E+000	4.47017E-004	-3.27672E+002	7	...........
	197	198	3.63669E+000	-1.16459E-006	0.00000E+000	-4.23524E-006	0.00000E+000	4.46850E-004	-3.27672E+002	7	...........
	198	199	3.63667E+000	-1.16364E-006	0.00000E+000	-4.23176E-006	0.00000E+000	4.46733E-004	-3.27672E+002	7	...........
	199	200	3.63667E+000	-1.16392E-006	0.00000E+000	-4.23281E-006	0.00000E+000	4.46083E-004	-3.27672E+002	7	...........
	200	201	3.63667E+000	-1.16412E-006	0.00000E+000	-4.23351E-006	0.00000E+000	4.44917E-004	-3.27672E+002	7	...........
	201	202	3.63666E+000	-1.16388E-006	0.00000E+000	-4.23265E-006	0.00000E+000	4.46433E-004	-3.27672E+002	7	...........
	202	203	3.63664E+000	-1.16483E-006	0.00000E+000	-4.23605E-006	0.00000E+000	4.47733E-004	-3.27672E+002	7	...........
	203	204	3.63662E+000	-1.16474E-006	0.00000E+000	-4.23571E-006	0.00000E+000	4.47467E-004	-3.27672E+002	7	...........
	204	205	3.63662E+000	-1.16515E-006	0.00000E+000	-4.23719E-006	0.00000E+000	4.47383E-004	-3.27672E+002	7	...........
	205	206	3.63660E+000	-1.16473E-006	0.00000E+000	-4.23567E-006	0.00000E+000	4.42567E-004	-3.27672E+002	7	...........
	206	207	3.63660E+000	-1.16445E-006	0.00000E+000	-4.23465E-006	0.00000E+000	4.44750E-004	-3.27672E+002	7	...........
	207	208	3.63659E+000	-1.16406E-006	0.00000E+000	-4.23322E-006	0.00000E+000	4.48167E-004	-3.27672E+002	7	...........
	208	209	3.63659E+000	-1.16396E-006	0.00000E+000	-4.23284E-006	0.00000E+000	4.49367E-004	-3.27672E+002	7	...........
	209	210	3.63658E+000	-1.16386E-006	0.00000E+000	-4.23246E-006	0.00000E+000	4.48750E-004	-3.27672E+002	7	...........
	210	211	3.63657E+000	-1.16356E-006	0.00000E+000	-4.23136E-006	0.00000E+000	4.43750E-004	-3.27672E+002	7	...........
	211	212	3.63656E+000	-1.16233E-006	0.00000E+000	-4.22687E-006	0.00000E+000	4.47200E-004	-3.27672E+002	7	...........
	212	213	3.63655E+000	-1.16285E-006	0.00000E+000	-4.22875E-006	0.00000E+000	4.49150E-004	-3.27672E+002	7	...........
	213	214	3.63655E+000	-1.16386E-006	0.00000E+000	-4.23245E-006	0.00000E+000	4.48217E-004	-3.27672E+002	7	...........
	214	215	3.63653E+000	-1.16365E-006	0.00000E+000	-4.23164E-006	0.00000E+000	4.49383E-004	-3.27672E+002	7	...........
	215	216	3.63653E+000	-1.16358E-006	0.00000E+000	-4.23138E-006	0.00000E+000	4.50733E-004	-3.27672E+002	7	...........
	216	217	3.63652E+000	-1.16314E-006	0.00000E+000	-4.22979E-006	0.00000E+000	4.45800E-004	-3.27672E+002	7	...........
	217	218	3.63652E+000	-1.16323E-006	0.00000E+000	-4.23012E-006	0.00000E+000	4.47900E-004	-3.27672E+002	7	...........
	218	219	3.63651E+000	-1.16245E-006	0.00000E+000	-4.22725E-006	0.00000E+000	4.47917E-004	-3.27672E+002	7	...........
	219	220	3.63650E+000	-1.16304E-006	0.00000E+000	-4.22938E-006	0.00000E+000	4.51033E-004	-3.27672E+002	7	...........
	220	221	3.63649E+000	-1.16362E-006	0.00000E+000	-4.23149E-006	0.00000E+000	4.48283E-004	-3.27672E+002	7	...........
	221	222	3.63647E+000	-1.16305E-006	0.00000E+000	-4.22941E-006	0.00000E+000	4.47117E-004	-3.27672E+002	7	...........
	222	223	3.63646E+000	-1.16372E-006	0.00000E+000	-4.23184E-006	0.00000E+000	4.49733E-004	-3.27672E+002	7	...........
	223	224	3.63646E+000	-1.16376E-006	0.00000E+000	-4.23198E-006	0.00000E+000	4.46917E-004	-3.27672E+002	7	...........
	224	225	3.63644E+000	-1.16355E-006	0.00000E+000	-4.23119E-006	0.00000E+000	4.47033E-004	-3.27672E+002	7	...........
	225	226	3.63644E+000	-1.16391E-006	0.00000E+000	-4.23249E-006	0.00000E+000	4.47167E-004	-3.27672E+002	7	...........
	226	227	3.63643E+000	-1.16402E-006	0.00000E+000	-4.23287E-006	0.00000E+000	4.47583E-004	-3.27672E+002	7	...........
	227	228	3.63643E+000	-1.16339E-006	0.00000E+000	-4.23056E-006	0.00000E+000	4.50250E-004	-3.27672E+002	7	...........
	228	229	3.63642E+000	-1.16281E-006	0.00000E+000	-4.22847E-006	0.00000E+000	4.49083E-004	-3.27672E+002	7	...........
	229	230	3.63642E+000	-1.16225E-006	0.00000E+000	-4.22643E-006	0.00000E+000	4.47533E-004	-3.27672E+002	7	...........
	230	231	3.63641E+000	-1.16206E-006	0.00000E+000	-4.22574E-006	0.00000E+000	4.49383E-004	-3.27672E+002	7	...........
	231	232	3.63640E+000	-1.16245E-006	0.00000E+000	-4.22714E-006	0.00000E+000	4.48900E-004	-3.27672E+002	7	...........
	232	233	3.63639E+000	-1.16217E-006	0.00000E+000	-4.22612E-006	0.00000E+000	4.52417E-004	-3.27672E+002	7	...........
	233	234	3.63639E+000	-1.16238E-006	0.00000E+000	-4.22687E-006	0.00000E+000	4.48333E-004	-3.27672E+002	7	...........
	234	235	3.63637E+000	-1.16258E-006	0.00000E+000	-4.22757E-006	0.00000E+000	4.49067E-004	-3.27672E+002	7	...........
	235	236	3.63637E+000	-1.16292E-006	0.00000E+000	-4.22883E-006	0.00000E+000	4.49467E-004	-3.27672E+002	7	...........
	236	237	3.63637E+000	-1.16193E-006	0.00000E+000	-4.22520E-006	0.00000E+000	4.49067E-004	-3.27672E+002	7	...........
	237	238	3.63636E+000	-1.16261E-006	0.00000E+000	-4.22768E-006	0.00000E+000	4.48150E-004	-3.27672E+002	7	...........
	238	239	3.63636E+000	-1.16216E-006	0.00000E+000	-4.22603E-006	0.00000E+000	4.52217E-004	-3.27672E+002	7	...........
	239	240	3.63636E+000	-1.16248E-006	0.00000E+000	-4.22720E-006	0.00000E+000	4.50750E-004	-3.27672E+002	7	...........
	240	241	3.63635E+000	-1.16206E-006	0.00000E+000	-4.22566E-006	0.00000E+000	4.49217E-004	-3.27672E+002	7	...........
	241	242	3.63635E+000	-1.16302E-006	0.00000E+000	-4.22916E-006	0.00000E+000	4.50367E-004	-3.27672E+002	7	...........
	242	243	3.63633E+000	-1.16338E-006	0.00000E+000	-4.23044E-006	0.00000E+000	4.54100E-004	-3.27672E+002	7	...........
	243	244	3.63633E+000	-1.16305E-006	0.00000E+000	-4.22922E-006	0.00000E+000	4.50417E-004	-3.27672E+002	7	...........
	244	245	3.63632E+000	-1.16368E-006	0.00000E+000	-4.23150E-006	0.00000E+000	4.54817E-004	-3.27672E+002	7	...........
	245	246	3.63632E+000	-1.16330E-006	0.00000E+000	-4.23011E-006	0.00000E+000	4.53583E-004	-3.27672E+002	7	...........
	246	247	3.63631E+000	-1.16319E-006	0.00000E+000	-4.22972E-006	0.00000E+000	4.50317E-004	-3.27672E+002	7	...........
	247	248	3.63631E+000	-1.16215E-006	0.00000E+000	-4.22594E-006	0.00000E+000	4.51950E-004	-3.27672E+002	7	...........
	248	249	3.63630E+000	-1.16210E-006	0.00000E+000	-4.22573E-006	0.00000E+000	4.50167E-004	-3.27672E+002	7	...........
	249	250	3.63630E+000	-1.16322E-006	0.00000E+000	-4.22980E-006	0.00000E+000	4.51467E-004	-3.27672E+002	7	...........
	250	251	3.63629E+000	-1.16287E-006	0.00000E+000	-4.22853E-006	0.00000E+000	4.51733E-004	-3.27672E+002	7	...........
	251	252	3.63629E+000	-1.16318E-006	0.00000E+000	-4.22967E-006	0.00000E+000	4.51233E-004	-3.27672E+002	7	...........
	252	253	3.63628E+000	-1.16267E-006	0.00000E+000	-4.22778E-006	0.00000E+000	4.52450E-004	-3.27672E+002	7	...........
	253	254	3.63628E+000	-1.16285E-006	0.00000E+000	-4.22846E-006	0.00000E+000	4.50167E-004	-3.27672E+002	7	...........
	254	255	3.63627E+000	-1.16264E-006	0.00000E+000	-4.22766E-006	0.00000E+000	4.51083E-004	-3.27672E+002	7	...........
	255	256	3.63626E+000	-1.16288E-006	0.00000E+000	-4.22854E-006	0.00000E+000	4.53033E-004	-3.27672E+002	7	...........
	256	257	3.63625E+000	-1.16269E-006	0.00000E+000	-4.22785E-006	0.00000E+000	4.51517E-004	-3.27672E+002	7	...........
	257	258	3.63624E+000	-1.16283E-006	0.00000E+000	-4.22831E-006	0.00000E+000	4.52317E-004	-3.27672E+002	7	...........
	258	259	3.63623E+000	-1.16290E-006	0.00000E+000	-4.22857E-006	0.00000E+000	4.53050E-004	-3.27672E+002	7	...........
	259	260	3.63623E+000	-1.16265E-006	0.00000E+000	-4.22767E-006	0.00000E+000	4.53233E-004	-3.27672E+002	7	...........
	260	261	3.63623E+000	-1.16244E-006	0.00000E+000	-4.22691E-006	0.00000E+000	4.53333E-004	-3.27672E+002	7	...........
	261	262	3.63622E+000	-1.16236E-006	0.00000E+000	-4.22659E-006	0.00000E+000	4.53617E-004	-3.27672E+002	7	...........
	262	263	3.63622E+000	-1.16225E-006	0.00000E+000	-4.22618E-006	0.00000E+000	4.52983E-004	-3.27672E+002	7	...........
	263	264	3.63621E+000	-1.16216E-006	0.00000E+000	-4.22585E-006	0.00000E+000	4.55183E-004	-3.27672E+002	7	...........
	264	265	3.63620E+000	-1.16193E-006	0.00000E+000	-4.22503E-006	0.00000E+000	4.53117E-004	-3.27672E+002	7	...........
	265	266	3.63620E+000	-1.16136E-006	0.00000E+000	-4.22293E-006	0.00000E+000	4.51617E-004	-3.27672E+002	7	...........
	266	267	3.63618E+000	-1.16185E-006	0.00000E+000	-4.22468E-006	0.00000E+000	4.53433E-004	-3.27672E+002	7	...........
	267	268	3.63618E+000	-1.16203E-006	0.00000E+000	-4.22535E-006	0.00000E+000	4.53600E-004	-3.27672E+002	7	...........
	268	269	3.63618E+000	-1.16276E-006	0.00000E+000	-4.22799E-006	0.00000E+000	4.50733E-004	-3.27672E+002	7	...........
	269	270	3.63617E+000	-1.16253E-006	0.00000E+000	-4.22715E-006	0.00000E+000	4.53183E-004	-3.27672E+002	7	...........
	270	271	3.63617E+000	-1.16186E-006	0.00000E+000	-4.22471E-006	0.00000E+000	4.53550E-004	-3.27672E+002	7	...........
	271	272	3.63616E+000	-1.16243E-006	0.00000E+000	-4.22679E-006	0.00000E+000	4.54183E-004	-3.27672E+002	7	...........
	272	273	3.63615E+000	-1.16218E-006	0.00000E+000	-4.22585E-006	0.00000E+000	4.54300E-004	-3.27672E+002	7	...........
	273	274	3.63615E+000	-1.16219E-006	0.00000E+000	-4.22588E-006	0.00000E+000	4.52900E-004	-3.27672E+002	7	...........
	274	275	3.63614E+000	-1.16236E-006	0.00000E+000	-4.22649E-006	0.00000E+000	4.54133E-004	-3.27672E+002	7	...........
	275	276	3.63614E+000	-1.16190E-006	0.00000E+000	-4.22481E-006	0.00000E+000	4.54500E-004	-3.27672E+002	7	...........
	276	277	3.63612E+000	-1.16189E-006	0.00000E+000	-4.22479E-006	0.00000E+000	4.54550E-004	-3.27672E+002	7	...........
	277	278	3.63612E+000	-1.16157E-006	0.00000E+000	-4.22362E-006	0.00000E+000	4.52017E-004	-3.27672E+002	7	...........
	278	279	3.63611E+000	-1.16273E-006	0.00000E+000	-4.22783E-006	0.00000E+000	4.58917E-004	-3.27672E+002	7	...........
	279	280	3.63610E+000	-1.16255E-006	0.00000E+000	-4.22716E-006	0.00000E+000	4.54650E-004	-3.27672E+002	7	...........
	280	281	3.63611E+000	-1.16193E-006	0.00000E+000	-4.22490E-006	0.00000E+000	4.53917E-004	-3.27672E+002	7	...........
	281	282	3.63610E+000	-1.16162E-006	0.00000E+000	-4.22375E-006	0.00000E+000	4.56867E-004	-3.27672E+002	7	...........
	282	283	3.63610E+000	-1.16182E-006	0.00000E+000	-4.22448E-006	0.00000E+000	4.53267E-004	-3.27672E+002	7	...........
	283	284	3.63609E+000	-1.16106E-006	0.00000E+000	-4.22171E-006	0.00000E+000	4.50517E-004	-3.27672E+002	7	...........
	284	285	3.63609E+000	-1.16101E-006	0.00000E+000	-4.22152E-006	0.00000E+000	4.53167E-004	-3.27672E+002	7	...........
	285	286	3.63608E+000	-1.16151E-006	0.00000E+000	-4.22336E-006	0.00000E+000	4.53933E-004	-3.27672E+002	7	...........
	286	287	3.63606E+000	-1.16147E-006	0.00000E+000	-4.22319E-006	0.00000E+000	4.54083E-004	-3.27672E+002	7	...........
	287	288	3.63605E+000	-1.16213E-006	0.00000E+000	-4.22556E-006	0.00000E+000	4.54950E-004	-3.27672E+002	7	...........
	288	289	3.63605E+000	-1.16238E-006	0.00000E+000	-4.22646E-006	0.00000E+000	4.55067E-004	-3.27672E+002	7	...........
	289	290	3.63604E+000	-1.16216E-006	0.00000E+000	-4.22565E-006	0.00000E+000	4.57000E-004	-3.27672E+002	7	...........
	290	291	3.63604E+000	-1.16182E-006	0.00000E+000	-4.22441E-006	0.00000E+000	4.57333E-004	-3.27672E+002	7	...........
	291	292	3.63604E+000	-1.16138E-006	0.00000E+000	-4.22281E-006	0.00000E+000	4.53083E-004	-3.27672E+002	7	...........
	292	293	3.63604E+000	-1.16093E-006	0.00000E+000	-4.22120E-006	0.00000E+000	4.53100E-004	-3.27672E+002	7	...........
	293	294	3.63603E+000	-1.16196E-006	0.00000E+000	-4.22494E-006	0.00000E+000	4.56150E-004	-3.27672E+002	7	...........
	294	295	3.63602E+000	-1.16185E-006	0.00000E+000	-4.22452E-006	0.00000E+000	4.54467E-004	-3.27672E+002	7	...........
	295	296	3.63601E+000	-1.16175E-006	0.00000E+000	-4.22415E-006	0.00000E+000	4.57900E-004	-3.27672E+002	7	...........
	296	297	3.63600E+000	-1.16188E-006	0.00000E+000	-4.22459E-006	0.00000E+000	4.55317E-004	-3.27672E+002	7	...........
	297	298	3.63600E+000	-1.16197E-006	0.00000E+000	-4.22492E-006	0.00000E+000	4.56367E-004	-3.27672E+002	7	...........
	298	299	3.63600E+000	-1.16230E-006	0.00000E+000	-4.22611E-006	0.00000E+000	4.57433E-004	-3.27672E+002	7	...........
	299	300	3.63599E+000	-1.16183E-006	0.00000E+000	-4.22440E-006	0.00000E+000	4.56533E-004	-3.27672E+002	7	...........
	300	301	3.63599E+000	-1.16146E-006	0.00000E+000	-4.22307E-006	0.00000E+000	4.54550E-004	-3.27672E+002	7	...........
	301	302	3.63598E+000	-1.16115E-006	0.00000E+000	-4.22191E-006	0.00000E+000	4.57850E-004	-3.27672E+002	7	...........
	302	303	3.63599E+000	-1.16018E-006	0.00000E+000	-4.21839E-006	0.00000E+000	4.56983E-004	-3.27672E+002	7	...........
	303	304	3.63598E+000	-1.15994E-006	0.00000E+000	-4.21751E-006	0.00000E+000	4.57933E-004	-3.27672E+002	7	...........
	304	305	3.63596E+000	-1.16160E-006	0.00000E+000	-4.22354E-006	0.00000E+000	4.57217E-004	-3.27672E+002	7	...........
	305	306	3.63597E+000	-1.16162E-006	0.00000E+000	-4.22363E-006	0.00000E+000	4.53950E-004	-3.27672E+002	7	...........
	306	307	3.63596E+000	-1.16173E-006	0.00000E+000	-4.22399E-006	0.00000E+000	4.55067E-004	-3.27672E+002	7	...........
	307	308	3.63595E+000	-1.16172E-006	0.00000E+000	-4.22397E-006	0.00000E+000	4.56733E-004	-3.27672E+002	7	...........
	308	309	3.63594E+000	-1.16034E-006	0.00000E+000	-4.21893E-006	0.00000E+000	4.56067E-004	-3.27672E+002	7	...........
	309	310	3.63593E+000	-1.16083E-006	0.00000E+000	-4.22069E-006	0.00000E+000	4.55500E-004	-3.27672E+002	7	...........
	310	311	3.63593E+000	-1.16091E-006	0.00000E+000	-4.22098E-006	0.00000E+000	4.56800E-004	-3.27672E+002	7	...........
	311	312	3.63593E+000	-1.16076E-006	0.00000E+000	-4.22043E-006	0.00000E+000	4.57017E-004	-3.27672E+002	7	...........
	312	313	3.63592E+000	-1.16131E-006	0.00000E+000	-4.22242E-006	0.00000E+000	4.56650E-004	-3.27672E+002	7	...........
	313	314	3.63591E+000	-1.16153E-006	0.00000E+000	-4.22322E-006	0.00000E+000	4.53533E-004	-3.27672E+002	7	...........
	314	315	3.63590E+000	-1.16196E-006	0.00000E+000	-4.22475E-006	0.00000E+000	4.56833E-004	-3.27672E+002	7	...........
	315	316	3.63589E+000	-1.16197E-006	0.00000E+000	-4.22481E-006	0.00000E+000	4.56750E-004	-3.27672E+002	7	...........
	316	317	3.63590E+000	-1.16208E-006	0.00000E+000	-4.22522E-006	0.00000E+000	4.55183E-004	-3.27672E+002	7	...........
	317	318	3.63589E+000	-1.16173E-006	0.00000E+000	-4.22393E-006	0.00000E+000	4.55067E-004	-3.27672E+002	7	...........
	318	319	3.63589E+000	-1.16199E-006	0.00000E+000	-4.22486E-006	0.00000E+000	4.54750E-004	-3.27672E+002	7	...........
	319	320	3.63588E+000	-1.16115E-006	0.00000E+000	-4.22179E-006	0.00000E+000	4.56783E-004	-3.27672E+002	7	...........
	320	321	3.63589E+000	-1.16050E-006	0.00000E+000	-4.21946E-006	0.00000E+000	4.57467E-004	-3.27672E+002	7	...........
	321	322	3.63589E+000	-1.16140E-006	0.00000E+000	-4.22271E-006	0.00000E+000	4.58783E-004	-3.27672E+002	7	...........
	322	323	3.63588E+000	-1.16208E-006	0.00000E+000	-4.22520E-006	0.00000E+000	4.58117E-004	-3.27672E+002	7	...........
	323	324	3.63588E+000	-1.16158E-006	0.00000E+000	-4.22336E-006	0.00000E+000	4.58267E-004	-3.27672E+002	7	...........
	324	325	3.63587E+000	-1.16205E-006	0.00000E+000	-4.22504E-006	0.00000E+000	4.55483E-004	-3.27672E+002	7	...........
	325	326	3.63585E+000	-1.16137E-006	0.00000E+000	-4.22256E-006	0.00000E+000	4.55817E-004	-3.27672E+002	7	...........
	326	327	3.63586E+000	-1.16104E-006	0.00000E+000	-4.22136E-006	0.00000E+000	4.55750E-004	-3.27672E+002	7	...........
	327	328	3.63585E+000	-1.16074E-006	0.00000E+000	-4.22028E-006	0.00000E+000	4.56267E-004	-3.27672E+002	7	...........
	328	329	3.63585E+000	-1.16134E-006	0.00000E+000	-4.22247E-006	0.00000E+000	4.55167E-004	-3.27672E+002	7	...........
	329	330	3.63584E+000	-1.16108E-006	0.00000E+000	-4.22151E-006	0.00000E+000	4.56567E-004	-3.27672E+002	7	...........
	330	331	3.63584E+000	-1.16092E-006	0.00000E+000	-4.22093E-006	0.00000E+000	4.56500E-004	-3.27672E+002	7	...........
	331	332	3.63583E+000	-1.16175E-006	0.00000E+000	-4.22391E-006	0.00000E+000	4.56700E-004	-3.27672E+002	7	...........
	332	333	3.63582E+000	-1.16155E-006	0.00000E+000	-4.22317E-006	0.00000E+000	4.56117E-004	-3.27672E+002	7	...........
	333	334	3.63581E+000	-1.16200E-006	0.00000E+000	-4.22480E-006	0.00000E+000	4.55100E-004	-3.27672E+002	7	...........
	334	335	3.63581E+000	-1.16164E-006	0.00000E+000	-4.22352E-006	0.00000E+000	4.57400E-004	-3.27672E+002	7	...........
	335	336	3.63580E+000	-1.16190E-006	0.00000E+000	-4.22445E-006	0.00000E+000	4.57200E-004	-3.27672E+002	7	...........
	336	337	3.63580E+000	-1.16136E-006	0.00000E+000	-4.22248E-006	0.00000E+000	4.57900E-004	-3.27672E+002	7	...........
	337	338	3.63580E+000	-1.16111E-006	0.00000E+000	-4.22158E-006	0.00000E+000	4.55933E-004	-3.27672E+002	7	...........
	338	339	3.63579E+000	-1.16028E-006	0.00000E+000	-4.21852E-006	0.00000E+000	4.54867E-004	-3.27672E+002	7	...........
	339	340	3.63579E+000	-1.16053E-006	0.00000E+000	-4.21943E-006	0.00000E+000	4.54067E-004	-3.27672E+002	7	...........
	340	341	3.63578E+000	-1.16083E-006	0.00000E+000	-4.22052E-006	0.00000E+000	4.56150E-004	-3.27672E+002	7	...........
	341	342	3.63578E+000	-1.16135E-006	0.00000E+000	-4.22242E-006	0.00000E+000	4.53433E-004	-3.27672E+002	7	...........
	342	343	3.63578E+000	-1.16170E-006	0.00000E+000	-4.22370E-006	0.00000E+000	4.56167E-004	-3.27672E+002	7	...........
	343	344	3.63578E+000	-1.16000E-006	0.00000E+000	-4.21749E-006	0.00000E+000	4.52750E-004	-3.27672E+002	7	...........
	344	345	3.63577E+000	-1.16026E-006	0.00000E+000	-4.21845E-006	0.00000E+000	4.57467E-004	-3.27672E+002	7	...........
	345	346	3.63577E+000	-1.16027E-006	0.00000E+000	-4.21846E-006	0.00000E+000	4.57017E-004	-3.27672E+002	7	...........
	346	347	3.63575E+000	-1.16048E-006	0.00000E+000	-4.21923E-006	0.00000E+000	4.56267E-004	-3.27672E+002	7	...........
	347	348	3.63575E+000	-1.16071E-006	0.00000E+000	-4.22004E-006	0.00000E+000	4.51817E-004	-3.27672E+002	7	...........
	348	349	3.63574E+000	-1.16009E-006	0.00000E+000	-4.21778E-006	0.00000E+000	4.51683E-004	-3.27672E+002	7	...........
	349	350	3.63575E+000	-1.16056E-006	0.00000E+000	-4.21950E-006	0.00000E+000	4.55583E-004	-3.27672E+002	7	...........
	350	351	3.63573E+000	-1.16077E-006	0.00000E+000	-4.22025E-006	0.00000E+000	4.52000E-004	-3.27672E+002	7	...........
	351	352	3.63572E+000	-1.16021E-006	0.00000E+000	-4.21820E-006	0.00000E+000	4.54567E-004	-3.27672E+002	7	...........
	352	353	3.63572E+000	-1.16101E-006	0.00000E+000	-4.22111E-006	0.00000E+000	4.55900E-004	-3.27672E+002	7	...........
	353	354	3.63571E+000	-1.15983E-006	0.00000E+000	-4.21679E-006	0.00000E+000	4.53717E-004	-3.27672E+002	7	...........
	354	355	3.63572E+000	-1.16034E-006	0.00000E+000	-4.21868E-006	0.00000E+000	4.53267E-004	-3.27672E+002	7	...........
	355	356	3.63571E+000	-1.16116E-006	0.00000E+000	-4.22166E-006	0.00000E+000	4.56183E-004	-3.27672E+002	7	...........
	356	357	3.63570E+000	-1.15935E-006	0.00000E+000	-4.21505E-006	0.00000E+000	4.57350E-004	-3.27672E+002	7	...........
	357	358	3.63570E+000	-1.15858E-006	0.00000E+000	-4.21227E-006	0.00000E+000	4.53333E-004	-3.27672E+002	7	...........
	358	359	3.63569E+000	-1.16003E-006	0.00000E+000	-4.21752E-006	0.00000E+000	4.53500E-004	-3.27672E+002	7	...........
	359	360	3.63569E+000	-1.15994E-006	0.00000E+000	-4.21719E-006	0.00000E+000	4.51117E-004	-3.27672E+002	7	...........
	360	361	3.63568E+000	-1.16082E-006	0.00000E+000	-4.22036E-006	0.00000E+000	4.55650E-004	-3.27672E+002	7	...........
	361	362	3.63568E+000	-1.16014E-006	0.00000E+000	-4.21790E-006	0.00000E+000	4.55417E-004	-3.27672E+002	7	...........
	362	363	3.63568E+000	-1.16071E-006	0.00000E+000	-4.21997E-006	0.00000E+000	4.54950E-004	-3.27672E+002	7	...........
	363	364	3.63566E+000	-1.16046E-006	0.00000E+000	-4.21903E-006	0.00000E+000	4.56333E-004	-3.27672E+002	7	...........
	364	365	3.63566E+000	-1.15932E-006	0.00000E+000	-4.21490E-006	0.00000E+000	4.53000E-004	-3.27672E+002	7	...........
	365	366	3.63564E+000	-1.16016E-006	0.00000E+000	-4.21792E-006	0.00000E+000	4.54767E-004	-3.27672E+002	7	...........
	366	367	3.63565E+000	-1.16063E-006	0.00000E+000	-4.21966E-006	0.00000E+000	4.53700E-004	-3.27672E+002	7	...........
	367	368	3.63564E+000	-1.16099E-006	0.00000E+000	-4.22094E-006	0.00000E+000	4.53100E-004	-3.27672E+002	7	...........
	368	369	3.63564E+000	-1.16060E-006	0.00000E+000	-4.21951E-006	0.00000E+000	4.51617E-004	-3.27672E+002	7	...........
	369	370	3.63563E+000	-1.16071E-006	0.00000E+000	-4.21992E-006	0.00000E+000	4.53867E-004	-3.27672E+002	7	...........
	370	371	3.63563E+000	-1.16007E-006	0.00000E+000	-4.21760E-006	0.00000E+000	4.53300E-004	-3.27672E+002	7	...........
	371	372	3.63562E+000	-1.16106E-006	0.00000E+000	-4.22118E-006	0.00000E+000	4.52283E-004	-3.27672E+002	7	...........
	372	373	3.63561E+000	-1.16079E-006	0.00000E+000	-4.22017E-006	0.00000E+000	4.52967E-004	-3.27672E+002	7	...........
	373	374	3.63561E+000	-1.16053E-006	0.00000E+000	-4.21923E-006	0.00000E+000	4.51133E-004	-3.27672E+002	7	...........
	374	375	3.63561E+000	-1.15954E-006	0.00000E+000	-4.21563E-006	0.00000E+000	4.53000E-004	-3.27672E+002	7	...........
	375	376	3.63559E+000	-1.15963E-006	0.00000E+000	-4.21594E-006	0.00000E+000	4.55233E-004	-3.27672E+002	7	...........
	376	377	3.63560E+000	-1.15971E-006	0.00000E+000	-4.21624E-006	0.00000E+000	4.54783E-004	-3.27672E+002	7	...........
	377	378	3.63559E+000	-1.16078E-006	0.00000E+000	-4.22013E-006	0.00000E+000	4.56767E-004	-3.27672E+002	7	...........
	378	379	3.63560E+000	-1.16053E-006	0.00000E+000	-4.21924E-006	0.00000E+000	4.54267E-004	-3.27672E+002	7	...........
	379	380	3.63559E+000	-1.16009E-006	0.00000E+000	-4.21759E-006	0.00000E+000	4.54350E-004	-3.27672E+002	7	...........
	380	381	3.63558E+000	-1.16042E-006	0.00000E+000	-4.21878E-006	0.00000E+000	4.52050E-004	-3.27672E+002	7	...........
	381	382	3.63559E+000	-1.16011E-006	0.00000E+000	-4.21769E-006	0.00000E+000	4.53633E-004	-3.27672E+002	7	...........
	382	383	3.63558E+000	-1.16025E-006	0.00000E+000	-4.21819E-006	0.00000E+000	4.53800E-004	-3.27672E+002	7	...........
	383	384	3.63557E+000	-1.15981E-006	0.00000E+000	-4.21657E-006	0.00000E+000	4.56233E-004	-3.27672E+002	7	...........
	384	385	3.63557E+000	-1.16040E-006	0.00000E+000	-4.21871E-006	0.00000E+000	4.56700E-004	-3.27672E+002	7	...........
	385	386	3.63556E+000	-1.16077E-006	0.00000E+000	-4.22004E-006	0.00000E+000	4.54533E-004	-3.27672E+002	7	...........
	386	387	3.63556E+000	-1.16076E-006	0.00000E+000	-4.22001E-006	0.00000E+000	4.53250E-004	-3.27672E+002	7	...........
	387	388	3.63556E+000	-1.16119E-006	0.00000E+000	-4.22159E-006	0.00000E+000	4.52733E-004	-3.27672E+002	7	...........
	388	389	3.63555E+000	-1.16118E-006	0.00000E+000	-4.22151E-006	0.00000E+000	4.52500E-004	-3.27672E+002	7	...........
	389	390	3.63554E+000	-1.16117E-006	0.00000E+000	-4.22148E-006	0.00000E+000	4.52850E-004	-3.27672E+002	7	...........
	390	391	3.63554E+000	-1.16105E-006	0.00000E+000	-4.22103E-006	0.00000E+000	4.50300E-004	-3.27672E+002	7	...........
	391	392	3.63554E+000	-1.16080E-006	0.00000E+000	-4.22012E-006	0.00000E+000	4.50367E-004	-3.27672E+002	7	...........
	392	393	3.63553E+000	-1.16087E-006	0.00000E+000	-4.22037E-006	0.00000E+000	4.51750E-004	-3.27672E+002	7	...........
	393	394	3.63552E+000	-1.16024E-006	0.00000E+000	-4.21809E-006	0.00000E+000	4.53000E-004	-3.27672E+002	7	...........
	394	395	3.63551E+000	-1.16031E-006	0.00000E+000	-4.21832E-006	0.00000E+000	4.51100E-004	-3.27672E+002	7	...........
	395	396	3.63551E+000	-1.16197E-006	0.00000E+000	-4.22437E-006	0.00000E+000	4.52400E-004	-3.27672E+002	7	...........
	396	397	3.63552E+000	-1.16155E-006	0.00000E+000	-4.22284E-006	0.00000E+000	4.51117E-004	-3.27672E+002	7	...........
	397	398	3.63552E+000	-1.16130E-006	0.00000E+000	-4.22192E-006	0.00000E+000	4.51517E-004	-3.27672E+002	7	...........
	398	399	3.63551E+000	-1.16082E-006	0.00000E+000	-4.22017E-006	0.00000E+000	4.53167E-004	-3.27672E+002	7	...........
	399	400	3.63550E+000	-1.16128E-006	0.00000E+000	-4.22184E-006	0.00000E+000	4.51683E-004	-3.27672E+002	7	...........
	400	401	3.63549E+000	-1.16040E-006	0.00000E+000	-4.21862E-006	0.00000E+000	4.50350E-004	-3.27672E+002	7	...........
	401	402	3.63548E+000	-1.16161E-006	0.00000E+000	-4.22300E-006	0.00000E+000	4.50017E-004	-3.27672E+002	7	...........
	402	403	3.63549E+000	-1.16111E-006	0.00000E+000	-4.22122E-006	0.00000E+000	4.52033E-004	-3.27672E+002	7	...........
	403	404	3.63549E+000	-1.16161E-006	0.00000E+000	-4.22301E-006	0.00000E+000	4.55083E-004	-3.27672E+002	7	...........
	404	405	3.63549E+000	-1.16093E-006	0.00000E+000	-4.22053E-006	0.00000E+000	4.52383E-004	-3.27672E+002	7	...........
	405	406	3.63547E+000	-1.16147E-006	0.00000E+000	-4.22249E-006	0.00000E+000	4.54317E-004	-3.27672E+002	7	...........
	406	407	3.63548E+000	-1.16143E-006	0.00000E+000	-4.22236E-006	0.00000E+000	4.52933E-004	-3.27672E+002	7	...........
	407	408	3.63547E+000	-1.16184E-006	0.00000E+000	-4.22384E-006	0.00000E+000	4.49100E-004	-3.27672E+002	7	...........
	408	409	3.63547E+000	-1.16151E-006	0.00000E+000	-4.22265E-006	0.00000E+000	4.56900E-004	-3.27672E+002	7	...........
	409	410	3.63546E+000	-1.16171E-006	0.00000E+000	-4.22335E-006	0.00000E+000	4.53133E-004	-3.27672E+002	7	...........
	410	411	3.63545E+000	-1.16059E-006	0.00000E+000	-4.21927E-006	0.00000E+000	4.51800E-004	-3.27672E+002	7	...........
	411	412	3.63545E+000	-1.16064E-006	0.00000E+000	-4.21944E-006	0.00000E+000	4.50733E-004	-3.27672E+002	7	...........
	412	413	3.63545E+000	-1.15917E-006	0.00000E+000	-4.21411E-006	0.00000E+000	4.51633E-004	-3.27672E+002	7	...........
	413	414	3.63544E+000	-1.16119E-006	0.00000E+000	-4.22145E-006	0.00000E+000	4.51367E-004	-3.27672E+002	7	...........
	414	415	3.63544E+000	-1.16122E-006	0.00000E+000	-4.22155E-006	0.00000E+000	4.49067E-004	-3.27672E+002	7	...........
	415	416	3.63544E+000	-1.16095E-006	0.00000E+000	-4.22058E-006	0.00000E+000	4.52033E-004	-3.27672E+002	7	...........
	416	417	3.63542E+000	-1.16075E-006	0.00000E+000	-4.21982E-006	0.00000E+000	4.49183E-004	-3.27672E+002	7	...........
	417	418	3.63543E+000	-1.16005E-006	0.00000E+000	-4.21729E-006	0.00000E+000	4.53967E-004	-3.27672E+002	7	...........
	418	419	3.63543E+000	-1.16117E-006	0.00000E+000	-4.22134E-006	0.00000E+000	4.51550E-004	-3.27672E+002	7	...........
	419	420	3.63543E+000	-1.16093E-006	0.00000E+000	-4.22047E-006	0.00000E+000	4.50867E-004	-3.27672E+002	7	...........
	420	421	3.63542E+000	-1.16067E-006	0.00000E+000	-4.21951E-006	0.00000E+000	4.51567E-004	-3.27672E+002	7	...........
	421	422	3.63541E+000	-1.16177E-006	0.00000E+000	-4.22349E-006	0.00000E+000	4.51933E-004	-3.27672E+002	7	...........
	422	423	3.63541E+000	-1.16192E-006	0.00000E+000	-4.22403E-006	0.00000E+000	4.53367E-004	-3.27672E+002	7	...........
	423	424	3.63540E+000	-1.16205E-006	0.00000E+000	-4.22454E-006	0.00000E+000	4.52350E-004	-3.27672E+002	7	...........
	424	425	3.63540E+000	-1.16148E-006	0.00000E+000	-4.22245E-006	0.00000E+000	4.50700E-004	-3.27672E+002	7	...........
	425	426	3.63539E+000	-1.16100E-006	0.00000E+000	-4.22070E-006	0.00000E+000	4.47950E-004	-3.27672E+002	7	...........
	426	427	3.63540E+000	-1.16118E-006	0.00000E+000	-4.22134E-006	0.00000E+000	4.48867E-004	-3.27672E+002	7	...........
	427	428	3.63539E+000	-1.16138E-006	0.00000E+000	-4.22205E-006	0.00000E+000	4.52600E-004	-3.27672E+002	7	...........
	428	429	3.63538E+000	-1.16113E-006	0.00000E+000	-4.22114E-006	0.00000E+000	4.48367E-004	-3.27672E+002	7	...........
	429	430	3.63538E+000	-1.16096E-006	0.00000E+000	-4.22052E-006	0.00000E+000	4.48933E-004	-3.27672E+002	7	...........
	430	431	3.63538E+000	-1.16001E-006	0.00000E+000	-4.21709E-006	0.00000E+000	4.50650E-004	-3.27672E+002	7	...........
	431	432	3.63537E+000	-1.16045E-006	0.00000E+000	-4.21866E-006	0.00000E+000	4.49983E-004	-3.27672E+002	7	...........
	432	433	3.63538E+000	-1.16144E-006	0.00000E+000	-4.22229E-006	0.00000E+000	4.50700E-004	-3.27672E+002	7	...........
	433	434	3.63537E+000	-1.16117E-006	0.00000E+000	-4.22128E-006	0.00000E+000	4.53400E-004	-3.27672E+002	7	...........
	434	435	3.63537E+000	-1.16141E-006	0.00000E+000	-4.22214E-006	0.00000E+000	4.48550E-004	-3.27672E+002	7	...........
	435	436	3.63535E+000	-1.16070E-006	0.00000E+000	-4.21957E-006	0.00000E+000	4.48650E-004	-3.27672E+002	7	...........
	436	437	3.63535E+000	-1.16084E-006	0.00000E+000	-4.22005E-006	0.00000E+000	4.51317E-004	-3.27672E+002	7	...........
	437	438	3.63534E+000	-1.16081E-006	0.00000E+000	-4.21995E-006	0.00000E+000	4.49917E-004	-3.27672E+002	7	...........
	438	439	3.63534E+000	-1.16026E-006	0.00000E+000	-4.21795E-006	0.00000E+000	4.50383E-004	-3.27672E+002	7	...........
	439	440	3.63535E+000	-1.16051E-006	0.00000E+000	-4.21887E-006	0.00000E+000	4.48917E-004	-3.27672E+002	7	...........
	440	441	3.63534E+000	-1.16061E-006	0.00000E+000	-4.21920E-006	0.00000E+000	4.51233E-004	-3.27672E+002	7	...........
	441	442	3.63533E+000	-1.16054E-006	0.00000E+000	-4.21896E-006	0.00000E+000	4.48617E-004	-3.27672E+002	7	...........
	442	443	3.63534E+000	-1.16041E-006	0.00000E+000	-4.21846E-006	0.00000E+000	4.51867E-004	-3.27672E+002	7	...........
	443	444	3.63534E+000	-1.16024E-006	0.00000E+000	-4.21785E-006	0.00000E+000	4.49500E-004	-3.27672E+002	7	...........
	444	445	3.63533E+000	-1.16029E-006	0.00000E+000	-4.21805E-006	0.00000E+000	4.49750E-004	-3.27672E+002	7	...........
	445	446	3.63532E+000	-1.15999E-006	0.00000E+000	-4.21695E-006	0.00000E+000	4.46983E-004	-3.27672E+002	7	...........
	446	447	3.63532E+000	-1.16076E-006	0.00000E+000	-4.21973E-006	0.00000E+000	4.47417E-004	-3.27672E+002	7	...........
	447	448	3.63532E+000	-1.16048E-006	0.00000E+000	-4.21872E-006	0.00000E+000	4.50117E-004	-3.27672E+002	7	...........
	448	449	3.63532E+000	-1.16082E-006	0.00000E+000	-4.21996E-006	0.00000E+000	4.46967E-004	-3.27672E+002	7	...........
	449	450	3.63531E+000	-1.15997E-006	0.00000E+000	-4.21686E-006	0.00000E+000	4.48033E-004	-3.27672E+002	7	...........
	450	451	3.63531E+000	-1.16076E-006	0.00000E+000	-4.21974E-006	0.00000E+000	4.48350E-004	-3.27672E+002	7	...........
	451	452	3.63531E+000	-1.16017E-006	0.00000E+000	-4.21757E-006	0.00000E+000	4.48767E-004	-3.27672E+002	7	...........
	452	453	3.63530E+000	-1.16050E-006	0.00000E+000	-4.21876E-006	0.00000E+000	4.48883E-004	-3.27672E+002	7	...........
	453	454	3.63530E+000	-1.16073E-006	0.00000E+000	-4.21960E-006	0.00000E+000	4.48283E-004	-3.27672E+002	7	...........
	454	455	3.63529E+000	-1.16056E-006	0.00000E+000	-4.21897E-006	0.00000E+000	4.45867E-004	-3.27672E+002	7	...........
	455	456	3.63529E+000	-1.16029E-006	0.00000E+000	-4.21799E-006	0.00000E+000	4.50883E-004	-3.27672E+002	7	...........
	456	457	3.63529E+000	-1.16007E-006	0.00000E+000	-4.21720E-006	0.00000E+000	4.46800E-004	-3.27672E+002	7	...........
	457	458	3.63529E+000	-1.15925E-006	0.00000E+000	-4.21421E-006	0.00000E+000	4.49900E-004	-3.27672E+002	7	...........
	458	459	3.63528E+000	-1.16005E-006	0.00000E+000	-4.21709E-006	0.00000E+000	4.46983E-004	-3.27672E+002	7	...........
	459	460	3.63528E+000	-1.16034E-006	0.00000E+000	-4.21817E-006	0.00000E+000	4.46550E-004	-3.27672E+002	7	...........
	460	461	3.63528E+000	-1.16017E-006	0.00000E+000	-4.21756E-006	0.00000E+000	4.49233E-004	-3.27672E+002	7	...........
	461	462	3.63527E+000	-1.16005E-006	0.00000E+000	-4.21710E-006	0.00000E+000	4.47417E-004	-3.27672E+002	7	...........
	462	463	3.63526E+000	-1.16026E-006	0.00000E+000	-4.21786E-006	0.00000E+000	4.45433E-004	-3.27672E+002	7	...........
	463	464	3.63525E+000	-1.16039E-006	0.00000E+000	-4.21832E-006	0.00000E+000	4.46817E-004	-3.27672E+002	7	...........
	464	465	3.63526E+000	-1.15967E-006	0.00000E+000	-4.21571E-006	0.00000E+000	4.46950E-004	-3.27672E+002	7	...........
	465	466	3.63526E+000	-1.16003E-006	0.00000E+000	-4.21702E-006	0.00000E+000	4.47833E-004	-3.27672E+002	7	...........
	466	467	3.63525E+000	-1.15991E-006	0.00000E+000	-4.21656E-006	0.00000E+000	4.46017E-004	-3.27672E+002	7	...........
	467	468	3.63525E+000	-1.15867E-006	0.00000E+000	-4.21206E-006	0.00000E+000	4.47783E-004	-3.27672E+002	7	...........
	468	469	3.63525E+000	-1.15926E-006	0.00000E+000	-4.21421E-006	0.00000E+000	4.48567E-004	-3.27672E+002	7	...........
	469	470	3.63525E+000	-1.16029E-006	0.00000E+000	-4.21796E-006	0.00000E+000	4.43667E-004	-3.27672E+002	7	...........
	470	471	3.63524E+000	-1.16034E-006	0.00000E+000	-4.21810E-006	0.00000E+000	4.47850E-004	-3.27672E+002	7	...........
	471	472	3.63524E+000	-1.15957E-006	0.00000E+000	-4.21530E-006	0.00000E+000	4.50333E-004	-3.27672E+002	7	...........
	472	473	3.63523E+000	-1.15941E-006	0.00000E+000	-4.21471E-006	0.00000E+000	4.48833E-004	-3.27672E+002	7	...........
	473	474	3.63523E+000	-1.16031E-006	0.00000E+000	-4.21800E-006	0.00000E+000	4.44850E-004	-3.27672E+002	7	...........
	474	475	3.63523E+000	-1.16035E-006	0.00000E+000	-4.21814E-006	0.00000E+000	4.47150E-004	-3.27672E+002	7	...........
	475	476	3.63523E+000	-1.15981E-006	0.00000E+000	-4.21619E-006	0.00000E+000	4.47233E-004	-3.27672E+002	7	...........
	476	477	3.63522E+000	-1.16000E-006	0.00000E+000	-4.21684E-006	0.00000E+000	4.47583E-004	-3.27672E+002	7	...........
	477	478	3.63521E+000	-1.15985E-006	0.00000E+000	-4.21630E-006	0.00000E+000	4.48617E-004	-3.27672E+002	7	...........
	478	479	3.63521E+000	-1.16056E-006	0.00000E+000	-4.21889E-006	0.00000E+000	4.46000E-004	-3.27672E+002	7	...........
	479	480	3.63522E+000	-1.16055E-006	0.00000E+000	-4.21887E-006	0.00000E+000	4.46250E-004	-3.27672E+002	7	...........
	480	481	3.63521E+000	-1.16096E-006	0.00000E+000	-4.22034E-006	0.00000E+000	4.48900E-004	-3.27672E+002	7	...........
	481	482	3.63520E+000	-1.16145E-006	0.00000E+000	-4.22210E-006	0.00000E+000	4.49633E-004	-3.27672E+002	7	...........
	482	483	3.63520E+000	-1.16035E-006	0.00000E+000	-4.21809E-006	0.00000E+000	4.49533E-004	-3.27672E+002	7	...........
	483	484	3.63519E+000	-1.16046E-006	0.00000E+000	-4.21850E-006	0.00000E+000	4.49983E-004	-3.27672E+002	7	...........
	484	485	3.63519E+000	-1.15929E-006	0.00000E+000	-4.21424E-006	0.00000E+000	4.49017E-004	-3.27672E+002	7	...........
	485	486	3.63519E+000	-1.15910E-006	0.00000E+000	-4.21356E-006	0.00000E+000	4.46533E-004	-3.27672E+002	7	...........
	486	487	3.63519E+000	-1.15833E-006	0.00000E+000	-4.21076E-006	0.00000E+000	4.47833E-004	-3.27672E+002	7	...........
	487	488	3.63518E+000	-1.15999E-006	0.00000E+000	-4.21676E-006	0.00000E+000	4.47467E-004	-3.27672E+002	7	...........
	488	489	3.63518E+000	-1.16063E-006	0.00000E+000	-4.21909E-006	0.00000E+000	4.45417E-004	-3.27672E+002	7	...........
	489	490	3.63517E+000	-1.16034E-006	0.00000E+000	-4.21806E-006	0.00000E+000	4.47567E-004	-3.27672E+002	7	...........
	490	491	3.63517E+000	-1.16000E-006	0.00000E+000	-4.21680E-006	0.00000E+000	4.44017E-004	-3.27672E+002	7	...........
	491	492	3.63518E+000	-1.15977E-006	0.00000E+000	-4.21596E-006	0.00000E+000	4.46467E-004	-3.27672E+002	7	...........
	492	493	3.63517E+000	-1.16012E-006	0.00000E+000	-4.21725E-006	0.00000E+000	4.43533E-004	-3.27672E+002	7	...........
	493	494	3.63517E+000	-1.16055E-006	0.00000E+000	-4.21878E-006	0.00000E+000	4.45300E-004	-3.27672E+002	7	...........
	494	495	3.63517E+000	-1.16016E-006	0.00000E+000	-4.21737E-006	0.00000E+000	4.44900E-004	-3.27672E+002	7	...........
	495	496	3.63517E+000	-1.16077E-006	0.00000E+000	-4.21959E-006	0.00000E+000	4.49133E-004	-3.27672E+002	7	...........
	496	497	3.63516E+000	-1.16069E-006	0.00000E+000	-4.21928E-006	0.00000E+000	4.44417E-004	-3.27672E+002	7	...........
	497	498	3.63516E+000	-1.15993E-006	0.00000E+000	-4.21652E-006	0.00000E+000	4.44433E-004	-3.27672E+002	7	...........
	498	499	3.63516E+000	-1.16065E-006	0.00000E+000	-4.21913E-006	0.00000E+000	4.45567E-004	-3.27672E+002	7	...........
	499	500	3.63515E+000	-1.16141E-006	0.00000E+000	-4.22189E-006	0.00000E+000	4.48267E-004	-3.27672E+002	7	...........
	500	501	3.63515E+000	-1.16047E-006	0.00000E+000	-4.21848E-006	0.00000E+000	4.47033E-004	-3.27672E+002	7	...........
	501	502	3.63515E+000	-1.16060E-006	0.00000E+000	-4.21897E-006	0.00000E+000	4.43917E-004	-3.27672E+002	7	...........
	502	503	3.63515E+000	-1.16051E-006	0.00000E+000	-4.21862E-006	0.00000E+000	4.44883E-004	-3.27672E+002	7	...........
	503	504	3.63514E+000	-1.15950E-006	0.00000E+000	-4.21495E-006	0.00000E+000	4.44317E-004	-3.27672E+002	7	...........
	504	505	3.63513E+000	-1.15926E-006	0.00000E+000	-4.21406E-006	0.00000E+000	4.45883E-004	-3.27672E+002	7	...........
	505	506	3.63513E+000	-1.15960E-006	0.00000E+000	-4.21528E-006	0.00000E+000	4.46033E-004	-3.27672E+002	7	...........
	506	507	3.63513E+000	-1.16004E-006	0.00000E+000	-4.21688E-006	0.00000E+000	4.43517E-004	-3.27672E+002	7	...........
	507	508	3.63512E+000	-1.15936E-006	0.00000E+000	-4.21443E-006	0.00000E+000	4.43617E-004	-3.27672E+002	7	...........
	508	509	3.63512E+000	-1.15956E-006	0.00000E+000	-4.21514E-006	0.00000E+000	4.46217E-004	-3.27672E+002	7	...........
	509	510	3.63512E+000	-1.15887E-006	0.00000E+000	-4.21264E-006	0.00000E+000	4.46233E-004	-3.27672E+002	7	...........
	510	511	3.63511E+000	-1.15881E-006	0.00000E+000	-4.21240E-006	0.00000E+000	4.46333E-004	-3.27672E+002	7	...........
	511	512	3.63511E+000	-1.15831E-006	0.00000E+000	-4.21059E-006	0.00000E+000	4.45833E-004	-3.27672E+002	7	...........
	512	513	3.63511E+000	-1.15870E-006	0.00000E+000	-4.21199E-006	0.00000E+000	4.41550E-004	-3.27672E+002	7	...........
	513	514	3.63511E+000	-1.15949E-006	0.00000E+000	-4.21485E-006	0.00000E+000	4.44117E-004	-3.27672E+002	7	...........
	514	515	3.63511E+000	-1.15972E-006	0.00000E+000	-4.21572E-006	0.00000E+000	4.45283E-004	-3.27672E+002	7	...........
	515	516	3.63511E+000	-1.15977E-006	0.00000E+000	-4.21589E-006	0.00000E+000	4.40467E-004	-3.27672E+002	7	...........
	516	517	3.63511E+000	-1.16028E-006	0.00000E+000	-4.21775E-006	0.00000E+000	4.42767E-004	-3.27672E+002	7	...........
	517	518	3.63511E+000	-1.15968E-006	0.00000E+000	-4.21556E-006	0.00000E+000	4.43717E-004	-3.27672E+002	7	...........
	518	519	3.63511E+000	-1.15964E-006	0.00000E+000	-4.21543E-006	0.00000E+000	4.45483E-004	-3.27672E+002	7	...........
	519	520	3.63510E+000	-1.15997E-006	0.00000E+000	-4.21660E-006	0.00000E+000	4.44750E-004	-3.27672E+002	7	...........
	520	521	3.63510E+000	-1.15957E-006	0.00000E+000	-4.21515E-006	0.00000E+000	4.46983E-004	-3.27672E+002	7	...........
	521	522	3.63510E+000	-1.16004E-006	0.00000E+000	-4.21685E-006	0.00000E+000	4.45233E-004	-3.27672E+002	7	...........
	522	523	3.63509E+000	-1.15911E-006	0.00000E+000	-4.21348E-006	0.00000E+000	4.44033E-004	-3.27672E+002	7	...........
	523	524	3.63509E+000	-1.15988E-006	0.00000E+000	-4.21626E-006	0.00000E+000	4.43800E-004	-3.27672E+002	7	...........
	524	525	3.63509E+000	-1.15937E-006	0.00000E+000	-4.21443E-006	0.00000E+000	4.42817E-004	-3.27672E+002	7	...........
	525	526	3.63508E+000	-1.15950E-006	0.00000E+000	-4.21487E-006	0.00000E+000	4.44267E-004	-3.27672E+002	7	...........
	526	527	3.63509E+000	-1.15887E-006	0.00000E+000	-4.21261E-006	0.00000E+000	4.43683E-004	-3.27672E+002	7	...........
	527	528	3.63508E+000	-1.15885E-006	0.00000E+000	-4.21253E-006	0.00000E+000	4.45600E-004	-3.27672E+002	7	...........
	528	529	3.63508E+000	-1.15895E-006	0.00000E+000	-4.21288E-006	0.00000E+000	4.43817E-004	-3.27672E+002	7	...........
	529	530	3.63508E+000	-1.15933E-006	0.00000E+000	-4.21426E-006	0.00000E+000	4.44350E-004	-3.27672E+002	7	...........
	530	531	3.63507E+000	-1.16014E-006	0.00000E+000	-4.21720E-006	0.00000E+000	4.42983E-004	-3.27672E+002	7	...........
	531	532	3.63507E+000	-1.16016E-006	0.00000E+000	-4.21727E-006	0.00000E+000	4.44883E-004	-3.27672E+002	7	...........
	532	533	3.63506E+000	-1.16012E-006	0.00000E+000	-4.21711E-006	0.00000E+000	4.44000E-004	-3.27672E+002	7	...........
	533	534	3.63506E+000	-1.15946E-006	0.00000E+000	-4.21471E-006	0.00000E+000	4.43700E-004	-3.27672E+002	7	...........
	534	535	3.63506E+000	-1.15977E-006	0.00000E+000	-4.21583E-006	0.00000E+000	4.44533E-004	-3.27672E+002	7	...........
	535	536	3.63505E+000	-1.15944E-006	0.00000E+000	-4.21464E-006	0.00000E+000	4.43133E-004	-3.27672E+002	7	...........
	536	537	3.63505E+000	-1.15994E-006	0.00000E+000	-4.21645E-006	0.00000E+000	4.48633E-004	-3.27672E+002	7	...........
	537	538	3.63505E+000	-1.16016E-006	0.00000E+000	-4.21722E-006	0.00000E+000	4.47067E-004	-3.27672E+002	7	...........
	538	539	3.63505E+000	-1.16012E-006	0.00000E+000	-4.21710E-006	0.00000E+000	4.42800E-004	-3.27672E+002	7	...........
	539	540	3.63505E+000	-1.15937E-006	0.00000E+000	-4.21437E-006	0.00000E+000	4.43433E-004	-3.27672E+002	7	...........
	540	541	3.63505E+000	-1.15896E-006	0.00000E+000	-4.21287E-006	0.00000E+000	4.44350E-004	-3.27672E+002	7	...........
	541	542	3.63506E+000	-1.15892E-006	0.00000E+000	-4.21274E-006	0.00000E+000	4.41933E-004	-3.27672E+002	7	...........
	542	543	3.63505E+000	-1.15971E-006	0.00000E+000	-4.21560E-006	0.00000E+000	4.43783E-004	-3.27672E+002	7	...........
	543	544	3.63505E+000	-1.15985E-006	0.00000E+000	-4.21612E-006	0.00000E+000	4.41467E-004	-3.27672E+002	7	...........
	544	545	3.63504E+000	-1.16018E-006	0.00000E+000	-4.21729E-006	0.00000E+000	4.40383E-004	-3.27672E+002	7	...........
	545	546	3.63505E+000	-1.15935E-006	0.00000E+000	-4.21428E-006	0.00000E+000	4.41650E-004	-3.27672E+002	7	...........
	546	547	3.63504E+000	-1.15898E-006	0.00000E+000	-4.21292E-006	0.00000E+000	4.43250E-004	-3.27672E+002	7	...........
	547	548	3.63503E+000	-1.15877E-006	0.00000E+000	-4.21217E-006	0.00000E+000	4.42067E-004	-3.27672E+002	7	...........
	548	549	3.63503E+000	-1.15881E-006	0.00000E+000	-4.21230E-006	0.00000E+000	4.43667E-004	-3.27672E+002	7	...........
	549	550	3.63502E+000	-1.15882E-006	0.00000E+000	-4.21234E-006	0.00000E+000	4.44700E-004	-3.27672E+002	7	...........
	550	551	3.63503E+000	-1.15916E-006	0.00000E+000	-4.21357E-006	0.00000E+000	4.41617E-004	-3.27672E+002	7	...........
	551	552	3.63503E+000	-1.15872E-006	0.00000E+000	-4.21196E-006	0.00000E+000	4.43533E-004	-3.27672E+002	7	...........
	552	553	3.63502E+000	-1.15900E-006	0.00000E+000	-4.21299E-006	0.00000E+000	4.41950E-004	-3.27672E+002	7	...........
	553	554	3.63502E+000	-1.15891E-006	0.00000E+000	-4.21265E-006	0.00000E+000	4.40700E-004	-3.27672E+002	7	...........
	554	555	3.63502E+000	-1.15895E-006	0.00000E+000	-4.21282E-006	0.00000E+000	4.40950E-004	-3.27672E+002	7	...........
	555	556	3.63502E+000	-1.15884E-006	0.00000E+000	-4.21243E-006	0.00000E+000	4.40650E-004	-3.27672E+002	7	...........
	556	557	3.63502E+000	-1.15962E-006	0.00000E+000	-4.21524E-006	0.00000E+000	4.41933E-004	-3.27672E+002	7	...........
	557	558	3.63501E+000	-1.15864E-006	0.00000E+000	-4.21168E-006	0.00000E+000	4.41267E-004	-3.27672E+002	7	...........
	558	559	3.63502E+000	-1.15815E-006	0.00000E+000	-4.20989E-006	0.00000E+000	4.41250E-004	-3.27672E+002	7	...........
	559	560	3.63501E+000	-1.15745E-006	0.00000E+000	-4.20736E-006	0.00000E+000	4.41433E-004	-3.27672E+002	7	...........
	560	561	3.63499E+000	-1.15808E-006	0.00000E+000	-4.20961E-006	0.00000E+000	4.42783E-004	-3.27672E+002	7	...........
	561	562	3.63500E+000	-1.15912E-006	0.00000E+000	-4.21341E-006	0.00000E+000	4.45367E-004	-3.27672E+002	7	...........
	562	563	3.63500E+000	-1.15857E-006	0.00000E+000	-4.21139E-006	0.00000E+000	4.39967E-004	-3.27672E+002	7	...........
	563	564	3.63500E+000	-1.15904E-006	0.00000E+000	-4.21309E-006	0.00000E+000	4.41233E-004	-3.27672E+002	7	...........
	564	565	3.63499E+000	-1.15859E-006	0.00000E+000	-4.21147E-006	0.00000E+000	4.42183E-004	-3.27672E+002	7	...........
	565	566	3.63499E+000	-1.15873E-006	0.00000E+000	-4.21198E-006	0.00000E+000	4.40983E-004	-3.27672E+002	7	...........
	566	567	3.63499E+000	-1.15892E-006	0.00000E+000	-4.21265E-006	0.00000E+000	4.41700E-004	-3.27672E+002	7	...........
	567	568	3.63499E+000	-1.15875E-006	0.00000E+000	-4.21206E-006	0.00000E+000	4.43650E-004	-3.27672E+002	7	...........
	568	569	3.63499E+000	-1.15879E-006	0.00000E+000	-4.21218E-006	0.00000E+000	4.40017E-004	-3.27672E+002	7	...........
	569	570	3.63498E+000	-1.15861E-006	0.00000E+000	-4.21154E-006	0.00000E+000	4.40783E-004	-3.27672E+002	7	...........
	570	571	3.63498E+000	-1.15810E-006	0.00000E+000	-4.20969E-006	0.00000E+000	4.36917E-004	-3.27672E+002	7	...........
	571	572	3.63498E+000	-1.15877E-006	0.00000E+000	-4.21211E-006	0.00000E+000	4.40217E-004	-3.27672E+002	7	...........
	572	573	3.63497E+000	-1.15980E-006	0.00000E+000	-4.21583E-006	0.00000E+000	4.40867E-004	-3.27672E+002	7	...........
	573	574	3.63497E+000	-1.15991E-006	0.00000E+000	-4.21625E-006	0.00000E+000	4.39450E-004	-3.27672E+002	7	...........
	574	575	3.63497E+000	-1.15966E-006	0.00000E+000	-4.21533E-006	0.00000E+000	4.39850E-004	-3.27672E+002	7	...........
	575	576	3.63496E+000	-1.15824E-006	0.00000E+000	-4.21018E-006	0.00000E+000	4.40433E-004	-3.27672E+002	7	...........
	576	577	3.63496E+000	-1.15783E-006	0.00000E+000	-4.20868E-006	0.00000E+000	4.43550E-004	-3.27672E+002	7	...........
	577	578	3.63497E+000	-1.15751E-006	0.00000E+000	-4.20751E-006	0.00000E+000	4.41067E-004	-3.27672E+002	7	...........
	578	579	3.63497E+000	-1.15771E-006	0.00000E+000	-4.20824E-006	0.00000E+000	4.42233E-004	-3.27672E+002	7	...........
	579	580	3.63496E+000	-1.15827E-006	0.00000E+000	-4.21025E-006	0.00000E+000	4.40517E-004	-3.27672E+002	7	...........
	580	581	3.63496E+000	-1.15874E-006	0.00000E+000	-4.21196E-006	0.00000E+000	4.41467E-004	-3.27672E+002	7	...........
	581	582	3.63496E+000	-1.15855E-006	0.00000E+000	-4.21130E-006	0.00000E+000	4.39933E-004	-3.27672E+002	7	...........
	582	583	3.63496E+000	-1.15930E-006	0.00000E+000	-4.21401E-006	0.00000E+000	4.39100E-004	-3.27672E+002	7	...........
	583	584	3.63495E+000	-1.15806E-006	0.00000E+000	-4.20949E-006	0.00000E+000	4.41833E-004	-3.27672E+002	7	...........
	584	585	3.63495E+000	-1.15857E-006	0.00000E+000	-4.21136E-006	0.00000E+000	4.42767E-004	-3.27672E+002	7	...........
	585	586	3.63495E+000	-1.15796E-006	0.00000E+000	-4.20914E-006	0.00000E+000	4.41167E-004	-3.27672E+002	7	...........
	586	587	3.63495E+000	-1.15864E-006	0.00000E+000	-4.21160E-006	0.00000E+000	4.41350E-004	-3.27672E+002	7	...........
	587	588	3.63495E+000	-1.15885E-006	0.00000E+000	-4.21236E-006	0.00000E+000	4.39967E-004	-3.27672E+002	7	...........
	588	589	3.63495E+000	-1.15818E-006	0.00000E+000	-4.20994E-006	0.00000E+000	4.43433E-004	-3.27672E+002	7	...........
	589	590	3.63494E+000	-1.15852E-006	0.00000E+000	-4.21117E-006	0.00000E+000	4.42633E-004	-3.27672E+002	7	...........
	590	591	3.63494E+000	-1.15866E-006	0.00000E+000	-4.21167E-006	0.00000E+000	4.42200E-004	-3.27672E+002	7	...........
	591	592	3.63493E+000	-1.15844E-006	0.00000E+000	-4.21087E-006	0.00000E+000	4.44250E-004	-3.27672E+002	7	...........
	592	593	3.63493E+000	-1.15907E-006	0.00000E+000	-4.21313E-006	0.00000E+000	4.43517E-004	-3.27672E+002	7	...........
	593	594	3.63493E+000	-1.15916E-006	0.00000E+000	-4.21348E-006	0.00000E+000	4.43633E-004	-3.27672E+002	7	...........
	594	595	3.63492E+000	-1.15830E-006	0.00000E+000	-4.21032E-006	0.00000E+000	4.43483E-004	-3.27672E+002	7	...........
	595	596	3.63493E+000	-1.15818E-006	0.00000E+000	-4.20988E-006	0.00000E+000	4.44767E-004	-3.27672E+002	7	...........
	596	597	3.63492E+000	-1.15792E-006	0.00000E+000	-4.20895E-006	0.00000E+000	4.40783E-004	-3.27672E+002	7	...........
	597	598	3.63492E+000	-1.15933E-006	0.00000E+000	-4.21409E-006	0.00000E+000	4.46800E-004	-3.27672E+002	7	...........
	598	599	3.63491E+000	-1.15867E-006	0.00000E+000	-4.21165E-006	0.00000E+000	4.43150E-004	-3.27672E+002	7	...........
	599	600	3.63491E+000	-1.15871E-006	0.00000E+000	-4.21179E-006	0.00000E+000	4.42967E-004	-3.27672E+002	7	...........
