EXPLAIN
TAG	PWR800_READVOLTAGE
TITLE	LABEL	PWR Read Voltage	Test Identifier
DATE	LABEL	7.2.2024	Date
TIME	LABEL	22:12:08	Time
NOTES	NOTES	1	Notes...
	
PSTAT	PSTAT	REF600-12055	Potentiostat
CAPACITY	QUANT	1.00000E+000	Capacity (A-hr)
CELLTYPE	SELECTOR	1	Cell Type
WORKINGCONNECTION	SELECTOR	0	Working Connection
MAXTIME	VARIABLEANDUNITS	6.00000E+002	s	6.00000E+002	second(s)	Max Time
SAMPLETIME	QUANT	1.00000E+000	Sample Period (s)
STOPAT1	MULTIPARAM	0	0.00000E+000	Stop At 1	None	N/A
STOPAT2	MULTIPARAM	0	0.00000E+000	Stop At 2	None	N/A
AESBHCSELECTOR	TOGGLE	F	Save Both Half Cells
EOC	QUANT	3.719113	Open Circuit (V)
SEQUENCER	TOGGLE	TRUE	Run as Sequence
PSTATMODEL	IQUANT	4	Pstat Model
PSTATSECTION	LABEL	REF600-12055	Pstat Section
PSTATSERIALNO	LABEL	12055	Pstat Serial Number
CTRLMODE	IQUANT	0	Control Mode
ELECTROMETER	IQUANT	0	RE=0 or CS=1
IESTAB	IQUANT	0	I/E Stability
CASPEED	IQUANT	4	Control Amp Speed
CONVENTION	IQUANT	1	Current Convention
ICHRANGE	IQUANT	2	Ich Range
ICHRANGEMODE	TOGGLE	T	Ich Auto Range
ICHOFFSETENABLE	TOGGLE	F	Ich Offset Enable
ICHOFFSET	QUANT	0	Ich Offset (V)
ICHFILTER	IQUANT	1	Ich Filter
VCHRANGE	IQUANT	3	Vch Range
VCHRANGEMODE	TOGGLE	T	Vch Auto Range
VCHOFFSETENABLE	TOGGLE	F	Vch Offset Enable
VCHOFFSET	QUANT	0	Vch Offset (V)
VCHFILTER	IQUANT	1	Vch Filter
ACHRANGE	IQUANT	2	Ach Range
ACHOFFSETENABLE	TOGGLE	F	Ach Offset Enable
ACHOFFSET	QUANT	0	Ach Offset (V)
ACHFILTER	IQUANT	1	Ach Filter
IERANGELOWERLIMIT	IQUANT	7	I/E Range Lower Limit
IERANGEMODE	TOGGLE	F	I/E AutoRange
IERANGE	IQUANT	11	I/E Range
POSFEEDENABLE	TOGGLE	F	Positive Feedback IR Comp
POSFEEDRESISTANCE	QUANT	0	Positive Feedback Resistance (ohm)
ACHSELECT	IQUANT	4	Ach Select
SENSECABLEID	IQUANT	14	Sense Cable ID
PWRCABLEID	IQUANT	14	Power Cable ID
DCCALDATE	LABEL		DC Calibration Date
ACCALDATE	LABEL		AC Calibration Date
THERMOSELECT	IQUANT	1	Thermo Select
FRAMEWORKVERSION	LABEL	7.10.3	Framework Version
INSTRUMENTVERSION	LABEL	4.91	Instrument Version
COMMVERSION	LABEL	2.24	Communications Version
CPUPLDVERSION	LABEL	0.00	CPU PLD Version
CTRLPLDVERSION	LABEL	0.00	CTRL PLD Version
PSTATPLDVERSION	LABEL	0.00	PSTAT PLD Version
CURVE	TABLE	600
	Pt	T	Vf	Im	Vu	Pwr	Sig	Ach	Temp	IERange	Over
	#	s	V	A	V	W	V	V	deg C	#	bits
	0	1	3.83224E+000	-7.05391E-007	0.00000E+000	-2.70323E-006	0.00000E+000	6.98650E-004	-3.27672E+002	7	...........
	1	2	3.83201E+000	-7.05438E-007	0.00000E+000	-2.70324E-006	0.00000E+000	6.97700E-004	-3.27672E+002	7	...........
	2	3	3.83184E+000	-7.05443E-007	0.00000E+000	-2.70315E-006	0.00000E+000	6.94550E-004	-3.27672E+002	7	...........
	3	4	3.83171E+000	-7.06049E-007	0.00000E+000	-2.70538E-006	0.00000E+000	6.94800E-004	-3.27672E+002	7	...........
	4	5	3.83160E+000	-7.05169E-007	0.00000E+000	-2.70192E-006	0.00000E+000	6.97017E-004	-3.27672E+002	7	...........
	5	6	3.83149E+000	-7.05881E-007	0.00000E+000	-2.70458E-006	0.00000E+000	6.98067E-004	-3.27672E+002	7	...........
	6	7	3.83139E+000	-7.05220E-007	0.00000E+000	-2.70197E-006	0.00000E+000	6.98500E-004	-3.27672E+002	7	...........
	7	8	3.83130E+000	-7.05676E-007	0.00000E+000	-2.70365E-006	0.00000E+000	6.99767E-004	-3.27672E+002	7	...........
	8	9	3.83120E+000	-7.05963E-007	0.00000E+000	-2.70469E-006	0.00000E+000	7.03333E-004	-3.27672E+002	7	...........
	9	10	3.83112E+000	-7.05737E-007	0.00000E+000	-2.70376E-006	0.00000E+000	7.04217E-004	-3.27672E+002	7	...........
	10	11	3.83103E+000	-7.06069E-007	0.00000E+000	-2.70497E-006	0.00000E+000	7.04983E-004	-3.27672E+002	7	...........
	11	12	3.83096E+000	-7.05810E-007	0.00000E+000	-2.70393E-006	0.00000E+000	7.05683E-004	-3.27672E+002	7	...........
	12	13	3.83087E+000	-7.06883E-007	0.00000E+000	-2.70798E-006	0.00000E+000	7.07100E-004	-3.27672E+002	7	...........
	13	14	3.83080E+000	-7.07007E-007	0.00000E+000	-2.70840E-006	0.00000E+000	7.07650E-004	-3.27672E+002	7	...........
	14	15	3.83074E+000	-7.06080E-007	0.00000E+000	-2.70481E-006	0.00000E+000	7.08183E-004	-3.27672E+002	7	...........
	15	16	3.83067E+000	-7.05748E-007	0.00000E+000	-2.70348E-006	0.00000E+000	7.07333E-004	-3.27672E+002	7	...........
	16	17	3.83062E+000	-7.05423E-007	0.00000E+000	-2.70221E-006	0.00000E+000	7.06767E-004	-3.27672E+002	7	...........
	17	18	3.83056E+000	-7.06034E-007	0.00000E+000	-2.70451E-006	0.00000E+000	7.07083E-004	-3.27672E+002	7	...........
	18	19	3.83051E+000	-7.05730E-007	0.00000E+000	-2.70330E-006	0.00000E+000	7.05183E-004	-3.27672E+002	7	...........
	19	20	3.83046E+000	-7.05572E-007	0.00000E+000	-2.70266E-006	0.00000E+000	7.04700E-004	-3.27672E+002	7	...........
	20	21	3.83041E+000	-7.06269E-007	0.00000E+000	-2.70530E-006	0.00000E+000	5.15250E-004	-3.27672E+002	7	...........
	21	22	3.83036E+000	-7.05753E-007	0.00000E+000	-2.70329E-006	0.00000E+000	4.24250E-004	-3.27672E+002	7	...........
	22	23	3.83031E+000	-7.05328E-007	0.00000E+000	-2.70162E-006	0.00000E+000	4.22833E-004	-3.27672E+002	7	...........
	23	24	3.83027E+000	-7.04726E-007	0.00000E+000	-2.69929E-006	0.00000E+000	4.21867E-004	-3.27672E+002	7	...........
	24	25	3.83023E+000	-7.05239E-007	0.00000E+000	-2.70123E-006	0.00000E+000	4.25200E-004	-3.27672E+002	7	...........
	25	26	3.83018E+000	-7.05502E-007	0.00000E+000	-2.70220E-006	0.00000E+000	4.21117E-004	-3.27672E+002	7	...........
	26	27	3.83015E+000	-7.06072E-007	0.00000E+000	-2.70436E-006	0.00000E+000	4.21400E-004	-3.27672E+002	7	...........
	27	28	3.83010E+000	-7.05664E-007	0.00000E+000	-2.70276E-006	0.00000E+000	4.21233E-004	-3.27672E+002	7	...........
	28	29	3.83006E+000	-7.05766E-007	0.00000E+000	-2.70313E-006	0.00000E+000	4.22583E-004	-3.27672E+002	7	...........
	29	30	3.83002E+000	-7.05741E-007	0.00000E+000	-2.70300E-006	0.00000E+000	4.23050E-004	-3.27672E+002	7	...........
	30	31	3.82997E+000	-7.05434E-007	0.00000E+000	-2.70179E-006	0.00000E+000	4.25350E-004	-3.27672E+002	7	...........
	31	32	3.82994E+000	-7.05133E-007	0.00000E+000	-2.70062E-006	0.00000E+000	4.22167E-004	-3.27672E+002	7	...........
	32	33	3.82989E+000	-7.05206E-007	0.00000E+000	-2.70086E-006	0.00000E+000	4.24717E-004	-3.27672E+002	7	...........
	33	34	3.82986E+000	-7.04911E-007	0.00000E+000	-2.69971E-006	0.00000E+000	4.25633E-004	-3.27672E+002	7	...........
	34	35	3.82982E+000	-7.03756E-007	0.00000E+000	-2.69526E-006	0.00000E+000	4.26317E-004	-3.27672E+002	7	...........
	35	36	3.82979E+000	-7.03836E-007	0.00000E+000	-2.69554E-006	0.00000E+000	4.28450E-004	-3.27672E+002	7	...........
	36	37	3.82975E+000	-7.04708E-007	0.00000E+000	-2.69885E-006	0.00000E+000	4.28683E-004	-3.27672E+002	7	...........
	37	38	3.82971E+000	-7.04673E-007	0.00000E+000	-2.69869E-006	0.00000E+000	4.29117E-004	-3.27672E+002	7	...........
	38	39	3.82967E+000	-7.04292E-007	0.00000E+000	-2.69720E-006	0.00000E+000	4.31083E-004	-3.27672E+002	7	...........
	39	40	3.82964E+000	-7.04109E-007	0.00000E+000	-2.69649E-006	0.00000E+000	4.30650E-004	-3.27672E+002	7	...........
	40	41	3.82960E+000	-7.03875E-007	0.00000E+000	-2.69556E-006	0.00000E+000	4.31183E-004	-3.27672E+002	7	...........
	41	42	3.82956E+000	-7.03705E-007	0.00000E+000	-2.69488E-006	0.00000E+000	4.30900E-004	-3.27672E+002	7	...........
	42	43	3.82952E+000	-7.03798E-007	0.00000E+000	-2.69521E-006	0.00000E+000	4.31700E-004	-3.27672E+002	7	...........
	43	44	3.82950E+000	-7.03800E-007	0.00000E+000	-2.69520E-006	0.00000E+000	4.32750E-004	-3.27672E+002	7	...........
	44	45	3.82947E+000	-7.04470E-007	0.00000E+000	-2.69775E-006	0.00000E+000	4.33450E-004	-3.27672E+002	7	...........
	45	46	3.82944E+000	-7.05059E-007	0.00000E+000	-2.69998E-006	0.00000E+000	4.33583E-004	-3.27672E+002	7	...........
	46	47	3.82941E+000	-7.04751E-007	0.00000E+000	-2.69878E-006	0.00000E+000	4.34167E-004	-3.27672E+002	7	...........
	47	48	3.82937E+000	-7.04375E-007	0.00000E+000	-2.69732E-006	0.00000E+000	4.35850E-004	-3.27672E+002	7	...........
	48	49	3.82935E+000	-7.04441E-007	0.00000E+000	-2.69755E-006	0.00000E+000	4.33050E-004	-3.27672E+002	7	...........
	49	50	3.82931E+000	-7.03731E-007	0.00000E+000	-2.69481E-006	0.00000E+000	4.36000E-004	-3.27672E+002	7	...........
	50	51	3.82929E+000	-7.04246E-007	0.00000E+000	-2.69676E-006	0.00000E+000	4.35250E-004	-3.27672E+002	7	...........
	51	52	3.82926E+000	-7.03502E-007	0.00000E+000	-2.69389E-006	0.00000E+000	4.32050E-004	-3.27672E+002	7	...........
	52	53	3.82923E+000	-7.03069E-007	0.00000E+000	-2.69221E-006	0.00000E+000	4.33867E-004	-3.27672E+002	7	...........
	53	54	3.82921E+000	-7.02103E-007	0.00000E+000	-2.68850E-006	0.00000E+000	4.34317E-004	-3.27672E+002	7	...........
	54	55	3.82918E+000	-7.03465E-007	0.00000E+000	-2.69370E-006	0.00000E+000	4.37650E-004	-3.27672E+002	7	...........
	55	56	3.82916E+000	-7.03891E-007	0.00000E+000	-2.69531E-006	0.00000E+000	4.38133E-004	-3.27672E+002	7	...........
	56	57	3.82913E+000	-7.03776E-007	0.00000E+000	-2.69485E-006	0.00000E+000	4.39617E-004	-3.27672E+002	7	...........
	57	58	3.82911E+000	-7.03914E-007	0.00000E+000	-2.69537E-006	0.00000E+000	4.34950E-004	-3.27672E+002	7	...........
	58	59	3.82909E+000	-7.02912E-007	0.00000E+000	-2.69151E-006	0.00000E+000	4.34217E-004	-3.27672E+002	7	...........
	59	60	3.82906E+000	-7.02613E-007	0.00000E+000	-2.69035E-006	0.00000E+000	4.39000E-004	-3.27672E+002	7	...........
	60	61	3.82903E+000	-7.03023E-007	0.00000E+000	-2.69190E-006	0.00000E+000	4.36833E-004	-3.27672E+002	7	...........
	61	62	3.82902E+000	-7.03013E-007	0.00000E+000	-2.69185E-006	0.00000E+000	4.37633E-004	-3.27672E+002	7	...........
	62	63	3.82899E+000	-7.02764E-007	0.00000E+000	-2.69088E-006	0.00000E+000	4.36650E-004	-3.27672E+002	7	...........
	63	64	3.82898E+000	-7.02773E-007	0.00000E+000	-2.69090E-006	0.00000E+000	4.37650E-004	-3.27672E+002	7	...........
	64	65	3.82895E+000	-7.03393E-007	0.00000E+000	-2.69326E-006	0.00000E+000	4.39517E-004	-3.27672E+002	7	...........
	65	66	3.82892E+000	-7.03140E-007	0.00000E+000	-2.69227E-006	0.00000E+000	4.40983E-004	-3.27672E+002	7	...........
	66	67	3.82891E+000	-7.03156E-007	0.00000E+000	-2.69232E-006	0.00000E+000	4.41267E-004	-3.27672E+002	7	...........
	67	68	3.82888E+000	-7.02890E-007	0.00000E+000	-2.69128E-006	0.00000E+000	4.39933E-004	-3.27672E+002	7	...........
	68	69	3.82886E+000	-7.02789E-007	0.00000E+000	-2.69088E-006	0.00000E+000	4.42350E-004	-3.27672E+002	7	...........
	69	70	3.82883E+000	-7.02417E-007	0.00000E+000	-2.68943E-006	0.00000E+000	4.42067E-004	-3.27672E+002	7	...........
	70	71	3.82882E+000	-7.02014E-007	0.00000E+000	-2.68788E-006	0.00000E+000	4.40467E-004	-3.27672E+002	7	...........
	71	72	3.82880E+000	-7.02113E-007	0.00000E+000	-2.68825E-006	0.00000E+000	4.43350E-004	-3.27672E+002	7	...........
	72	73	3.82878E+000	-7.02351E-007	0.00000E+000	-2.68915E-006	0.00000E+000	4.40967E-004	-3.27672E+002	7	...........
	73	74	3.82877E+000	-7.02563E-007	0.00000E+000	-2.68995E-006	0.00000E+000	4.40283E-004	-3.27672E+002	7	...........
	74	75	3.82874E+000	-7.02586E-007	0.00000E+000	-2.69002E-006	0.00000E+000	4.45783E-004	-3.27672E+002	7	...........
	75	76	3.82872E+000	-7.02483E-007	0.00000E+000	-2.68961E-006	0.00000E+000	4.46117E-004	-3.27672E+002	7	...........
	76	77	3.82871E+000	-7.01688E-007	0.00000E+000	-2.68656E-006	0.00000E+000	4.44383E-004	-3.27672E+002	7	...........
	77	78	3.82869E+000	-7.01978E-007	0.00000E+000	-2.68765E-006	0.00000E+000	4.43933E-004	-3.27672E+002	7	...........
	78	79	3.82867E+000	-7.01650E-007	0.00000E+000	-2.68639E-006	0.00000E+000	4.44383E-004	-3.27672E+002	7	...........
	79	80	3.82866E+000	-7.02041E-007	0.00000E+000	-2.68787E-006	0.00000E+000	4.41217E-004	-3.27672E+002	7	...........
	80	81	3.82863E+000	-7.01887E-007	0.00000E+000	-2.68726E-006	0.00000E+000	4.43567E-004	-3.27672E+002	7	...........
	81	82	3.82862E+000	-7.02279E-007	0.00000E+000	-2.68876E-006	0.00000E+000	4.43667E-004	-3.27672E+002	7	...........
	82	83	3.82860E+000	-7.02411E-007	0.00000E+000	-2.68925E-006	0.00000E+000	4.46283E-004	-3.27672E+002	7	...........
	83	84	3.82858E+000	-7.02173E-007	0.00000E+000	-2.68832E-006	0.00000E+000	4.43950E-004	-3.27672E+002	7	...........
	84	85	3.82856E+000	-7.02300E-007	0.00000E+000	-2.68880E-006	0.00000E+000	4.45900E-004	-3.27672E+002	7	...........
	85	86	3.82854E+000	-7.01655E-007	0.00000E+000	-2.68632E-006	0.00000E+000	4.44050E-004	-3.27672E+002	7	...........
	86	87	3.82852E+000	-7.00945E-007	0.00000E+000	-2.68358E-006	0.00000E+000	4.44900E-004	-3.27672E+002	7	...........
	87	88	3.82851E+000	-7.01817E-007	0.00000E+000	-2.68692E-006	0.00000E+000	4.45450E-004	-3.27672E+002	7	...........
	88	89	3.82849E+000	-7.01381E-007	0.00000E+000	-2.68523E-006	0.00000E+000	4.44317E-004	-3.27672E+002	7	...........
	89	90	3.82848E+000	-7.00928E-007	0.00000E+000	-2.68349E-006	0.00000E+000	4.44883E-004	-3.27672E+002	7	...........
	90	91	3.82846E+000	-7.01867E-007	0.00000E+000	-2.68707E-006	0.00000E+000	4.45100E-004	-3.27672E+002	7	...........
	91	92	3.82845E+000	-7.01753E-007	0.00000E+000	-2.68662E-006	0.00000E+000	4.46267E-004	-3.27672E+002	7	...........
	92	93	3.82843E+000	-7.01939E-007	0.00000E+000	-2.68732E-006	0.00000E+000	4.49383E-004	-3.27672E+002	7	...........
	93	94	3.82841E+000	-7.01829E-007	0.00000E+000	-2.68689E-006	0.00000E+000	4.46283E-004	-3.27672E+002	7	...........
	94	95	3.82839E+000	-7.01654E-007	0.00000E+000	-2.68621E-006	0.00000E+000	4.49250E-004	-3.27672E+002	7	...........
	95	96	3.82839E+000	-7.01496E-007	0.00000E+000	-2.68560E-006	0.00000E+000	4.47717E-004	-3.27672E+002	7	...........
	96	97	3.82838E+000	-7.01338E-007	0.00000E+000	-2.68498E-006	0.00000E+000	4.48917E-004	-3.27672E+002	7	...........
	97	98	3.82836E+000	-7.01756E-007	0.00000E+000	-2.68658E-006	0.00000E+000	4.48400E-004	-3.27672E+002	7	...........
	98	99	3.82834E+000	-7.01544E-007	0.00000E+000	-2.68575E-006	0.00000E+000	4.49767E-004	-3.27672E+002	7	...........
	99	100	3.82833E+000	-7.01220E-007	0.00000E+000	-2.68450E-006	0.00000E+000	4.46300E-004	-3.27672E+002	7	...........
	100	101	3.82831E+000	-7.01697E-007	0.00000E+000	-2.68631E-006	0.00000E+000	4.47917E-004	-3.27672E+002	7	...........
	101	102	3.82829E+000	-7.02015E-007	0.00000E+000	-2.68752E-006	0.00000E+000	4.49967E-004	-3.27672E+002	7	...........
	102	103	3.82828E+000	-7.02002E-007	0.00000E+000	-2.68746E-006	0.00000E+000	4.49883E-004	-3.27672E+002	7	...........
	103	104	3.82826E+000	-7.01904E-007	0.00000E+000	-2.68708E-006	0.00000E+000	4.48950E-004	-3.27672E+002	7	...........
	104	105	3.82825E+000	-7.01887E-007	0.00000E+000	-2.68700E-006	0.00000E+000	4.48717E-004	-3.27672E+002	7	...........
	105	106	3.82823E+000	-7.01189E-007	0.00000E+000	-2.68432E-006	0.00000E+000	4.51217E-004	-3.27672E+002	7	...........
	106	107	3.82823E+000	-7.00720E-007	0.00000E+000	-2.68252E-006	0.00000E+000	4.48583E-004	-3.27672E+002	7	...........
	107	108	3.82821E+000	-7.00319E-007	0.00000E+000	-2.68097E-006	0.00000E+000	4.49033E-004	-3.27672E+002	7	...........
	108	109	3.82820E+000	-7.01436E-007	0.00000E+000	-2.68524E-006	0.00000E+000	4.47700E-004	-3.27672E+002	7	...........
	109	110	3.82819E+000	-7.01140E-007	0.00000E+000	-2.68410E-006	0.00000E+000	4.49817E-004	-3.27672E+002	7	...........
	110	111	3.82818E+000	-7.01831E-007	0.00000E+000	-2.68673E-006	0.00000E+000	4.49350E-004	-3.27672E+002	7	...........
	111	112	3.82818E+000	-7.00852E-007	0.00000E+000	-2.68298E-006	0.00000E+000	4.53083E-004	-3.27672E+002	7	...........
	112	113	3.82816E+000	-7.01053E-007	0.00000E+000	-2.68374E-006	0.00000E+000	4.51467E-004	-3.27672E+002	7	...........
	113	114	3.82813E+000	-7.00607E-007	0.00000E+000	-2.68202E-006	0.00000E+000	4.48817E-004	-3.27672E+002	7	...........
	114	115	3.82812E+000	-7.01211E-007	0.00000E+000	-2.68432E-006	0.00000E+000	4.54150E-004	-3.27672E+002	7	...........
	115	116	3.82809E+000	-7.00827E-007	0.00000E+000	-2.68283E-006	0.00000E+000	4.51067E-004	-3.27672E+002	7	...........
	116	117	3.82808E+000	-7.01765E-007	0.00000E+000	-2.68642E-006	0.00000E+000	4.49800E-004	-3.27672E+002	7	...........
	117	118	3.82807E+000	-7.01268E-007	0.00000E+000	-2.68450E-006	0.00000E+000	4.54533E-004	-3.27672E+002	7	...........
	118	119	3.82806E+000	-7.01125E-007	0.00000E+000	-2.68395E-006	0.00000E+000	4.52483E-004	-3.27672E+002	7	...........
	119	120	3.82805E+000	-7.00255E-007	0.00000E+000	-2.68061E-006	0.00000E+000	4.50267E-004	-3.27672E+002	7	...........
	120	121	3.82803E+000	-7.01177E-007	0.00000E+000	-2.68413E-006	0.00000E+000	4.52367E-004	-3.27672E+002	7	...........
	121	122	3.82802E+000	-7.01157E-007	0.00000E+000	-2.68405E-006	0.00000E+000	4.52533E-004	-3.27672E+002	7	...........
	122	123	3.82800E+000	-7.01326E-007	0.00000E+000	-2.68468E-006	0.00000E+000	4.52750E-004	-3.27672E+002	7	...........
	123	124	3.82799E+000	-7.00784E-007	0.00000E+000	-2.68259E-006	0.00000E+000	4.52283E-004	-3.27672E+002	7	...........
	124	125	3.82798E+000	-7.00536E-007	0.00000E+000	-2.68164E-006	0.00000E+000	4.51800E-004	-3.27672E+002	7	...........
	125	126	3.82797E+000	-6.99617E-007	0.00000E+000	-2.67811E-006	0.00000E+000	4.55533E-004	-3.27672E+002	7	...........
	126	127	3.82795E+000	-7.00892E-007	0.00000E+000	-2.68298E-006	0.00000E+000	4.52183E-004	-3.27672E+002	7	...........
	127	128	3.82794E+000	-7.01192E-007	0.00000E+000	-2.68412E-006	0.00000E+000	4.51133E-004	-3.27672E+002	7	...........
	128	129	3.82792E+000	-7.00451E-007	0.00000E+000	-2.68127E-006	0.00000E+000	4.52717E-004	-3.27672E+002	7	...........
	129	130	3.82791E+000	-7.00724E-007	0.00000E+000	-2.68231E-006	0.00000E+000	4.51333E-004	-3.27672E+002	7	...........
	130	131	3.82789E+000	-7.00454E-007	0.00000E+000	-2.68126E-006	0.00000E+000	4.52050E-004	-3.27672E+002	7	...........
	131	132	3.82788E+000	-6.99923E-007	0.00000E+000	-2.67922E-006	0.00000E+000	4.51100E-004	-3.27672E+002	7	...........
	132	133	3.82787E+000	-6.99904E-007	0.00000E+000	-2.67914E-006	0.00000E+000	4.52483E-004	-3.27672E+002	7	...........
	133	134	3.82786E+000	-6.99918E-007	0.00000E+000	-2.67919E-006	0.00000E+000	4.53517E-004	-3.27672E+002	7	...........
	134	135	3.82785E+000	-7.00177E-007	0.00000E+000	-2.68017E-006	0.00000E+000	4.53867E-004	-3.27672E+002	7	...........
	135	136	3.82783E+000	-7.00080E-007	0.00000E+000	-2.67979E-006	0.00000E+000	4.50650E-004	-3.27672E+002	7	...........
	136	137	3.82782E+000	-7.00218E-007	0.00000E+000	-2.68031E-006	0.00000E+000	4.51983E-004	-3.27672E+002	7	...........
	137	138	3.82781E+000	-7.00651E-007	0.00000E+000	-2.68196E-006	0.00000E+000	4.53267E-004	-3.27672E+002	7	...........
	138	139	3.82779E+000	-7.00315E-007	0.00000E+000	-2.68066E-006	0.00000E+000	4.49917E-004	-3.27672E+002	7	...........
	139	140	3.82778E+000	-7.00345E-007	0.00000E+000	-2.68077E-006	0.00000E+000	4.51367E-004	-3.27672E+002	7	...........
	140	141	3.82777E+000	-7.00573E-007	0.00000E+000	-2.68163E-006	0.00000E+000	4.52517E-004	-3.27672E+002	7	...........
	141	142	3.82776E+000	-7.00182E-007	0.00000E+000	-2.68012E-006	0.00000E+000	4.49133E-004	-3.27672E+002	7	...........
	142	143	3.82774E+000	-6.99532E-007	0.00000E+000	-2.67763E-006	0.00000E+000	4.49867E-004	-3.27672E+002	7	...........
	143	144	3.82773E+000	-6.99653E-007	0.00000E+000	-2.67808E-006	0.00000E+000	4.50850E-004	-3.27672E+002	7	...........
	144	145	3.82770E+000	-7.00314E-007	0.00000E+000	-2.68059E-006	0.00000E+000	4.49233E-004	-3.27672E+002	7	...........
	145	146	3.82769E+000	-7.00846E-007	0.00000E+000	-2.68262E-006	0.00000E+000	4.48167E-004	-3.27672E+002	7	...........
	146	147	3.82769E+000	-7.01233E-007	0.00000E+000	-2.68410E-006	0.00000E+000	4.45250E-004	-3.27672E+002	7	...........
	147	148	3.82768E+000	-6.99881E-007	0.00000E+000	-2.67892E-006	0.00000E+000	4.48800E-004	-3.27672E+002	7	...........
	148	149	3.82768E+000	-7.00319E-007	0.00000E+000	-2.68060E-006	0.00000E+000	4.49417E-004	-3.27672E+002	7	...........
	149	150	3.82765E+000	-6.99683E-007	0.00000E+000	-2.67814E-006	0.00000E+000	4.47183E-004	-3.27672E+002	7	...........
	150	151	3.82764E+000	-7.00335E-007	0.00000E+000	-2.68063E-006	0.00000E+000	4.48433E-004	-3.27672E+002	7	...........
	151	152	3.82763E+000	-6.99286E-007	0.00000E+000	-2.67661E-006	0.00000E+000	4.47183E-004	-3.27672E+002	7	...........
	152	153	3.82763E+000	-6.99280E-007	0.00000E+000	-2.67658E-006	0.00000E+000	4.47150E-004	-3.27672E+002	7	...........
	153	154	3.82762E+000	-7.00123E-007	0.00000E+000	-2.67980E-006	0.00000E+000	4.47333E-004	-3.27672E+002	7	...........
	154	155	3.82761E+000	-7.01288E-007	0.00000E+000	-2.68426E-006	0.00000E+000	4.45150E-004	-3.27672E+002	7	...........
	155	156	3.82760E+000	-7.01211E-007	0.00000E+000	-2.68395E-006	0.00000E+000	4.47467E-004	-3.27672E+002	7	...........
	156	157	3.82758E+000	-7.00509E-007	0.00000E+000	-2.68126E-006	0.00000E+000	4.47217E-004	-3.27672E+002	7	...........
	157	158	3.82757E+000	-7.00788E-007	0.00000E+000	-2.68232E-006	0.00000E+000	4.47050E-004	-3.27672E+002	7	...........
	158	159	3.82756E+000	-7.00872E-007	0.00000E+000	-2.68263E-006	0.00000E+000	4.49617E-004	-3.27672E+002	7	...........
	159	160	3.82756E+000	-7.00050E-007	0.00000E+000	-2.67948E-006	0.00000E+000	4.48733E-004	-3.27672E+002	7	...........
	160	161	3.82754E+000	-6.99528E-007	0.00000E+000	-2.67747E-006	0.00000E+000	4.46200E-004	-3.27672E+002	7	...........
	161	162	3.82753E+000	-6.99646E-007	0.00000E+000	-2.67792E-006	0.00000E+000	4.44933E-004	-3.27672E+002	7	...........
	162	163	3.82752E+000	-6.99905E-007	0.00000E+000	-2.67890E-006	0.00000E+000	4.43700E-004	-3.27672E+002	7	...........
	163	164	3.82751E+000	-6.99819E-007	0.00000E+000	-2.67856E-006	0.00000E+000	4.45883E-004	-3.27672E+002	7	...........
	164	165	3.82750E+000	-6.99573E-007	0.00000E+000	-2.67761E-006	0.00000E+000	4.43600E-004	-3.27672E+002	7	...........
	165	166	3.82748E+000	-7.00145E-007	0.00000E+000	-2.67980E-006	0.00000E+000	4.45167E-004	-3.27672E+002	7	...........
	166	167	3.82748E+000	-6.99846E-007	0.00000E+000	-2.67865E-006	0.00000E+000	4.46467E-004	-3.27672E+002	7	...........
	167	168	3.82747E+000	-6.99891E-007	0.00000E+000	-2.67881E-006	0.00000E+000	4.45083E-004	-3.27672E+002	7	...........
	168	169	3.82745E+000	-6.99422E-007	0.00000E+000	-2.67701E-006	0.00000E+000	4.41417E-004	-3.27672E+002	7	...........
	169	170	3.82744E+000	-6.99835E-007	0.00000E+000	-2.67858E-006	0.00000E+000	4.41350E-004	-3.27672E+002	7	...........
	170	171	3.82743E+000	-6.99686E-007	0.00000E+000	-2.67800E-006	0.00000E+000	4.41800E-004	-3.27672E+002	7	...........
	171	172	3.82743E+000	-6.99831E-007	0.00000E+000	-2.67856E-006	0.00000E+000	4.43900E-004	-3.27672E+002	7	...........
	172	173	3.82741E+000	-7.00935E-007	0.00000E+000	-2.68277E-006	0.00000E+000	4.41850E-004	-3.27672E+002	7	...........
	173	174	3.82740E+000	-7.00173E-007	0.00000E+000	-2.67984E-006	0.00000E+000	4.43350E-004	-3.27672E+002	7	...........
	174	175	3.82740E+000	-7.00148E-007	0.00000E+000	-2.67975E-006	0.00000E+000	4.42817E-004	-3.27672E+002	7	...........
	175	176	3.82739E+000	-7.00208E-007	0.00000E+000	-2.67997E-006	0.00000E+000	4.43217E-004	-3.27672E+002	7	...........
	176	177	3.82738E+000	-7.00464E-007	0.00000E+000	-2.68094E-006	0.00000E+000	4.41667E-004	-3.27672E+002	7	...........
	177	178	3.82738E+000	-7.00041E-007	0.00000E+000	-2.67932E-006	0.00000E+000	4.40917E-004	-3.27672E+002	7	...........
	178	179	3.82737E+000	-6.98493E-007	0.00000E+000	-2.67339E-006	0.00000E+000	4.41217E-004	-3.27672E+002	7	...........
	179	180	3.82736E+000	-6.98206E-007	0.00000E+000	-2.67229E-006	0.00000E+000	4.40600E-004	-3.27672E+002	7	...........
	180	181	3.82735E+000	-6.99472E-007	0.00000E+000	-2.67712E-006	0.00000E+000	4.41817E-004	-3.27672E+002	7	...........
	181	182	3.82734E+000	-6.99243E-007	0.00000E+000	-2.67624E-006	0.00000E+000	4.40100E-004	-3.27672E+002	7	...........
	182	183	3.82734E+000	-6.99742E-007	0.00000E+000	-2.67815E-006	0.00000E+000	4.42600E-004	-3.27672E+002	7	...........
	183	184	3.82733E+000	-7.00183E-007	0.00000E+000	-2.67983E-006	0.00000E+000	4.39783E-004	-3.27672E+002	7	...........
	184	185	3.82732E+000	-6.98965E-007	0.00000E+000	-2.67517E-006	0.00000E+000	4.37717E-004	-3.27672E+002	7	...........
	185	186	3.82732E+000	-6.99542E-007	0.00000E+000	-2.67737E-006	0.00000E+000	4.36350E-004	-3.27672E+002	7	...........
	186	187	3.82730E+000	-6.99871E-007	0.00000E+000	-2.67862E-006	0.00000E+000	4.38133E-004	-3.27672E+002	7	...........
	187	188	3.82729E+000	-7.00330E-007	0.00000E+000	-2.68037E-006	0.00000E+000	4.38950E-004	-3.27672E+002	7	...........
	188	189	3.82729E+000	-6.99461E-007	0.00000E+000	-2.67704E-006	0.00000E+000	4.38450E-004	-3.27672E+002	7	...........
	189	190	3.82728E+000	-6.99891E-007	0.00000E+000	-2.67868E-006	0.00000E+000	4.38217E-004	-3.27672E+002	7	...........
	190	191	3.82727E+000	-7.00761E-007	0.00000E+000	-2.68200E-006	0.00000E+000	4.37150E-004	-3.27672E+002	7	...........
	191	192	3.82727E+000	-6.99591E-007	0.00000E+000	-2.67752E-006	0.00000E+000	4.35350E-004	-3.27672E+002	7	...........
	192	193	3.82727E+000	-6.99499E-007	0.00000E+000	-2.67717E-006	0.00000E+000	4.37133E-004	-3.27672E+002	7	...........
	193	194	3.82726E+000	-7.00412E-007	0.00000E+000	-2.68065E-006	0.00000E+000	4.34417E-004	-3.27672E+002	7	...........
	194	195	3.82725E+000	-6.99864E-007	0.00000E+000	-2.67856E-006	0.00000E+000	4.36850E-004	-3.27672E+002	7	...........
	195	196	3.82724E+000	-6.99356E-007	0.00000E+000	-2.67660E-006	0.00000E+000	4.36300E-004	-3.27672E+002	7	...........
	196	197	3.82723E+000	-6.99197E-007	0.00000E+000	-2.67599E-006	0.00000E+000	4.33800E-004	-3.27672E+002	7	...........
	197	198	3.82723E+000	-6.98872E-007	0.00000E+000	-2.67475E-006	0.00000E+000	4.33000E-004	-3.27672E+002	7	...........
	198	199	3.82722E+000	-6.98985E-007	0.00000E+000	-2.67517E-006	0.00000E+000	4.35017E-004	-3.27672E+002	7	...........
	199	200	3.82721E+000	-6.99361E-007	0.00000E+000	-2.67660E-006	0.00000E+000	4.31950E-004	-3.27672E+002	7	...........
	200	201	3.82722E+000	-6.98724E-007	0.00000E+000	-2.67417E-006	0.00000E+000	4.35850E-004	-3.27672E+002	7	...........
	201	202	3.82721E+000	-6.99444E-007	0.00000E+000	-2.67691E-006	0.00000E+000	4.34967E-004	-3.27672E+002	7	...........
	202	203	3.82720E+000	-6.98659E-007	0.00000E+000	-2.67391E-006	0.00000E+000	4.34400E-004	-3.27672E+002	7	...........
	203	204	3.82720E+000	-6.98986E-007	0.00000E+000	-2.67516E-006	0.00000E+000	4.34817E-004	-3.27672E+002	7	...........
	204	205	3.82719E+000	-6.99759E-007	0.00000E+000	-2.67811E-006	0.00000E+000	4.34033E-004	-3.27672E+002	7	...........
	205	206	3.82718E+000	-6.99550E-007	0.00000E+000	-2.67731E-006	0.00000E+000	4.34867E-004	-3.27672E+002	7	...........
	206	207	3.82718E+000	-6.98748E-007	0.00000E+000	-2.67423E-006	0.00000E+000	4.35783E-004	-3.27672E+002	7	...........
	207	208	3.82717E+000	-6.99007E-007	0.00000E+000	-2.67522E-006	0.00000E+000	4.36867E-004	-3.27672E+002	7	...........
	208	209	3.82717E+000	-6.99468E-007	0.00000E+000	-2.67698E-006	0.00000E+000	4.36483E-004	-3.27672E+002	7	...........
	209	210	3.82716E+000	-6.99800E-007	0.00000E+000	-2.67825E-006	0.00000E+000	4.36533E-004	-3.27672E+002	7	...........
	210	211	3.82715E+000	-6.99767E-007	0.00000E+000	-2.67811E-006	0.00000E+000	4.36267E-004	-3.27672E+002	7	...........
	211	212	3.82715E+000	-6.99636E-007	0.00000E+000	-2.67761E-006	0.00000E+000	4.37950E-004	-3.27672E+002	7	...........
	212	213	3.82715E+000	-6.99424E-007	0.00000E+000	-2.67680E-006	0.00000E+000	4.36833E-004	-3.27672E+002	7	...........
	213	214	3.82714E+000	-6.98806E-007	0.00000E+000	-2.67443E-006	0.00000E+000	4.35117E-004	-3.27672E+002	7	...........
	214	215	3.82713E+000	-6.97630E-007	0.00000E+000	-2.66992E-006	0.00000E+000	4.31133E-004	-3.27672E+002	7	...........
	215	216	3.82713E+000	-6.98705E-007	0.00000E+000	-2.67403E-006	0.00000E+000	4.36883E-004	-3.27672E+002	7	...........
	216	217	3.82711E+000	-6.98490E-007	0.00000E+000	-2.67320E-006	0.00000E+000	4.34267E-004	-3.27672E+002	7	...........
	217	218	3.82711E+000	-6.99376E-007	0.00000E+000	-2.67659E-006	0.00000E+000	4.32817E-004	-3.27672E+002	7	...........
	218	219	3.82710E+000	-6.98881E-007	0.00000E+000	-2.67469E-006	0.00000E+000	4.32917E-004	-3.27672E+002	7	...........
	219	220	3.82710E+000	-6.99062E-007	0.00000E+000	-2.67538E-006	0.00000E+000	4.33017E-004	-3.27672E+002	7	...........
	220	221	3.82709E+000	-6.99418E-007	0.00000E+000	-2.67674E-006	0.00000E+000	4.33533E-004	-3.27672E+002	7	...........
	221	222	3.82709E+000	-6.99786E-007	0.00000E+000	-2.67814E-006	0.00000E+000	4.33650E-004	-3.27672E+002	7	...........
	222	223	3.82709E+000	-6.99337E-007	0.00000E+000	-2.67642E-006	0.00000E+000	4.32733E-004	-3.27672E+002	7	...........
	223	224	3.82708E+000	-6.99684E-007	0.00000E+000	-2.67775E-006	0.00000E+000	4.32833E-004	-3.27672E+002	7	...........
	224	225	3.82708E+000	-6.98742E-007	0.00000E+000	-2.67414E-006	0.00000E+000	4.32733E-004	-3.27672E+002	7	...........
	225	226	3.82707E+000	-6.99346E-007	0.00000E+000	-2.67645E-006	0.00000E+000	4.33450E-004	-3.27672E+002	7	...........
	226	227	3.82706E+000	-7.00250E-007	0.00000E+000	-2.67990E-006	0.00000E+000	4.33817E-004	-3.27672E+002	7	...........
	227	228	3.82706E+000	-6.99763E-007	0.00000E+000	-2.67803E-006	0.00000E+000	4.34333E-004	-3.27672E+002	7	...........
	228	229	3.82706E+000	-6.99519E-007	0.00000E+000	-2.67710E-006	0.00000E+000	4.30500E-004	-3.27672E+002	7	...........
	229	230	3.82705E+000	-6.99144E-007	0.00000E+000	-2.67566E-006	0.00000E+000	4.30417E-004	-3.27672E+002	7	...........
	230	231	3.82704E+000	-6.99462E-007	0.00000E+000	-2.67687E-006	0.00000E+000	4.30650E-004	-3.27672E+002	7	...........
	231	232	3.82704E+000	-6.98804E-007	0.00000E+000	-2.67435E-006	0.00000E+000	4.27350E-004	-3.27672E+002	7	...........
	232	233	3.82704E+000	-6.97525E-007	0.00000E+000	-2.66945E-006	0.00000E+000	4.27633E-004	-3.27672E+002	7	...........
	233	234	3.82703E+000	-6.98876E-007	0.00000E+000	-2.67462E-006	0.00000E+000	4.32267E-004	-3.27672E+002	7	...........
	234	235	3.82702E+000	-6.98988E-007	0.00000E+000	-2.67504E-006	0.00000E+000	4.28867E-004	-3.27672E+002	7	...........
	235	236	3.82702E+000	-6.99288E-007	0.00000E+000	-2.67619E-006	0.00000E+000	4.27483E-004	-3.27672E+002	7	...........
	236	237	3.82702E+000	-6.98726E-007	0.00000E+000	-2.67403E-006	0.00000E+000	4.29200E-004	-3.27672E+002	7	...........
	237	238	3.82701E+000	-6.98277E-007	0.00000E+000	-2.67231E-006	0.00000E+000	4.31917E-004	-3.27672E+002	7	...........
	238	239	3.82701E+000	-6.97487E-007	0.00000E+000	-2.66929E-006	0.00000E+000	4.29050E-004	-3.27672E+002	7	...........
	239	240	3.82700E+000	-6.98484E-007	0.00000E+000	-2.67310E-006	0.00000E+000	4.27283E-004	-3.27672E+002	7	...........
	240	241	3.82700E+000	-6.98197E-007	0.00000E+000	-2.67200E-006	0.00000E+000	4.29267E-004	-3.27672E+002	7	...........
	241	242	3.82700E+000	-6.98976E-007	0.00000E+000	-2.67498E-006	0.00000E+000	4.29150E-004	-3.27672E+002	7	...........
	242	243	3.82699E+000	-6.98966E-007	0.00000E+000	-2.67493E-006	0.00000E+000	4.28667E-004	-3.27672E+002	7	...........
	243	244	3.82699E+000	-6.98854E-007	0.00000E+000	-2.67450E-006	0.00000E+000	4.27267E-004	-3.27672E+002	7	...........
	244	245	3.82698E+000	-6.99222E-007	0.00000E+000	-2.67591E-006	0.00000E+000	4.22983E-004	-3.27672E+002	7	...........
	245	246	3.82698E+000	-6.99652E-007	0.00000E+000	-2.67756E-006	0.00000E+000	4.29583E-004	-3.27672E+002	7	...........
	246	247	3.82697E+000	-6.98734E-007	0.00000E+000	-2.67403E-006	0.00000E+000	4.25083E-004	-3.27672E+002	7	...........
	247	248	3.82697E+000	-6.99173E-007	0.00000E+000	-2.67571E-006	0.00000E+000	4.27267E-004	-3.27672E+002	7	...........
	248	249	3.82696E+000	-6.99320E-007	0.00000E+000	-2.67627E-006	0.00000E+000	4.29950E-004	-3.27672E+002	7	...........
	249	250	3.82695E+000	-6.98821E-007	0.00000E+000	-2.67436E-006	0.00000E+000	4.26950E-004	-3.27672E+002	7	...........
	250	251	3.82695E+000	-6.98236E-007	0.00000E+000	-2.67212E-006	0.00000E+000	4.28600E-004	-3.27672E+002	7	...........
	251	252	3.82695E+000	-6.98572E-007	0.00000E+000	-2.67340E-006	0.00000E+000	4.28400E-004	-3.27672E+002	7	...........
	252	253	3.82694E+000	-6.98855E-007	0.00000E+000	-2.67448E-006	0.00000E+000	4.30250E-004	-3.27672E+002	7	...........
	253	254	3.82694E+000	-6.99064E-007	0.00000E+000	-2.67528E-006	0.00000E+000	4.29567E-004	-3.27672E+002	7	...........
	254	255	3.82693E+000	-6.99062E-007	0.00000E+000	-2.67526E-006	0.00000E+000	4.28650E-004	-3.27672E+002	7	...........
	255	256	3.82692E+000	-6.98932E-007	0.00000E+000	-2.67476E-006	0.00000E+000	4.28300E-004	-3.27672E+002	7	...........
	256	257	3.82692E+000	-6.98263E-007	0.00000E+000	-2.67220E-006	0.00000E+000	4.27233E-004	-3.27672E+002	7	...........
	257	258	3.82691E+000	-6.98572E-007	0.00000E+000	-2.67338E-006	0.00000E+000	4.32067E-004	-3.27672E+002	7	...........
	258	259	3.82691E+000	-6.98838E-007	0.00000E+000	-2.67439E-006	0.00000E+000	4.30333E-004	-3.27672E+002	7	...........
	259	260	3.82690E+000	-6.98471E-007	0.00000E+000	-2.67298E-006	0.00000E+000	4.28050E-004	-3.27672E+002	7	...........
	260	261	3.82690E+000	-6.99608E-007	0.00000E+000	-2.67733E-006	0.00000E+000	4.29150E-004	-3.27672E+002	7	...........
	261	262	3.82690E+000	-6.99076E-007	0.00000E+000	-2.67529E-006	0.00000E+000	4.27150E-004	-3.27672E+002	7	...........
	262	263	3.82690E+000	-6.99331E-007	0.00000E+000	-2.67627E-006	0.00000E+000	4.26550E-004	-3.27672E+002	7	...........
	263	264	3.82689E+000	-6.99391E-007	0.00000E+000	-2.67649E-006	0.00000E+000	4.28600E-004	-3.27672E+002	7	...........
	264	265	3.82689E+000	-6.98877E-007	0.00000E+000	-2.67453E-006	0.00000E+000	4.30167E-004	-3.27672E+002	7	...........
	265	266	3.82688E+000	-6.98990E-007	0.00000E+000	-2.67495E-006	0.00000E+000	4.31717E-004	-3.27672E+002	7	...........
	266	267	3.82688E+000	-6.99463E-007	0.00000E+000	-2.67676E-006	0.00000E+000	4.28950E-004	-3.27672E+002	7	...........
	267	268	3.82688E+000	-6.98946E-007	0.00000E+000	-2.67478E-006	0.00000E+000	4.26183E-004	-3.27672E+002	7	...........
	268	269	3.82687E+000	-6.97912E-007	0.00000E+000	-2.67082E-006	0.00000E+000	4.25583E-004	-3.27672E+002	7	...........
	269	270	3.82686E+000	-6.98112E-007	0.00000E+000	-2.67158E-006	0.00000E+000	4.27267E-004	-3.27672E+002	7	...........
	270	271	3.82686E+000	-6.99033E-007	0.00000E+000	-2.67510E-006	0.00000E+000	4.26717E-004	-3.27672E+002	7	...........
	271	272	3.82686E+000	-6.99084E-007	0.00000E+000	-2.67529E-006	0.00000E+000	4.27917E-004	-3.27672E+002	7	...........
	272	273	3.82685E+000	-6.98226E-007	0.00000E+000	-2.67201E-006	0.00000E+000	4.29567E-004	-3.27672E+002	7	...........
	273	274	3.82684E+000	-6.98626E-007	0.00000E+000	-2.67353E-006	0.00000E+000	4.28600E-004	-3.27672E+002	7	...........
	274	275	3.82684E+000	-6.98293E-007	0.00000E+000	-2.67225E-006	0.00000E+000	4.29033E-004	-3.27672E+002	7	...........
	275	276	3.82683E+000	-6.98873E-007	0.00000E+000	-2.67447E-006	0.00000E+000	4.29083E-004	-3.27672E+002	7	...........
	276	277	3.82683E+000	-6.99177E-007	0.00000E+000	-2.67563E-006	0.00000E+000	4.28317E-004	-3.27672E+002	7	...........
	277	278	3.82683E+000	-6.97824E-007	0.00000E+000	-2.67046E-006	0.00000E+000	4.28117E-004	-3.27672E+002	7	...........
	278	279	3.82683E+000	-6.98427E-007	0.00000E+000	-2.67276E-006	0.00000E+000	4.29517E-004	-3.27672E+002	7	...........
	279	280	3.82682E+000	-6.98857E-007	0.00000E+000	-2.67440E-006	0.00000E+000	4.31383E-004	-3.27672E+002	7	...........
	280	281	3.82681E+000	-6.97982E-007	0.00000E+000	-2.67105E-006	0.00000E+000	4.26133E-004	-3.27672E+002	7	...........
	281	282	3.82681E+000	-6.99380E-007	0.00000E+000	-2.67640E-006	0.00000E+000	4.29050E-004	-3.27672E+002	7	...........
	282	283	3.82681E+000	-6.99292E-007	0.00000E+000	-2.67606E-006	0.00000E+000	4.28017E-004	-3.27672E+002	7	...........
	283	284	3.82681E+000	-6.99541E-007	0.00000E+000	-2.67701E-006	0.00000E+000	4.27933E-004	-3.27672E+002	7	...........
	284	285	3.82680E+000	-6.98604E-007	0.00000E+000	-2.67342E-006	0.00000E+000	4.28217E-004	-3.27672E+002	7	...........
	285	286	3.82679E+000	-6.98062E-007	0.00000E+000	-2.67134E-006	0.00000E+000	4.28317E-004	-3.27672E+002	7	...........
	286	287	3.82678E+000	-6.97111E-007	0.00000E+000	-2.66769E-006	0.00000E+000	4.29917E-004	-3.27672E+002	7	...........
	287	288	3.82678E+000	-6.98651E-007	0.00000E+000	-2.67358E-006	0.00000E+000	4.29033E-004	-3.27672E+002	7	...........
	288	289	3.82678E+000	-6.98950E-007	0.00000E+000	-2.67473E-006	0.00000E+000	4.28867E-004	-3.27672E+002	7	...........
	289	290	3.82677E+000	-6.99355E-007	0.00000E+000	-2.67627E-006	0.00000E+000	4.27933E-004	-3.27672E+002	7	...........
	290	291	3.82676E+000	-6.99034E-007	0.00000E+000	-2.67504E-006	0.00000E+000	4.31067E-004	-3.27672E+002	7	...........
	291	292	3.82677E+000	-6.99150E-007	0.00000E+000	-2.67548E-006	0.00000E+000	4.28100E-004	-3.27672E+002	7	...........
	292	293	3.82676E+000	-6.98982E-007	0.00000E+000	-2.67484E-006	0.00000E+000	4.28633E-004	-3.27672E+002	7	...........
	293	294	3.82675E+000	-6.98691E-007	0.00000E+000	-2.67372E-006	0.00000E+000	4.25967E-004	-3.27672E+002	7	...........
	294	295	3.82675E+000	-6.98936E-007	0.00000E+000	-2.67465E-006	0.00000E+000	4.30467E-004	-3.27672E+002	7	...........
	295	296	3.82675E+000	-6.99131E-007	0.00000E+000	-2.67540E-006	0.00000E+000	4.28483E-004	-3.27672E+002	7	...........
	296	297	3.82674E+000	-6.98987E-007	0.00000E+000	-2.67485E-006	0.00000E+000	4.30983E-004	-3.27672E+002	7	...........
	297	298	3.82673E+000	-6.99521E-007	0.00000E+000	-2.67688E-006	0.00000E+000	4.26767E-004	-3.27672E+002	7	...........
	298	299	3.82673E+000	-6.99607E-007	0.00000E+000	-2.67721E-006	0.00000E+000	4.28600E-004	-3.27672E+002	7	...........
	299	300	3.82673E+000	-6.99993E-007	0.00000E+000	-2.67868E-006	0.00000E+000	4.29833E-004	-3.27672E+002	7	...........
	300	301	3.82673E+000	-6.99354E-007	0.00000E+000	-2.67624E-006	0.00000E+000	4.31150E-004	-3.27672E+002	7	...........
	301	302	3.82672E+000	-6.99929E-007	0.00000E+000	-2.67843E-006	0.00000E+000	4.32267E-004	-3.27672E+002	7	...........
	302	303	3.82671E+000	-6.99217E-007	0.00000E+000	-2.67570E-006	0.00000E+000	4.31900E-004	-3.27672E+002	7	...........
	303	304	3.82671E+000	-6.98997E-007	0.00000E+000	-2.67486E-006	0.00000E+000	4.28083E-004	-3.27672E+002	7	...........
	304	305	3.82670E+000	-6.99105E-007	0.00000E+000	-2.67526E-006	0.00000E+000	4.32550E-004	-3.27672E+002	7	...........
	305	306	3.82670E+000	-6.99905E-007	0.00000E+000	-2.67832E-006	0.00000E+000	4.32267E-004	-3.27672E+002	7	...........
	306	307	3.82670E+000	-6.99480E-007	0.00000E+000	-2.67670E-006	0.00000E+000	4.30450E-004	-3.27672E+002	7	...........
	307	308	3.82669E+000	-6.99799E-007	0.00000E+000	-2.67792E-006	0.00000E+000	4.30917E-004	-3.27672E+002	7	...........
	308	309	3.82668E+000	-6.99234E-007	0.00000E+000	-2.67575E-006	0.00000E+000	4.30300E-004	-3.27672E+002	7	...........
	309	310	3.82669E+000	-6.98875E-007	0.00000E+000	-2.67438E-006	0.00000E+000	4.31883E-004	-3.27672E+002	7	...........
	310	311	3.82668E+000	-6.98907E-007	0.00000E+000	-2.67450E-006	0.00000E+000	4.33000E-004	-3.27672E+002	7	...........
	311	312	3.82668E+000	-6.98290E-007	0.00000E+000	-2.67213E-006	0.00000E+000	4.35667E-004	-3.27672E+002	7	...........
	312	313	3.82667E+000	-6.98867E-007	0.00000E+000	-2.67434E-006	0.00000E+000	4.36300E-004	-3.27672E+002	7	...........
	313	314	3.82667E+000	-6.98668E-007	0.00000E+000	-2.67357E-006	0.00000E+000	4.30283E-004	-3.27672E+002	7	...........
	314	315	3.82667E+000	-7.00069E-007	0.00000E+000	-2.67893E-006	0.00000E+000	4.32067E-004	-3.27672E+002	7	...........
	315	316	3.82666E+000	-7.00107E-007	0.00000E+000	-2.67907E-006	0.00000E+000	4.34083E-004	-3.27672E+002	7	...........
	316	317	3.82665E+000	-6.99721E-007	0.00000E+000	-2.67759E-006	0.00000E+000	4.30933E-004	-3.27672E+002	7	...........
	317	318	3.82666E+000	-6.99415E-007	0.00000E+000	-2.67642E-006	0.00000E+000	4.29633E-004	-3.27672E+002	7	...........
	318	319	3.82666E+000	-7.00007E-007	0.00000E+000	-2.67868E-006	0.00000E+000	4.34567E-004	-3.27672E+002	7	...........
	319	320	3.82665E+000	-6.99216E-007	0.00000E+000	-2.67565E-006	0.00000E+000	4.34200E-004	-3.27672E+002	7	...........
	320	321	3.82663E+000	-7.00391E-007	0.00000E+000	-2.68014E-006	0.00000E+000	4.31100E-004	-3.27672E+002	7	...........
	321	322	3.82663E+000	-6.99165E-007	0.00000E+000	-2.67545E-006	0.00000E+000	4.31583E-004	-3.27672E+002	7	...........
	322	323	3.82663E+000	-6.98571E-007	0.00000E+000	-2.67317E-006	0.00000E+000	4.31133E-004	-3.27672E+002	7	...........
	323	324	3.82663E+000	-6.99027E-007	0.00000E+000	-2.67492E-006	0.00000E+000	4.30533E-004	-3.27672E+002	7	...........
	324	325	3.82662E+000	-6.99558E-007	0.00000E+000	-2.67694E-006	0.00000E+000	4.31700E-004	-3.27672E+002	7	...........
	325	326	3.82661E+000	-6.98873E-007	0.00000E+000	-2.67432E-006	0.00000E+000	4.31767E-004	-3.27672E+002	7	...........
	326	327	3.82661E+000	-6.99013E-007	0.00000E+000	-2.67485E-006	0.00000E+000	4.32800E-004	-3.27672E+002	7	...........
	327	328	3.82661E+000	-6.99242E-007	0.00000E+000	-2.67572E-006	0.00000E+000	4.31950E-004	-3.27672E+002	7	...........
	328	329	3.82660E+000	-6.99558E-007	0.00000E+000	-2.67693E-006	0.00000E+000	4.32250E-004	-3.27672E+002	7	...........
	329	330	3.82659E+000	-6.99256E-007	0.00000E+000	-2.67577E-006	0.00000E+000	4.31017E-004	-3.27672E+002	7	...........
	330	331	3.82659E+000	-6.99180E-007	0.00000E+000	-2.67548E-006	0.00000E+000	4.30133E-004	-3.27672E+002	7	...........
	331	332	3.82659E+000	-6.99314E-007	0.00000E+000	-2.67599E-006	0.00000E+000	4.30317E-004	-3.27672E+002	7	...........
	332	333	3.82658E+000	-6.99220E-007	0.00000E+000	-2.67562E-006	0.00000E+000	4.32617E-004	-3.27672E+002	7	...........
	333	334	3.82658E+000	-6.98601E-007	0.00000E+000	-2.67325E-006	0.00000E+000	4.29383E-004	-3.27672E+002	7	...........
	334	335	3.82657E+000	-6.98985E-007	0.00000E+000	-2.67472E-006	0.00000E+000	4.34183E-004	-3.27672E+002	7	...........
	335	336	3.82657E+000	-6.99452E-007	0.00000E+000	-2.67650E-006	0.00000E+000	4.32517E-004	-3.27672E+002	7	...........
	336	337	3.82656E+000	-6.99772E-007	0.00000E+000	-2.67772E-006	0.00000E+000	4.32017E-004	-3.27672E+002	7	...........
	337	338	3.82656E+000	-6.99469E-007	0.00000E+000	-2.67656E-006	0.00000E+000	4.30267E-004	-3.27672E+002	7	...........
	338	339	3.82656E+000	-6.99114E-007	0.00000E+000	-2.67520E-006	0.00000E+000	4.31283E-004	-3.27672E+002	7	...........
	339	340	3.82655E+000	-6.98125E-007	0.00000E+000	-2.67141E-006	0.00000E+000	4.31400E-004	-3.27672E+002	7	...........
	340	341	3.82654E+000	-6.97961E-007	0.00000E+000	-2.67078E-006	0.00000E+000	4.31967E-004	-3.27672E+002	7	...........
	341	342	3.82654E+000	-6.98589E-007	0.00000E+000	-2.67318E-006	0.00000E+000	4.29833E-004	-3.27672E+002	7	...........
	342	343	3.82653E+000	-6.99111E-007	0.00000E+000	-2.67517E-006	0.00000E+000	4.29183E-004	-3.27672E+002	7	...........
	343	344	3.82653E+000	-6.98983E-007	0.00000E+000	-2.67468E-006	0.00000E+000	4.30550E-004	-3.27672E+002	7	...........
	344	345	3.82653E+000	-6.97927E-007	0.00000E+000	-2.67064E-006	0.00000E+000	4.27233E-004	-3.27672E+002	7	...........
	345	346	3.82652E+000	-6.98866E-007	0.00000E+000	-2.67422E-006	0.00000E+000	4.32200E-004	-3.27672E+002	7	...........
	346	347	3.82653E+000	-6.98560E-007	0.00000E+000	-2.67306E-006	0.00000E+000	4.29567E-004	-3.27672E+002	7	...........
	347	348	3.82651E+000	-6.98579E-007	0.00000E+000	-2.67312E-006	0.00000E+000	4.32433E-004	-3.27672E+002	7	...........
	348	349	3.82651E+000	-6.98869E-007	0.00000E+000	-2.67423E-006	0.00000E+000	4.33000E-004	-3.27672E+002	7	...........
	349	350	3.82651E+000	-6.99140E-007	0.00000E+000	-2.67526E-006	0.00000E+000	4.35067E-004	-3.27672E+002	7	...........
	350	351	3.82650E+000	-6.98609E-007	0.00000E+000	-2.67323E-006	0.00000E+000	4.30317E-004	-3.27672E+002	7	...........
	351	352	3.82650E+000	-6.99631E-007	0.00000E+000	-2.67714E-006	0.00000E+000	4.34533E-004	-3.27672E+002	7	...........
	352	353	3.82649E+000	-6.99062E-007	0.00000E+000	-2.67495E-006	0.00000E+000	4.32417E-004	-3.27672E+002	7	...........
	353	354	3.82649E+000	-7.00219E-007	0.00000E+000	-2.67938E-006	0.00000E+000	4.31167E-004	-3.27672E+002	7	...........
	354	355	3.82649E+000	-6.99744E-007	0.00000E+000	-2.67756E-006	0.00000E+000	4.35433E-004	-3.27672E+002	7	...........
	355	356	3.82649E+000	-7.00352E-007	0.00000E+000	-2.67989E-006	0.00000E+000	4.33417E-004	-3.27672E+002	7	...........
	356	357	3.82648E+000	-6.99726E-007	0.00000E+000	-2.67749E-006	0.00000E+000	4.31017E-004	-3.27672E+002	7	...........
	357	358	3.82647E+000	-6.99285E-007	0.00000E+000	-2.67580E-006	0.00000E+000	4.33533E-004	-3.27672E+002	7	...........
	358	359	3.82647E+000	-6.98808E-007	0.00000E+000	-2.67397E-006	0.00000E+000	4.31733E-004	-3.27672E+002	7	...........
	359	360	3.82646E+000	-6.99479E-007	0.00000E+000	-2.67653E-006	0.00000E+000	4.31867E-004	-3.27672E+002	7	...........
	360	361	3.82646E+000	-6.99847E-007	0.00000E+000	-2.67794E-006	0.00000E+000	4.32983E-004	-3.27672E+002	7	...........
	361	362	3.82646E+000	-6.99649E-007	0.00000E+000	-2.67718E-006	0.00000E+000	4.34183E-004	-3.27672E+002	7	...........
	362	363	3.82645E+000	-7.00009E-007	0.00000E+000	-2.67855E-006	0.00000E+000	4.31783E-004	-3.27672E+002	7	...........
	363	364	3.82645E+000	-7.00086E-007	0.00000E+000	-2.67885E-006	0.00000E+000	4.33350E-004	-3.27672E+002	7	...........
	364	365	3.82644E+000	-6.99276E-007	0.00000E+000	-2.67574E-006	0.00000E+000	4.31683E-004	-3.27672E+002	7	...........
	365	366	3.82644E+000	-6.99381E-007	0.00000E+000	-2.67614E-006	0.00000E+000	4.32183E-004	-3.27672E+002	7	...........
	366	367	3.82643E+000	-7.00074E-007	0.00000E+000	-2.67878E-006	0.00000E+000	4.34233E-004	-3.27672E+002	7	...........
	367	368	3.82642E+000	-6.98983E-007	0.00000E+000	-2.67461E-006	0.00000E+000	4.32533E-004	-3.27672E+002	7	...........
	368	369	3.82643E+000	-6.99930E-007	0.00000E+000	-2.67823E-006	0.00000E+000	4.32000E-004	-3.27672E+002	7	...........
	369	370	3.82641E+000	-6.99772E-007	0.00000E+000	-2.67762E-006	0.00000E+000	4.34333E-004	-3.27672E+002	7	...........
	370	371	3.82642E+000	-7.00104E-007	0.00000E+000	-2.67889E-006	0.00000E+000	4.35833E-004	-3.27672E+002	7	...........
	371	372	3.82642E+000	-6.99867E-007	0.00000E+000	-2.67798E-006	0.00000E+000	4.33817E-004	-3.27672E+002	7	...........
	372	373	3.82641E+000	-6.99627E-007	0.00000E+000	-2.67706E-006	0.00000E+000	4.33767E-004	-3.27672E+002	7	...........
	373	374	3.82641E+000	-6.99426E-007	0.00000E+000	-2.67629E-006	0.00000E+000	4.34100E-004	-3.27672E+002	7	...........
	374	375	3.82641E+000	-7.00080E-007	0.00000E+000	-2.67879E-006	0.00000E+000	4.34533E-004	-3.27672E+002	7	...........
	375	376	3.82640E+000	-6.98760E-007	0.00000E+000	-2.67374E-006	0.00000E+000	4.34083E-004	-3.27672E+002	7	...........
	376	377	3.82640E+000	-6.98286E-007	0.00000E+000	-2.67192E-006	0.00000E+000	4.37467E-004	-3.27672E+002	7	...........
	377	378	3.82640E+000	-6.99556E-007	0.00000E+000	-2.67678E-006	0.00000E+000	4.33650E-004	-3.27672E+002	7	...........
	378	379	3.82639E+000	-6.99550E-007	0.00000E+000	-2.67675E-006	0.00000E+000	4.36650E-004	-3.27672E+002	7	...........
	379	380	3.82638E+000	-6.99727E-007	0.00000E+000	-2.67742E-006	0.00000E+000	4.33183E-004	-3.27672E+002	7	...........
	380	381	3.82637E+000	-6.99213E-007	0.00000E+000	-2.67545E-006	0.00000E+000	4.33400E-004	-3.27672E+002	7	...........
	381	382	3.82638E+000	-6.98766E-007	0.00000E+000	-2.67374E-006	0.00000E+000	4.34983E-004	-3.27672E+002	7	...........
	382	383	3.82638E+000	-6.98729E-007	0.00000E+000	-2.67360E-006	0.00000E+000	4.38983E-004	-3.27672E+002	7	...........
	383	384	3.82637E+000	-6.98498E-007	0.00000E+000	-2.67271E-006	0.00000E+000	4.34900E-004	-3.27672E+002	7	...........
	384	385	3.82636E+000	-6.98915E-007	0.00000E+000	-2.67430E-006	0.00000E+000	4.36783E-004	-3.27672E+002	7	...........
	385	386	3.82635E+000	-6.99222E-007	0.00000E+000	-2.67547E-006	0.00000E+000	4.34600E-004	-3.27672E+002	7	...........
	386	387	3.82635E+000	-6.99416E-007	0.00000E+000	-2.67621E-006	0.00000E+000	4.37767E-004	-3.27672E+002	7	...........
	387	388	3.82635E+000	-6.99359E-007	0.00000E+000	-2.67599E-006	0.00000E+000	4.33550E-004	-3.27672E+002	7	...........
	388	389	3.82635E+000	-6.99791E-007	0.00000E+000	-2.67764E-006	0.00000E+000	4.32233E-004	-3.27672E+002	7	...........
	389	390	3.82635E+000	-7.00863E-007	0.00000E+000	-2.68175E-006	0.00000E+000	4.38150E-004	-3.27672E+002	7	...........
	390	391	3.82634E+000	-6.99595E-007	0.00000E+000	-2.67689E-006	0.00000E+000	4.36333E-004	-3.27672E+002	7	...........
	391	392	3.82633E+000	-6.99279E-007	0.00000E+000	-2.67568E-006	0.00000E+000	4.35567E-004	-3.27672E+002	7	...........
	392	393	3.82633E+000	-6.98865E-007	0.00000E+000	-2.67409E-006	0.00000E+000	4.37100E-004	-3.27672E+002	7	...........
	393	394	3.82633E+000	-6.98158E-007	0.00000E+000	-2.67138E-006	0.00000E+000	4.34250E-004	-3.27672E+002	7	...........
	394	395	3.82632E+000	-6.98154E-007	0.00000E+000	-2.67136E-006	0.00000E+000	4.37417E-004	-3.27672E+002	7	...........
	395	396	3.82631E+000	-6.98617E-007	0.00000E+000	-2.67313E-006	0.00000E+000	4.36783E-004	-3.27672E+002	7	...........
	396	397	3.82631E+000	-6.99479E-007	0.00000E+000	-2.67643E-006	0.00000E+000	4.35550E-004	-3.27672E+002	7	...........
	397	398	3.82630E+000	-6.98433E-007	0.00000E+000	-2.67241E-006	0.00000E+000	4.37533E-004	-3.27672E+002	7	...........
	398	399	3.82630E+000	-6.98411E-007	0.00000E+000	-2.67233E-006	0.00000E+000	4.39467E-004	-3.27672E+002	7	...........
	399	400	3.82630E+000	-6.98664E-007	0.00000E+000	-2.67330E-006	0.00000E+000	4.37217E-004	-3.27672E+002	7	...........
	400	401	3.82629E+000	-6.98104E-007	0.00000E+000	-2.67115E-006	0.00000E+000	4.37533E-004	-3.27672E+002	7	...........
	401	402	3.82629E+000	-6.98811E-007	0.00000E+000	-2.67386E-006	0.00000E+000	4.36483E-004	-3.27672E+002	7	...........
	402	403	3.82629E+000	-6.99153E-007	0.00000E+000	-2.67516E-006	0.00000E+000	4.35967E-004	-3.27672E+002	7	...........
	403	404	3.82628E+000	-6.98915E-007	0.00000E+000	-2.67425E-006	0.00000E+000	4.35233E-004	-3.27672E+002	7	...........
	404	405	3.82629E+000	-6.99402E-007	0.00000E+000	-2.67611E-006	0.00000E+000	4.36617E-004	-3.27672E+002	7	...........
	405	406	3.82628E+000	-6.99607E-007	0.00000E+000	-2.67689E-006	0.00000E+000	4.35117E-004	-3.27672E+002	7	...........
	406	407	3.82627E+000	-6.99251E-007	0.00000E+000	-2.67553E-006	0.00000E+000	4.31833E-004	-3.27672E+002	7	...........
	407	408	3.82626E+000	-6.99411E-007	0.00000E+000	-2.67613E-006	0.00000E+000	4.35950E-004	-3.27672E+002	7	...........
	408	409	3.82626E+000	-6.99202E-007	0.00000E+000	-2.67533E-006	0.00000E+000	4.32850E-004	-3.27672E+002	7	...........
	409	410	3.82626E+000	-6.98604E-007	0.00000E+000	-2.67304E-006	0.00000E+000	4.34250E-004	-3.27672E+002	7	...........
	410	411	3.82626E+000	-6.98415E-007	0.00000E+000	-2.67232E-006	0.00000E+000	4.35017E-004	-3.27672E+002	7	...........
	411	412	3.82625E+000	-6.97837E-007	0.00000E+000	-2.67010E-006	0.00000E+000	4.32300E-004	-3.27672E+002	7	...........
	412	413	3.82625E+000	-6.97799E-007	0.00000E+000	-2.66995E-006	0.00000E+000	4.32083E-004	-3.27672E+002	7	...........
	413	414	3.82625E+000	-6.98927E-007	0.00000E+000	-2.67427E-006	0.00000E+000	4.34067E-004	-3.27672E+002	7	...........
	414	415	3.82625E+000	-6.98805E-007	0.00000E+000	-2.67380E-006	0.00000E+000	4.34033E-004	-3.27672E+002	7	...........
	415	416	3.82624E+000	-6.98650E-007	0.00000E+000	-2.67320E-006	0.00000E+000	4.37733E-004	-3.27672E+002	7	...........
	416	417	3.82624E+000	-6.98585E-007	0.00000E+000	-2.67295E-006	0.00000E+000	4.35717E-004	-3.27672E+002	7	...........
	417	418	3.82624E+000	-6.98399E-007	0.00000E+000	-2.67224E-006	0.00000E+000	4.31050E-004	-3.27672E+002	7	...........
	418	419	3.82624E+000	-6.98267E-007	0.00000E+000	-2.67173E-006	0.00000E+000	4.39050E-004	-3.27672E+002	7	...........
	419	420	3.82623E+000	-6.97464E-007	0.00000E+000	-2.66866E-006	0.00000E+000	4.31833E-004	-3.27672E+002	7	...........
	420	421	3.82622E+000	-6.98658E-007	0.00000E+000	-2.67322E-006	0.00000E+000	4.35667E-004	-3.27672E+002	7	...........
	421	422	3.82622E+000	-6.99076E-007	0.00000E+000	-2.67482E-006	0.00000E+000	4.36950E-004	-3.27672E+002	7	...........
	422	423	3.82621E+000	-6.99225E-007	0.00000E+000	-2.67538E-006	0.00000E+000	4.38283E-004	-3.27672E+002	7	...........
	423	424	3.82621E+000	-6.98599E-007	0.00000E+000	-2.67299E-006	0.00000E+000	4.35800E-004	-3.27672E+002	7	...........
	424	425	3.82621E+000	-6.99192E-007	0.00000E+000	-2.67525E-006	0.00000E+000	4.34600E-004	-3.27672E+002	7	...........
	425	426	3.82620E+000	-6.99304E-007	0.00000E+000	-2.67568E-006	0.00000E+000	4.34283E-004	-3.27672E+002	7	...........
	426	427	3.82619E+000	-6.98626E-007	0.00000E+000	-2.67308E-006	0.00000E+000	4.35500E-004	-3.27672E+002	7	...........
	427	428	3.82619E+000	-6.99260E-007	0.00000E+000	-2.67550E-006	0.00000E+000	4.36633E-004	-3.27672E+002	7	...........
	428	429	3.82619E+000	-6.98573E-007	0.00000E+000	-2.67288E-006	0.00000E+000	4.35533E-004	-3.27672E+002	7	...........
	429	430	3.82618E+000	-6.97620E-007	0.00000E+000	-2.66922E-006	0.00000E+000	4.33700E-004	-3.27672E+002	7	...........
	430	431	3.82618E+000	-6.97656E-007	0.00000E+000	-2.66936E-006	0.00000E+000	4.34283E-004	-3.27672E+002	7	...........
	431	432	3.82618E+000	-6.98039E-007	0.00000E+000	-2.67082E-006	0.00000E+000	4.37183E-004	-3.27672E+002	7	...........
	432	433	3.82617E+000	-6.98952E-007	0.00000E+000	-2.67431E-006	0.00000E+000	4.33750E-004	-3.27672E+002	7	...........
	433	434	3.82618E+000	-6.99078E-007	0.00000E+000	-2.67480E-006	0.00000E+000	4.34000E-004	-3.27672E+002	7	...........
	434	435	3.82617E+000	-6.98805E-007	0.00000E+000	-2.67374E-006	0.00000E+000	4.33483E-004	-3.27672E+002	7	...........
	435	436	3.82617E+000	-6.97880E-007	0.00000E+000	-2.67021E-006	0.00000E+000	4.33067E-004	-3.27672E+002	7	...........
	436	437	3.82616E+000	-6.97804E-007	0.00000E+000	-2.66991E-006	0.00000E+000	4.36383E-004	-3.27672E+002	7	...........
	437	438	3.82616E+000	-6.98637E-007	0.00000E+000	-2.67310E-006	0.00000E+000	4.36483E-004	-3.27672E+002	7	...........
	438	439	3.82615E+000	-6.98362E-007	0.00000E+000	-2.67204E-006	0.00000E+000	4.33967E-004	-3.27672E+002	7	...........
	439	440	3.82615E+000	-6.97953E-007	0.00000E+000	-2.67048E-006	0.00000E+000	4.35100E-004	-3.27672E+002	7	...........
	440	441	3.82615E+000	-6.98604E-007	0.00000E+000	-2.67297E-006	0.00000E+000	4.33200E-004	-3.27672E+002	7	...........
	441	442	3.82615E+000	-6.97835E-007	0.00000E+000	-2.67002E-006	0.00000E+000	4.34067E-004	-3.27672E+002	7	...........
	442	443	3.82614E+000	-6.99042E-007	0.00000E+000	-2.67463E-006	0.00000E+000	4.33950E-004	-3.27672E+002	7	...........
	443	444	3.82614E+000	-6.97793E-007	0.00000E+000	-2.66985E-006	0.00000E+000	4.34600E-004	-3.27672E+002	7	...........
	444	445	3.82613E+000	-6.98185E-007	0.00000E+000	-2.67134E-006	0.00000E+000	4.34517E-004	-3.27672E+002	7	...........
	445	446	3.82613E+000	-6.98388E-007	0.00000E+000	-2.67212E-006	0.00000E+000	4.35400E-004	-3.27672E+002	7	...........
	446	447	3.82612E+000	-6.98510E-007	0.00000E+000	-2.67258E-006	0.00000E+000	4.33917E-004	-3.27672E+002	7	...........
	447	448	3.82612E+000	-6.97054E-007	0.00000E+000	-2.66701E-006	0.00000E+000	4.34583E-004	-3.27672E+002	7	...........
	448	449	3.82611E+000	-6.97912E-007	0.00000E+000	-2.67029E-006	0.00000E+000	4.34933E-004	-3.27672E+002	7	...........
	449	450	3.82611E+000	-6.98877E-007	0.00000E+000	-2.67398E-006	0.00000E+000	4.36833E-004	-3.27672E+002	7	...........
	450	451	3.82611E+000	-6.98643E-007	0.00000E+000	-2.67309E-006	0.00000E+000	4.35183E-004	-3.27672E+002	7	...........
	451	452	3.82610E+000	-6.98153E-007	0.00000E+000	-2.67120E-006	0.00000E+000	4.37567E-004	-3.27672E+002	7	...........
	452	453	3.82609E+000	-6.98586E-007	0.00000E+000	-2.67286E-006	0.00000E+000	4.34833E-004	-3.27672E+002	7	...........
	453	454	3.82608E+000	-6.97569E-007	0.00000E+000	-2.66896E-006	0.00000E+000	4.33883E-004	-3.27672E+002	7	...........
	454	455	3.82608E+000	-6.97836E-007	0.00000E+000	-2.66997E-006	0.00000E+000	4.37817E-004	-3.27672E+002	7	...........
	455	456	3.82608E+000	-6.97418E-007	0.00000E+000	-2.66838E-006	0.00000E+000	4.34217E-004	-3.27672E+002	7	...........
	456	457	3.82608E+000	-6.98177E-007	0.00000E+000	-2.67128E-006	0.00000E+000	4.33917E-004	-3.27672E+002	7	...........
	457	458	3.82607E+000	-6.97942E-007	0.00000E+000	-2.67038E-006	0.00000E+000	4.33650E-004	-3.27672E+002	7	...........
	458	459	3.82608E+000	-6.98228E-007	0.00000E+000	-2.67148E-006	0.00000E+000	4.32917E-004	-3.27672E+002	7	...........
	459	460	3.82607E+000	-6.98576E-007	0.00000E+000	-2.67280E-006	0.00000E+000	4.34617E-004	-3.27672E+002	7	...........
	460	461	3.82607E+000	-6.98178E-007	0.00000E+000	-2.67128E-006	0.00000E+000	4.36583E-004	-3.27672E+002	7	...........
	461	462	3.82607E+000	-6.99270E-007	0.00000E+000	-2.67545E-006	0.00000E+000	4.35800E-004	-3.27672E+002	7	...........
	462	463	3.82606E+000	-6.98234E-007	0.00000E+000	-2.67148E-006	0.00000E+000	4.35683E-004	-3.27672E+002	7	...........
	463	464	3.82606E+000	-6.98612E-007	0.00000E+000	-2.67293E-006	0.00000E+000	4.37100E-004	-3.27672E+002	7	...........
	464	465	3.82605E+000	-6.98494E-007	0.00000E+000	-2.67247E-006	0.00000E+000	4.35583E-004	-3.27672E+002	7	...........
	465	466	3.82605E+000	-6.97953E-007	0.00000E+000	-2.67040E-006	0.00000E+000	4.34183E-004	-3.27672E+002	7	...........
	466	467	3.82605E+000	-6.98542E-007	0.00000E+000	-2.67265E-006	0.00000E+000	4.35667E-004	-3.27672E+002	7	...........
	467	468	3.82604E+000	-6.98809E-007	0.00000E+000	-2.67367E-006	0.00000E+000	4.38150E-004	-3.27672E+002	7	...........
	468	469	3.82604E+000	-6.99090E-007	0.00000E+000	-2.67475E-006	0.00000E+000	4.37000E-004	-3.27672E+002	7	...........
	469	470	3.82605E+000	-6.99191E-007	0.00000E+000	-2.67514E-006	0.00000E+000	4.34167E-004	-3.27672E+002	7	...........
	470	471	3.82604E+000	-6.98440E-007	0.00000E+000	-2.67226E-006	0.00000E+000	4.34033E-004	-3.27672E+002	7	...........
	471	472	3.82603E+000	-6.97544E-007	0.00000E+000	-2.66883E-006	0.00000E+000	4.34700E-004	-3.27672E+002	7	...........
	472	473	3.82603E+000	-6.98317E-007	0.00000E+000	-2.67178E-006	0.00000E+000	4.36467E-004	-3.27672E+002	7	...........
	473	474	3.82603E+000	-6.98351E-007	0.00000E+000	-2.67191E-006	0.00000E+000	4.37433E-004	-3.27672E+002	7	...........
	474	475	3.82602E+000	-6.97874E-007	0.00000E+000	-2.67008E-006	0.00000E+000	4.37900E-004	-3.27672E+002	7	...........
	475	476	3.82602E+000	-6.98709E-007	0.00000E+000	-2.67327E-006	0.00000E+000	4.34883E-004	-3.27672E+002	7	...........
	476	477	3.82602E+000	-6.98647E-007	0.00000E+000	-2.67303E-006	0.00000E+000	4.34600E-004	-3.27672E+002	7	...........
	477	478	3.82601E+000	-6.98556E-007	0.00000E+000	-2.67268E-006	0.00000E+000	4.33967E-004	-3.27672E+002	7	...........
	478	479	3.82601E+000	-6.98641E-007	0.00000E+000	-2.67301E-006	0.00000E+000	4.32217E-004	-3.27672E+002	7	...........
	479	480	3.82600E+000	-6.98021E-007	0.00000E+000	-2.67063E-006	0.00000E+000	4.33400E-004	-3.27672E+002	7	...........
	480	481	3.82600E+000	-6.98165E-007	0.00000E+000	-2.67117E-006	0.00000E+000	4.38233E-004	-3.27672E+002	7	...........
	481	482	3.82599E+000	-6.98085E-007	0.00000E+000	-2.67087E-006	0.00000E+000	4.33983E-004	-3.27672E+002	7	...........
	482	483	3.82599E+000	-6.98348E-007	0.00000E+000	-2.67187E-006	0.00000E+000	4.36067E-004	-3.27672E+002	7	...........
	483	484	3.82599E+000	-6.96877E-007	0.00000E+000	-2.66624E-006	0.00000E+000	4.34900E-004	-3.27672E+002	7	...........
	484	485	3.82598E+000	-6.97599E-007	0.00000E+000	-2.66900E-006	0.00000E+000	4.35083E-004	-3.27672E+002	7	...........
	485	486	3.82598E+000	-6.98067E-007	0.00000E+000	-2.67079E-006	0.00000E+000	4.33783E-004	-3.27672E+002	7	...........
	486	487	3.82598E+000	-6.98241E-007	0.00000E+000	-2.67145E-006	0.00000E+000	4.35567E-004	-3.27672E+002	7	...........
	487	488	3.82598E+000	-6.98232E-007	0.00000E+000	-2.67142E-006	0.00000E+000	4.39567E-004	-3.27672E+002	7	...........
	488	489	3.82597E+000	-6.99102E-007	0.00000E+000	-2.67474E-006	0.00000E+000	4.37483E-004	-3.27672E+002	7	...........
	489	490	3.82597E+000	-6.98199E-007	0.00000E+000	-2.67129E-006	0.00000E+000	4.33533E-004	-3.27672E+002	7	...........
	490	491	3.82597E+000	-6.97553E-007	0.00000E+000	-2.66881E-006	0.00000E+000	4.33850E-004	-3.27672E+002	7	...........
	491	492	3.82596E+000	-6.97553E-007	0.00000E+000	-2.66881E-006	0.00000E+000	4.33900E-004	-3.27672E+002	7	...........
	492	493	3.82596E+000	-6.98080E-007	0.00000E+000	-2.67083E-006	0.00000E+000	4.30800E-004	-3.27672E+002	7	...........
	493	494	3.82596E+000	-6.98660E-007	0.00000E+000	-2.67304E-006	0.00000E+000	4.36033E-004	-3.27672E+002	7	...........
	494	495	3.82596E+000	-6.98611E-007	0.00000E+000	-2.67286E-006	0.00000E+000	4.35367E-004	-3.27672E+002	7	...........
	495	496	3.82595E+000	-6.98925E-007	0.00000E+000	-2.67405E-006	0.00000E+000	4.32983E-004	-3.27672E+002	7	...........
	496	497	3.82595E+000	-6.98966E-007	0.00000E+000	-2.67421E-006	0.00000E+000	4.35000E-004	-3.27672E+002	7	...........
	497	498	3.82594E+000	-6.98377E-007	0.00000E+000	-2.67195E-006	0.00000E+000	4.34117E-004	-3.27672E+002	7	...........
	498	499	3.82594E+000	-6.98423E-007	0.00000E+000	-2.67212E-006	0.00000E+000	4.33433E-004	-3.27672E+002	7	...........
	499	500	3.82593E+000	-6.98284E-007	0.00000E+000	-2.67159E-006	0.00000E+000	4.31733E-004	-3.27672E+002	7	...........
	500	501	3.82593E+000	-6.98125E-007	0.00000E+000	-2.67098E-006	0.00000E+000	4.33133E-004	-3.27672E+002	7	...........
	501	502	3.82593E+000	-6.97314E-007	0.00000E+000	-2.66788E-006	0.00000E+000	4.30850E-004	-3.27672E+002	7	...........
	502	503	3.82593E+000	-6.97947E-007	0.00000E+000	-2.67030E-006	0.00000E+000	4.33333E-004	-3.27672E+002	7	...........
	503	504	3.82593E+000	-6.98634E-007	0.00000E+000	-2.67293E-006	0.00000E+000	4.31933E-004	-3.27672E+002	7	...........
	504	505	3.82592E+000	-6.98268E-007	0.00000E+000	-2.67152E-006	0.00000E+000	4.33517E-004	-3.27672E+002	7	...........
	505	506	3.82592E+000	-6.98605E-007	0.00000E+000	-2.67281E-006	0.00000E+000	4.36033E-004	-3.27672E+002	7	...........
	506	507	3.82591E+000	-6.98182E-007	0.00000E+000	-2.67118E-006	0.00000E+000	4.33167E-004	-3.27672E+002	7	...........
	507	508	3.82591E+000	-6.98562E-007	0.00000E+000	-2.67264E-006	0.00000E+000	4.34050E-004	-3.27672E+002	7	...........
	508	509	3.82591E+000	-6.97641E-007	0.00000E+000	-2.66911E-006	0.00000E+000	4.34217E-004	-3.27672E+002	7	...........
	509	510	3.82590E+000	-6.98023E-007	0.00000E+000	-2.67057E-006	0.00000E+000	4.33567E-004	-3.27672E+002	7	...........
	510	511	3.82590E+000	-6.98669E-007	0.00000E+000	-2.67304E-006	0.00000E+000	4.33283E-004	-3.27672E+002	7	...........
	511	512	3.82591E+000	-6.99006E-007	0.00000E+000	-2.67433E-006	0.00000E+000	4.31500E-004	-3.27672E+002	7	...........
	512	513	3.82590E+000	-6.98837E-007	0.00000E+000	-2.67368E-006	0.00000E+000	4.34217E-004	-3.27672E+002	7	...........
	513	514	3.82590E+000	-6.99113E-007	0.00000E+000	-2.67473E-006	0.00000E+000	4.31783E-004	-3.27672E+002	7	...........
	514	515	3.82589E+000	-6.99099E-007	0.00000E+000	-2.67467E-006	0.00000E+000	4.34100E-004	-3.27672E+002	7	...........
	515	516	3.82588E+000	-6.98740E-007	0.00000E+000	-2.67329E-006	0.00000E+000	4.31183E-004	-3.27672E+002	7	...........
	516	517	3.82588E+000	-6.99317E-007	0.00000E+000	-2.67550E-006	0.00000E+000	4.34733E-004	-3.27672E+002	7	...........
	517	518	3.82588E+000	-6.99549E-007	0.00000E+000	-2.67639E-006	0.00000E+000	4.34083E-004	-3.27672E+002	7	...........
	518	519	3.82588E+000	-6.98615E-007	0.00000E+000	-2.67282E-006	0.00000E+000	4.35200E-004	-3.27672E+002	7	...........
	519	520	3.82587E+000	-6.98119E-007	0.00000E+000	-2.67092E-006	0.00000E+000	4.38100E-004	-3.27672E+002	7	...........
	520	521	3.82587E+000	-6.98355E-007	0.00000E+000	-2.67182E-006	0.00000E+000	4.33350E-004	-3.27672E+002	7	...........
	521	522	3.82587E+000	-6.99421E-007	0.00000E+000	-2.67590E-006	0.00000E+000	4.31867E-004	-3.27672E+002	7	...........
	522	523	3.82587E+000	-6.99205E-007	0.00000E+000	-2.67507E-006	0.00000E+000	4.35283E-004	-3.27672E+002	7	...........
	523	524	3.82586E+000	-6.98796E-007	0.00000E+000	-2.67349E-006	0.00000E+000	4.32733E-004	-3.27672E+002	7	...........
	524	525	3.82585E+000	-6.99092E-007	0.00000E+000	-2.67462E-006	0.00000E+000	4.32983E-004	-3.27672E+002	7	...........
	525	526	3.82585E+000	-6.99084E-007	0.00000E+000	-2.67459E-006	0.00000E+000	4.34050E-004	-3.27672E+002	7	...........
	526	527	3.82585E+000	-6.98742E-007	0.00000E+000	-2.67328E-006	0.00000E+000	4.30900E-004	-3.27672E+002	7	...........
	527	528	3.82585E+000	-6.98505E-007	0.00000E+000	-2.67237E-006	0.00000E+000	4.33367E-004	-3.27672E+002	7	...........
	528	529	3.82585E+000	-6.99432E-007	0.00000E+000	-2.67592E-006	0.00000E+000	4.32950E-004	-3.27672E+002	7	...........
	529	530	3.82584E+000	-6.99567E-007	0.00000E+000	-2.67643E-006	0.00000E+000	4.30283E-004	-3.27672E+002	7	...........
	530	531	3.82583E+000	-6.99883E-007	0.00000E+000	-2.67764E-006	0.00000E+000	4.30550E-004	-3.27672E+002	7	...........
	531	532	3.82583E+000	-7.00327E-007	0.00000E+000	-2.67933E-006	0.00000E+000	4.31617E-004	-3.27672E+002	7	...........
	532	533	3.82583E+000	-7.00843E-007	0.00000E+000	-2.68131E-006	0.00000E+000	4.35700E-004	-3.27672E+002	7	...........
	533	534	3.82583E+000	-6.99517E-007	0.00000E+000	-2.67623E-006	0.00000E+000	4.34067E-004	-3.27672E+002	7	...........
	534	535	3.82583E+000	-6.99087E-007	0.00000E+000	-2.67459E-006	0.00000E+000	4.34133E-004	-3.27672E+002	7	...........
	535	536	3.82582E+000	-7.00069E-007	0.00000E+000	-2.67834E-006	0.00000E+000	4.33700E-004	-3.27672E+002	7	...........
	536	537	3.82582E+000	-6.99492E-007	0.00000E+000	-2.67613E-006	0.00000E+000	4.36450E-004	-3.27672E+002	7	...........
	537	538	3.82582E+000	-6.97911E-007	0.00000E+000	-2.67008E-006	0.00000E+000	4.34117E-004	-3.27672E+002	7	...........
	538	539	3.82582E+000	-6.99825E-007	0.00000E+000	-2.67740E-006	0.00000E+000	4.32417E-004	-3.27672E+002	7	...........
	539	540	3.82581E+000	-6.99532E-007	0.00000E+000	-2.67628E-006	0.00000E+000	4.34467E-004	-3.27672E+002	7	...........
	540	541	3.82582E+000	-6.99225E-007	0.00000E+000	-2.67511E-006	0.00000E+000	4.35517E-004	-3.27672E+002	7	...........
	541	542	3.82580E+000	-7.00035E-007	0.00000E+000	-2.67820E-006	0.00000E+000	4.37300E-004	-3.27672E+002	7	...........
	542	543	3.82579E+000	-6.99063E-007	0.00000E+000	-2.67447E-006	0.00000E+000	4.36017E-004	-3.27672E+002	7	...........
	543	544	3.82580E+000	-6.98758E-007	0.00000E+000	-2.67331E-006	0.00000E+000	4.32250E-004	-3.27672E+002	7	...........
	544	545	3.82581E+000	-6.99488E-007	0.00000E+000	-2.67611E-006	0.00000E+000	4.35483E-004	-3.27672E+002	7	...........
	545	546	3.82580E+000	-6.99494E-007	0.00000E+000	-2.67612E-006	0.00000E+000	4.32650E-004	-3.27672E+002	7	...........
	546	547	3.82579E+000	-6.99273E-007	0.00000E+000	-2.67527E-006	0.00000E+000	4.34483E-004	-3.27672E+002	7	...........
	547	548	3.82580E+000	-7.00301E-007	0.00000E+000	-2.67921E-006	0.00000E+000	4.35050E-004	-3.27672E+002	7	...........
	548	549	3.82580E+000	-7.00417E-007	0.00000E+000	-2.67966E-006	0.00000E+000	4.34783E-004	-3.27672E+002	7	...........
	549	550	3.82579E+000	-7.00136E-007	0.00000E+000	-2.67857E-006	0.00000E+000	4.31117E-004	-3.27672E+002	7	...........
	550	551	3.82578E+000	-7.00479E-007	0.00000E+000	-2.67988E-006	0.00000E+000	4.33200E-004	-3.27672E+002	7	...........
	551	552	3.82578E+000	-6.99474E-007	0.00000E+000	-2.67603E-006	0.00000E+000	4.35083E-004	-3.27672E+002	7	...........
	552	553	3.82577E+000	-7.00060E-007	0.00000E+000	-2.67827E-006	0.00000E+000	4.33117E-004	-3.27672E+002	7	...........
	553	554	3.82577E+000	-7.00096E-007	0.00000E+000	-2.67840E-006	0.00000E+000	4.34583E-004	-3.27672E+002	7	...........
	554	555	3.82578E+000	-6.99854E-007	0.00000E+000	-2.67748E-006	0.00000E+000	4.34900E-004	-3.27672E+002	7	...........
	555	556	3.82577E+000	-6.99772E-007	0.00000E+000	-2.67716E-006	0.00000E+000	4.34417E-004	-3.27672E+002	7	...........
	556	557	3.82578E+000	-6.99297E-007	0.00000E+000	-2.67535E-006	0.00000E+000	4.34433E-004	-3.27672E+002	7	...........
	557	558	3.82576E+000	-6.99876E-007	0.00000E+000	-2.67756E-006	0.00000E+000	4.35450E-004	-3.27672E+002	7	...........
	558	559	3.82577E+000	-7.00205E-007	0.00000E+000	-2.67882E-006	0.00000E+000	4.36400E-004	-3.27672E+002	7	...........
	559	560	3.82576E+000	-6.99587E-007	0.00000E+000	-2.67645E-006	0.00000E+000	4.34033E-004	-3.27672E+002	7	...........
	560	561	3.82575E+000	-6.99759E-007	0.00000E+000	-2.67710E-006	0.00000E+000	4.34350E-004	-3.27672E+002	7	...........
	561	562	3.82575E+000	-6.99608E-007	0.00000E+000	-2.67653E-006	0.00000E+000	4.35500E-004	-3.27672E+002	7	...........
	562	563	3.82574E+000	-6.99210E-007	0.00000E+000	-2.67500E-006	0.00000E+000	4.32383E-004	-3.27672E+002	7	...........
	563	564	3.82574E+000	-6.99596E-007	0.00000E+000	-2.67648E-006	0.00000E+000	4.36783E-004	-3.27672E+002	7	...........
	564	565	3.82574E+000	-6.99784E-007	0.00000E+000	-2.67719E-006	0.00000E+000	4.33883E-004	-3.27672E+002	7	...........
	565	566	3.82573E+000	-6.99816E-007	0.00000E+000	-2.67731E-006	0.00000E+000	4.34900E-004	-3.27672E+002	7	...........
	566	567	3.82573E+000	-6.99861E-007	0.00000E+000	-2.67748E-006	0.00000E+000	4.31067E-004	-3.27672E+002	7	...........
	567	568	3.82573E+000	-7.00467E-007	0.00000E+000	-2.67980E-006	0.00000E+000	4.32583E-004	-3.27672E+002	7	...........
	568	569	3.82574E+000	-7.00835E-007	0.00000E+000	-2.68121E-006	0.00000E+000	4.31817E-004	-3.27672E+002	7	...........
	569	570	3.82573E+000	-7.00158E-007	0.00000E+000	-2.67862E-006	0.00000E+000	4.32317E-004	-3.27672E+002	7	...........
	570	571	3.82572E+000	-6.99941E-007	0.00000E+000	-2.67778E-006	0.00000E+000	4.33817E-004	-3.27672E+002	7	...........
	571	572	3.82572E+000	-6.99742E-007	0.00000E+000	-2.67702E-006	0.00000E+000	4.32883E-004	-3.27672E+002	7	...........
	572	573	3.82572E+000	-6.99307E-007	0.00000E+000	-2.67535E-006	0.00000E+000	4.33033E-004	-3.27672E+002	7	...........
	573	574	3.82572E+000	-6.98268E-007	0.00000E+000	-2.67138E-006	0.00000E+000	4.32700E-004	-3.27672E+002	7	...........
	574	575	3.82571E+000	-6.98961E-007	0.00000E+000	-2.67403E-006	0.00000E+000	4.33317E-004	-3.27672E+002	7	...........
	575	576	3.82572E+000	-7.00123E-007	0.00000E+000	-2.67847E-006	0.00000E+000	4.31233E-004	-3.27672E+002	7	...........
	576	577	3.82571E+000	-6.99169E-007	0.00000E+000	-2.67482E-006	0.00000E+000	4.34050E-004	-3.27672E+002	7	...........
	577	578	3.82571E+000	-6.99359E-007	0.00000E+000	-2.67554E-006	0.00000E+000	4.31067E-004	-3.27672E+002	7	...........
	578	579	3.82571E+000	-6.99433E-007	0.00000E+000	-2.67583E-006	0.00000E+000	4.28767E-004	-3.27672E+002	7	...........
	579	580	3.82570E+000	-6.98735E-007	0.00000E+000	-2.67315E-006	0.00000E+000	4.31067E-004	-3.27672E+002	7	...........
	580	581	3.82570E+000	-6.99265E-007	0.00000E+000	-2.67518E-006	0.00000E+000	4.32033E-004	-3.27672E+002	7	...........
	581	582	3.82570E+000	-6.99632E-007	0.00000E+000	-2.67659E-006	0.00000E+000	4.29733E-004	-3.27672E+002	7	...........
	582	583	3.82570E+000	-6.99899E-007	0.00000E+000	-2.67760E-006	0.00000E+000	4.33850E-004	-3.27672E+002	7	...........
	583	584	3.82569E+000	-7.00758E-007	0.00000E+000	-2.68088E-006	0.00000E+000	4.33450E-004	-3.27672E+002	7	...........
	584	585	3.82569E+000	-7.00394E-007	0.00000E+000	-2.67949E-006	0.00000E+000	4.30183E-004	-3.27672E+002	7	...........
	585	586	3.82569E+000	-6.99915E-007	0.00000E+000	-2.67766E-006	0.00000E+000	4.31417E-004	-3.27672E+002	7	...........
	586	587	3.82569E+000	-7.00548E-007	0.00000E+000	-2.68008E-006	0.00000E+000	4.32633E-004	-3.27672E+002	7	...........
	587	588	3.82569E+000	-6.99511E-007	0.00000E+000	-2.67611E-006	0.00000E+000	4.33750E-004	-3.27672E+002	7	...........
	588	589	3.82568E+000	-6.99139E-007	0.00000E+000	-2.67468E-006	0.00000E+000	4.31133E-004	-3.27672E+002	7	...........
	589	590	3.82568E+000	-6.99607E-007	0.00000E+000	-2.67647E-006	0.00000E+000	4.32033E-004	-3.27672E+002	7	...........
	590	591	3.82568E+000	-7.00491E-007	0.00000E+000	-2.67985E-006	0.00000E+000	4.35050E-004	-3.27672E+002	7	...........
	591	592	3.82567E+000	-6.98206E-007	0.00000E+000	-2.67111E-006	0.00000E+000	4.30700E-004	-3.27672E+002	7	...........
	592	593	3.82567E+000	-6.98772E-007	0.00000E+000	-2.67327E-006	0.00000E+000	4.30650E-004	-3.27672E+002	7	...........
	593	594	3.82566E+000	-7.00423E-007	0.00000E+000	-2.67958E-006	0.00000E+000	4.31350E-004	-3.27672E+002	7	...........
	594	595	3.82567E+000	-6.99674E-007	0.00000E+000	-2.67672E-006	0.00000E+000	4.29767E-004	-3.27672E+002	7	...........
	595	596	3.82566E+000	-6.99876E-007	0.00000E+000	-2.67748E-006	0.00000E+000	4.32100E-004	-3.27672E+002	7	...........
	596	597	3.82565E+000	-7.00206E-007	0.00000E+000	-2.67874E-006	0.00000E+000	4.30600E-004	-3.27672E+002	7	...........
	597	598	3.82566E+000	-6.99460E-007	0.00000E+000	-2.67590E-006	0.00000E+000	4.30767E-004	-3.27672E+002	7	...........
	598	599	3.82565E+000	-6.99166E-007	0.00000E+000	-2.67477E-006	0.00000E+000	4.30567E-004	-3.27672E+002	7	...........
	599	600	3.82565E+000	-6.99523E-007	0.00000E+000	-2.67613E-006	0.00000E+000	4.30817E-004	-3.27672E+002	7	...........
