EXPLAIN
TAG	PWR800_READVOLTAGE
TITLE	LABEL	PWR Read Voltage	Test Identifier
DATE	LABEL	7.2.2024	Date
TIME	LABEL	20:54:49	Time
NOTES	NOTES	1	Notes...
	
PSTAT	PSTAT	REF600-12055	Potentiostat
CAPACITY	QUANT	1.00000E+000	Capacity (A-hr)
CELLTYPE	SELECTOR	1	Cell Type
WORKINGCONNECTION	SELECTOR	0	Working Connection
MAXTIME	VARIABLEANDUNITS	6.00000E+002	s	6.00000E+002	second(s)	Max Time
SAMPLETIME	QUANT	1.00000E+000	Sample Period (s)
STOPAT1	MULTIPARAM	0	0.00000E+000	Stop At 1	None	N/A
STOPAT2	MULTIPARAM	0	0.00000E+000	Stop At 2	None	N/A
AESBHCSELECTOR	TOGGLE	F	Save Both Half Cells
EOC	QUANT	3.63491	Open Circuit (V)
SEQUENCER	TOGGLE	TRUE	Run as Sequence
PSTATMODEL	IQUANT	4	Pstat Model
PSTATSECTION	LABEL	REF600-12055	Pstat Section
PSTATSERIALNO	LABEL	12055	Pstat Serial Number
CTRLMODE	IQUANT	0	Control Mode
ELECTROMETER	IQUANT	0	RE=0 or CS=1
IESTAB	IQUANT	0	I/E Stability
CASPEED	IQUANT	4	Control Amp Speed
CONVENTION	IQUANT	1	Current Convention
ICHRANGE	IQUANT	2	Ich Range
ICHRANGEMODE	TOGGLE	T	Ich Auto Range
ICHOFFSETENABLE	TOGGLE	F	Ich Offset Enable
ICHOFFSET	QUANT	0	Ich Offset (V)
ICHFILTER	IQUANT	1	Ich Filter
VCHRANGE	IQUANT	3	Vch Range
VCHRANGEMODE	TOGGLE	T	Vch Auto Range
VCHOFFSETENABLE	TOGGLE	F	Vch Offset Enable
VCHOFFSET	QUANT	0	Vch Offset (V)
VCHFILTER	IQUANT	1	Vch Filter
ACHRANGE	IQUANT	2	Ach Range
ACHOFFSETENABLE	TOGGLE	F	Ach Offset Enable
ACHOFFSET	QUANT	0	Ach Offset (V)
ACHFILTER	IQUANT	1	Ach Filter
IERANGELOWERLIMIT	IQUANT	7	I/E Range Lower Limit
IERANGEMODE	TOGGLE	F	I/E AutoRange
IERANGE	IQUANT	11	I/E Range
POSFEEDENABLE	TOGGLE	F	Positive Feedback IR Comp
POSFEEDRESISTANCE	QUANT	0	Positive Feedback Resistance (ohm)
ACHSELECT	IQUANT	4	Ach Select
SENSECABLEID	IQUANT	14	Sense Cable ID
PWRCABLEID	IQUANT	14	Power Cable ID
DCCALDATE	LABEL		DC Calibration Date
ACCALDATE	LABEL		AC Calibration Date
THERMOSELECT	IQUANT	1	Thermo Select
FRAMEWORKVERSION	LABEL	7.10.3	Framework Version
INSTRUMENTVERSION	LABEL	4.91	Instrument Version
COMMVERSION	LABEL	2.24	Communications Version
CPUPLDVERSION	LABEL	0.00	CPU PLD Version
CTRLPLDVERSION	LABEL	0.00	CTRL PLD Version
PSTATPLDVERSION	LABEL	0.00	PSTAT PLD Version
CURVE	TABLE	600
	Pt	T	Vf	Im	Vu	Pwr	Sig	Ach	Temp	IERange	Over
	#	s	V	A	V	W	V	V	deg C	#	bits
	0	1	3.72991E+000	-1.25724E-006	0.00000E+000	-4.68940E-006	0.00000E+000	7.35483E-004	-3.27672E+002	7	...........
	1	2	3.72962E+000	-1.25629E-006	0.00000E+000	-4.68547E-006	0.00000E+000	7.34950E-004	-3.27672E+002	7	...........
	2	3	3.72940E+000	-1.25623E-006	0.00000E+000	-4.68497E-006	0.00000E+000	7.31200E-004	-3.27672E+002	7	...........
	3	4	3.72922E+000	-1.25573E-006	0.00000E+000	-4.68290E-006	0.00000E+000	7.33700E-004	-3.27672E+002	7	...........
	4	5	3.72905E+000	-1.25594E-006	0.00000E+000	-4.68347E-006	0.00000E+000	7.37883E-004	-3.27672E+002	7	...........
	5	6	3.72889E+000	-1.25650E-006	0.00000E+000	-4.68534E-006	0.00000E+000	7.40333E-004	-3.27672E+002	7	...........
	6	7	3.72875E+000	-1.25552E-006	0.00000E+000	-4.68150E-006	0.00000E+000	7.40833E-004	-3.27672E+002	7	...........
	7	8	3.72861E+000	-1.25455E-006	0.00000E+000	-4.67775E-006	0.00000E+000	7.44317E-004	-3.27672E+002	7	...........
	8	9	3.72848E+000	-1.25548E-006	0.00000E+000	-4.68103E-006	0.00000E+000	7.42617E-004	-3.27672E+002	7	...........
	9	10	3.72836E+000	-1.25563E-006	0.00000E+000	-4.68144E-006	0.00000E+000	7.43450E-004	-3.27672E+002	7	...........
	10	11	3.72825E+000	-1.25611E-006	0.00000E+000	-4.68310E-006	0.00000E+000	7.46067E-004	-3.27672E+002	7	...........
	11	12	3.72815E+000	-1.25513E-006	0.00000E+000	-4.67930E-006	0.00000E+000	7.45083E-004	-3.27672E+002	7	...........
	12	13	3.72805E+000	-1.25556E-006	0.00000E+000	-4.68078E-006	0.00000E+000	7.42917E-004	-3.27672E+002	7	...........
	13	14	3.72796E+000	-1.25550E-006	0.00000E+000	-4.68044E-006	0.00000E+000	7.42050E-004	-3.27672E+002	7	...........
	14	15	3.72786E+000	-1.25474E-006	0.00000E+000	-4.67751E-006	0.00000E+000	7.41817E-004	-3.27672E+002	7	...........
	15	16	3.72777E+000	-1.25476E-006	0.00000E+000	-4.67744E-006	0.00000E+000	7.37033E-004	-3.27672E+002	7	...........
	16	17	3.72768E+000	-1.25523E-006	0.00000E+000	-4.67910E-006	0.00000E+000	7.37917E-004	-3.27672E+002	7	...........
	17	18	3.72759E+000	-1.25512E-006	0.00000E+000	-4.67858E-006	0.00000E+000	7.39833E-004	-3.27672E+002	7	...........
	18	19	3.72750E+000	-1.25475E-006	0.00000E+000	-4.67710E-006	0.00000E+000	7.40900E-004	-3.27672E+002	7	...........
	19	20	3.72741E+000	-1.25613E-006	0.00000E+000	-4.68212E-006	0.00000E+000	7.39150E-004	-3.27672E+002	7	...........
	20	21	3.72733E+000	-1.25584E-006	0.00000E+000	-4.68092E-006	0.00000E+000	5.41950E-004	-3.27672E+002	7	...........
	21	22	3.72724E+000	-1.25509E-006	0.00000E+000	-4.67803E-006	0.00000E+000	4.51267E-004	-3.27672E+002	7	...........
	22	23	3.72717E+000	-1.25494E-006	0.00000E+000	-4.67738E-006	0.00000E+000	4.53633E-004	-3.27672E+002	7	...........
	23	24	3.72709E+000	-1.25487E-006	0.00000E+000	-4.67700E-006	0.00000E+000	4.55667E-004	-3.27672E+002	7	...........
	24	25	3.72701E+000	-1.25416E-006	0.00000E+000	-4.67427E-006	0.00000E+000	4.55883E-004	-3.27672E+002	7	...........
	25	26	3.72694E+000	-1.25394E-006	0.00000E+000	-4.67337E-006	0.00000E+000	4.56983E-004	-3.27672E+002	7	...........
	26	27	3.72686E+000	-1.25397E-006	0.00000E+000	-4.67337E-006	0.00000E+000	4.55367E-004	-3.27672E+002	7	...........
	27	28	3.72680E+000	-1.25455E-006	0.00000E+000	-4.67545E-006	0.00000E+000	4.60000E-004	-3.27672E+002	7	...........
	28	29	3.72674E+000	-1.25437E-006	0.00000E+000	-4.67470E-006	0.00000E+000	4.55467E-004	-3.27672E+002	7	...........
	29	30	3.72667E+000	-1.25433E-006	0.00000E+000	-4.67446E-006	0.00000E+000	4.56950E-004	-3.27672E+002	7	...........
	30	31	3.72659E+000	-1.25450E-006	0.00000E+000	-4.67501E-006	0.00000E+000	4.57867E-004	-3.27672E+002	7	...........
	31	32	3.72653E+000	-1.25347E-006	0.00000E+000	-4.67108E-006	0.00000E+000	4.59267E-004	-3.27672E+002	7	...........
	32	33	3.72648E+000	-1.25371E-006	0.00000E+000	-4.67193E-006	0.00000E+000	4.60117E-004	-3.27672E+002	7	...........
	33	34	3.72640E+000	-1.25370E-006	0.00000E+000	-4.67178E-006	0.00000E+000	4.58550E-004	-3.27672E+002	7	...........
	34	35	3.72634E+000	-1.25304E-006	0.00000E+000	-4.66925E-006	0.00000E+000	4.61267E-004	-3.27672E+002	7	...........
	35	36	3.72628E+000	-1.25431E-006	0.00000E+000	-4.67391E-006	0.00000E+000	4.63500E-004	-3.27672E+002	7	...........
	36	37	3.72622E+000	-1.25342E-006	0.00000E+000	-4.67052E-006	0.00000E+000	4.63033E-004	-3.27672E+002	7	...........
	37	38	3.72616E+000	-1.25424E-006	0.00000E+000	-4.67349E-006	0.00000E+000	4.62100E-004	-3.27672E+002	7	...........
	38	39	3.72609E+000	-1.25435E-006	0.00000E+000	-4.67382E-006	0.00000E+000	4.63700E-004	-3.27672E+002	7	...........
	39	40	3.72604E+000	-1.25450E-006	0.00000E+000	-4.67431E-006	0.00000E+000	4.64767E-004	-3.27672E+002	7	...........
	40	41	3.72598E+000	-1.25393E-006	0.00000E+000	-4.67213E-006	0.00000E+000	4.66933E-004	-3.27672E+002	7	...........
	41	42	3.72592E+000	-1.25381E-006	0.00000E+000	-4.67160E-006	0.00000E+000	4.63500E-004	-3.27672E+002	7	...........
	42	43	3.72586E+000	-1.25368E-006	0.00000E+000	-4.67103E-006	0.00000E+000	4.64050E-004	-3.27672E+002	7	...........
	43	44	3.72580E+000	-1.25257E-006	0.00000E+000	-4.66681E-006	0.00000E+000	4.67567E-004	-3.27672E+002	7	...........
	44	45	3.72574E+000	-1.25236E-006	0.00000E+000	-4.66598E-006	0.00000E+000	4.66083E-004	-3.27672E+002	7	...........
	45	46	3.72567E+000	-1.25301E-006	0.00000E+000	-4.66832E-006	0.00000E+000	4.66817E-004	-3.27672E+002	7	...........
	46	47	3.72563E+000	-1.25312E-006	0.00000E+000	-4.66866E-006	0.00000E+000	4.67200E-004	-3.27672E+002	7	...........
	47	48	3.72556E+000	-1.25321E-006	0.00000E+000	-4.66889E-006	0.00000E+000	4.65700E-004	-3.27672E+002	7	...........
	48	49	3.72550E+000	-1.25256E-006	0.00000E+000	-4.66640E-006	0.00000E+000	4.67433E-004	-3.27672E+002	7	...........
	49	50	3.72543E+000	-1.25210E-006	0.00000E+000	-4.66461E-006	0.00000E+000	4.64783E-004	-3.27672E+002	7	...........
	50	51	3.72538E+000	-1.25275E-006	0.00000E+000	-4.66699E-006	0.00000E+000	4.68833E-004	-3.27672E+002	7	...........
	51	52	3.72533E+000	-1.25204E-006	0.00000E+000	-4.66425E-006	0.00000E+000	4.69367E-004	-3.27672E+002	7	...........
	52	53	3.72527E+000	-1.25310E-006	0.00000E+000	-4.66813E-006	0.00000E+000	4.66883E-004	-3.27672E+002	7	...........
	53	54	3.72520E+000	-1.25258E-006	0.00000E+000	-4.66613E-006	0.00000E+000	4.64433E-004	-3.27672E+002	7	...........
	54	55	3.72515E+000	-1.25275E-006	0.00000E+000	-4.66667E-006	0.00000E+000	4.64833E-004	-3.27672E+002	7	...........
	55	56	3.72510E+000	-1.25242E-006	0.00000E+000	-4.66537E-006	0.00000E+000	4.62250E-004	-3.27672E+002	7	...........
	56	57	3.72505E+000	-1.25283E-006	0.00000E+000	-4.66687E-006	0.00000E+000	4.60950E-004	-3.27672E+002	7	...........
	57	58	3.72500E+000	-1.25279E-006	0.00000E+000	-4.66665E-006	0.00000E+000	4.59400E-004	-3.27672E+002	7	...........
	58	59	3.72496E+000	-1.25182E-006	0.00000E+000	-4.66298E-006	0.00000E+000	4.54750E-004	-3.27672E+002	7	...........
	59	60	3.72491E+000	-1.25172E-006	0.00000E+000	-4.66253E-006	0.00000E+000	4.57383E-004	-3.27672E+002	7	...........
	60	61	3.72486E+000	-1.25186E-006	0.00000E+000	-4.66301E-006	0.00000E+000	4.55433E-004	-3.27672E+002	7	...........
	61	62	3.72483E+000	-1.25081E-006	0.00000E+000	-4.65905E-006	0.00000E+000	4.50550E-004	-3.27672E+002	7	...........
	62	63	3.72479E+000	-1.25043E-006	0.00000E+000	-4.65757E-006	0.00000E+000	4.54333E-004	-3.27672E+002	7	...........
	63	64	3.72475E+000	-1.25124E-006	0.00000E+000	-4.66054E-006	0.00000E+000	4.54333E-004	-3.27672E+002	7	...........
	64	65	3.72472E+000	-1.25182E-006	0.00000E+000	-4.66269E-006	0.00000E+000	4.51817E-004	-3.27672E+002	7	...........
	65	66	3.72468E+000	-1.25115E-006	0.00000E+000	-4.66014E-006	0.00000E+000	4.50200E-004	-3.27672E+002	7	...........
	66	67	3.72465E+000	-1.25109E-006	0.00000E+000	-4.65988E-006	0.00000E+000	4.48183E-004	-3.27672E+002	7	...........
	67	68	3.72462E+000	-1.25099E-006	0.00000E+000	-4.65948E-006	0.00000E+000	4.46617E-004	-3.27672E+002	7	...........
	68	69	3.72458E+000	-1.25075E-006	0.00000E+000	-4.65853E-006	0.00000E+000	4.48183E-004	-3.27672E+002	7	...........
	69	70	3.72455E+000	-1.25111E-006	0.00000E+000	-4.65981E-006	0.00000E+000	4.47700E-004	-3.27672E+002	7	...........
	70	71	3.72451E+000	-1.25141E-006	0.00000E+000	-4.66088E-006	0.00000E+000	4.48933E-004	-3.27672E+002	7	...........
	71	72	3.72449E+000	-1.25153E-006	0.00000E+000	-4.66129E-006	0.00000E+000	4.45933E-004	-3.27672E+002	7	...........
	72	73	3.72446E+000	-1.25128E-006	0.00000E+000	-4.66033E-006	0.00000E+000	4.48567E-004	-3.27672E+002	7	...........
	73	74	3.72443E+000	-1.25135E-006	0.00000E+000	-4.66058E-006	0.00000E+000	4.46150E-004	-3.27672E+002	7	...........
	74	75	3.72440E+000	-1.25113E-006	0.00000E+000	-4.65971E-006	0.00000E+000	4.47283E-004	-3.27672E+002	7	...........
	75	76	3.72437E+000	-1.25133E-006	0.00000E+000	-4.66042E-006	0.00000E+000	4.46517E-004	-3.27672E+002	7	...........
	76	77	3.72434E+000	-1.25182E-006	0.00000E+000	-4.66221E-006	0.00000E+000	4.47817E-004	-3.27672E+002	7	...........
	77	78	3.72431E+000	-1.25077E-006	0.00000E+000	-4.65825E-006	0.00000E+000	4.45183E-004	-3.27672E+002	7	...........
	78	79	3.72427E+000	-1.25030E-006	0.00000E+000	-4.65646E-006	0.00000E+000	4.46467E-004	-3.27672E+002	7	...........
	79	80	3.72424E+000	-1.24932E-006	0.00000E+000	-4.65277E-006	0.00000E+000	4.47233E-004	-3.27672E+002	7	...........
	80	81	3.72421E+000	-1.25041E-006	0.00000E+000	-4.65678E-006	0.00000E+000	4.49100E-004	-3.27672E+002	7	...........
	81	82	3.72418E+000	-1.25038E-006	0.00000E+000	-4.65663E-006	0.00000E+000	4.49883E-004	-3.27672E+002	7	...........
	82	83	3.72414E+000	-1.25086E-006	0.00000E+000	-4.65838E-006	0.00000E+000	4.47950E-004	-3.27672E+002	7	...........
	83	84	3.72412E+000	-1.25044E-006	0.00000E+000	-4.65679E-006	0.00000E+000	4.46933E-004	-3.27672E+002	7	...........
	84	85	3.72409E+000	-1.25031E-006	0.00000E+000	-4.65626E-006	0.00000E+000	4.47633E-004	-3.27672E+002	7	...........
	85	86	3.72406E+000	-1.25080E-006	0.00000E+000	-4.65804E-006	0.00000E+000	4.48150E-004	-3.27672E+002	7	...........
	86	87	3.72402E+000	-1.25014E-006	0.00000E+000	-4.65554E-006	0.00000E+000	4.48533E-004	-3.27672E+002	7	...........
	87	88	3.72400E+000	-1.25062E-006	0.00000E+000	-4.65732E-006	0.00000E+000	4.51817E-004	-3.27672E+002	7	...........
	88	89	3.72397E+000	-1.25056E-006	0.00000E+000	-4.65706E-006	0.00000E+000	4.50517E-004	-3.27672E+002	7	...........
	89	90	3.72393E+000	-1.25061E-006	0.00000E+000	-4.65720E-006	0.00000E+000	4.51867E-004	-3.27672E+002	7	...........
	90	91	3.72391E+000	-1.25030E-006	0.00000E+000	-4.65599E-006	0.00000E+000	4.50083E-004	-3.27672E+002	7	...........
	91	92	3.72387E+000	-1.25010E-006	0.00000E+000	-4.65521E-006	0.00000E+000	4.51750E-004	-3.27672E+002	7	...........
	92	93	3.72384E+000	-1.25014E-006	0.00000E+000	-4.65533E-006	0.00000E+000	4.52550E-004	-3.27672E+002	7	...........
	93	94	3.72381E+000	-1.24980E-006	0.00000E+000	-4.65401E-006	0.00000E+000	4.50783E-004	-3.27672E+002	7	...........
	94	95	3.72378E+000	-1.25025E-006	0.00000E+000	-4.65564E-006	0.00000E+000	4.49750E-004	-3.27672E+002	7	...........
	95	96	3.72375E+000	-1.24989E-006	0.00000E+000	-4.65427E-006	0.00000E+000	4.53083E-004	-3.27672E+002	7	...........
	96	97	3.72373E+000	-1.24997E-006	0.00000E+000	-4.65455E-006	0.00000E+000	4.53450E-004	-3.27672E+002	7	...........
	97	98	3.72369E+000	-1.24920E-006	0.00000E+000	-4.65163E-006	0.00000E+000	4.49217E-004	-3.27672E+002	7	...........
	98	99	3.72367E+000	-1.24941E-006	0.00000E+000	-4.65241E-006	0.00000E+000	4.50933E-004	-3.27672E+002	7	...........
	99	100	3.72364E+000	-1.25005E-006	0.00000E+000	-4.65474E-006	0.00000E+000	4.52117E-004	-3.27672E+002	7	...........
	100	101	3.72362E+000	-1.25012E-006	0.00000E+000	-4.65496E-006	0.00000E+000	4.50783E-004	-3.27672E+002	7	...........
	101	102	3.72359E+000	-1.24994E-006	0.00000E+000	-4.65425E-006	0.00000E+000	4.46817E-004	-3.27672E+002	7	...........
	102	103	3.72356E+000	-1.24945E-006	0.00000E+000	-4.65239E-006	0.00000E+000	4.49017E-004	-3.27672E+002	7	...........
	103	104	3.72355E+000	-1.24882E-006	0.00000E+000	-4.65006E-006	0.00000E+000	4.50417E-004	-3.27672E+002	7	...........
	104	105	3.72352E+000	-1.24815E-006	0.00000E+000	-4.64751E-006	0.00000E+000	4.50767E-004	-3.27672E+002	7	...........
	105	106	3.72349E+000	-1.24914E-006	0.00000E+000	-4.65117E-006	0.00000E+000	4.49733E-004	-3.27672E+002	7	...........
	106	107	3.72347E+000	-1.24854E-006	0.00000E+000	-4.64890E-006	0.00000E+000	4.52000E-004	-3.27672E+002	7	...........
	107	108	3.72344E+000	-1.24921E-006	0.00000E+000	-4.65136E-006	0.00000E+000	4.47733E-004	-3.27672E+002	7	...........
	108	109	3.72341E+000	-1.24879E-006	0.00000E+000	-4.64975E-006	0.00000E+000	4.51550E-004	-3.27672E+002	7	...........
	109	110	3.72339E+000	-1.24924E-006	0.00000E+000	-4.65140E-006	0.00000E+000	4.51233E-004	-3.27672E+002	7	...........
	110	111	3.72337E+000	-1.24915E-006	0.00000E+000	-4.65107E-006	0.00000E+000	4.51733E-004	-3.27672E+002	7	...........
	111	112	3.72335E+000	-1.24917E-006	0.00000E+000	-4.65109E-006	0.00000E+000	4.47150E-004	-3.27672E+002	7	...........
	112	113	3.72332E+000	-1.24963E-006	0.00000E+000	-4.65279E-006	0.00000E+000	4.49800E-004	-3.27672E+002	7	...........
	113	114	3.72330E+000	-1.24888E-006	0.00000E+000	-4.64996E-006	0.00000E+000	4.49167E-004	-3.27672E+002	7	...........
	114	115	3.72327E+000	-1.24860E-006	0.00000E+000	-4.64889E-006	0.00000E+000	4.50717E-004	-3.27672E+002	7	...........
	115	116	3.72326E+000	-1.24796E-006	0.00000E+000	-4.64647E-006	0.00000E+000	4.51033E-004	-3.27672E+002	7	...........
	116	117	3.72323E+000	-1.24832E-006	0.00000E+000	-4.64778E-006	0.00000E+000	4.48950E-004	-3.27672E+002	7	...........
	117	118	3.72321E+000	-1.24894E-006	0.00000E+000	-4.65005E-006	0.00000E+000	4.48800E-004	-3.27672E+002	7	...........
	118	119	3.72318E+000	-1.24869E-006	0.00000E+000	-4.64911E-006	0.00000E+000	4.47367E-004	-3.27672E+002	7	...........
	119	120	3.72316E+000	-1.24787E-006	0.00000E+000	-4.64603E-006	0.00000E+000	4.47567E-004	-3.27672E+002	7	...........
	120	121	3.72314E+000	-1.24845E-006	0.00000E+000	-4.64815E-006	0.00000E+000	4.45833E-004	-3.27672E+002	7	...........
	121	122	3.72312E+000	-1.24795E-006	0.00000E+000	-4.64627E-006	0.00000E+000	4.45717E-004	-3.27672E+002	7	...........
	122	123	3.72309E+000	-1.24737E-006	0.00000E+000	-4.64408E-006	0.00000E+000	4.48700E-004	-3.27672E+002	7	...........
	123	124	3.72308E+000	-1.24768E-006	0.00000E+000	-4.64520E-006	0.00000E+000	4.47600E-004	-3.27672E+002	7	...........
	124	125	3.72305E+000	-1.24833E-006	0.00000E+000	-4.64758E-006	0.00000E+000	4.45367E-004	-3.27672E+002	7	...........
	125	126	3.72303E+000	-1.24845E-006	0.00000E+000	-4.64801E-006	0.00000E+000	4.44067E-004	-3.27672E+002	7	...........
	126	127	3.72302E+000	-1.24911E-006	0.00000E+000	-4.65046E-006	0.00000E+000	4.46067E-004	-3.27672E+002	7	...........
	127	128	3.72299E+000	-1.24872E-006	0.00000E+000	-4.64899E-006	0.00000E+000	4.48817E-004	-3.27672E+002	7	...........
	128	129	3.72297E+000	-1.24840E-006	0.00000E+000	-4.64774E-006	0.00000E+000	4.45300E-004	-3.27672E+002	7	...........
	129	130	3.72294E+000	-1.24835E-006	0.00000E+000	-4.64752E-006	0.00000E+000	4.46300E-004	-3.27672E+002	7	...........
	130	131	3.72292E+000	-1.24895E-006	0.00000E+000	-4.64974E-006	0.00000E+000	4.46050E-004	-3.27672E+002	7	...........
	131	132	3.72290E+000	-1.24807E-006	0.00000E+000	-4.64643E-006	0.00000E+000	4.45050E-004	-3.27672E+002	7	...........
	132	133	3.72288E+000	-1.24785E-006	0.00000E+000	-4.64561E-006	0.00000E+000	4.43850E-004	-3.27672E+002	7	...........
	133	134	3.72286E+000	-1.24719E-006	0.00000E+000	-4.64310E-006	0.00000E+000	4.44483E-004	-3.27672E+002	7	...........
	134	135	3.72283E+000	-1.24723E-006	0.00000E+000	-4.64323E-006	0.00000E+000	4.43850E-004	-3.27672E+002	7	...........
	135	136	3.72281E+000	-1.24755E-006	0.00000E+000	-4.64439E-006	0.00000E+000	4.48133E-004	-3.27672E+002	7	...........
	136	137	3.72279E+000	-1.24826E-006	0.00000E+000	-4.64701E-006	0.00000E+000	4.43417E-004	-3.27672E+002	7	...........
	137	138	3.72276E+000	-1.24784E-006	0.00000E+000	-4.64542E-006	0.00000E+000	4.43867E-004	-3.27672E+002	7	...........
	138	139	3.72275E+000	-1.24770E-006	0.00000E+000	-4.64489E-006	0.00000E+000	4.44467E-004	-3.27672E+002	7	...........
	139	140	3.72274E+000	-1.24780E-006	0.00000E+000	-4.64522E-006	0.00000E+000	4.45783E-004	-3.27672E+002	7	...........
	140	141	3.72271E+000	-1.24695E-006	0.00000E+000	-4.64204E-006	0.00000E+000	4.47417E-004	-3.27672E+002	7	...........
	141	142	3.72269E+000	-1.24705E-006	0.00000E+000	-4.64239E-006	0.00000E+000	4.44500E-004	-3.27672E+002	7	...........
	142	143	3.72267E+000	-1.24773E-006	0.00000E+000	-4.64489E-006	0.00000E+000	4.45967E-004	-3.27672E+002	7	...........
	143	144	3.72266E+000	-1.24720E-006	0.00000E+000	-4.64290E-006	0.00000E+000	4.47467E-004	-3.27672E+002	7	...........
	144	145	3.72264E+000	-1.24756E-006	0.00000E+000	-4.64423E-006	0.00000E+000	4.50050E-004	-3.27672E+002	7	...........
	145	146	3.72262E+000	-1.24773E-006	0.00000E+000	-4.64484E-006	0.00000E+000	4.48217E-004	-3.27672E+002	7	...........
	146	147	3.72260E+000	-1.24752E-006	0.00000E+000	-4.64403E-006	0.00000E+000	4.45767E-004	-3.27672E+002	7	...........
	147	148	3.72257E+000	-1.24821E-006	0.00000E+000	-4.64654E-006	0.00000E+000	4.48117E-004	-3.27672E+002	7	...........
	148	149	3.72255E+000	-1.24790E-006	0.00000E+000	-4.64537E-006	0.00000E+000	4.48283E-004	-3.27672E+002	7	...........
	149	150	3.72254E+000	-1.24770E-006	0.00000E+000	-4.64459E-006	0.00000E+000	4.48933E-004	-3.27672E+002	7	...........
	150	151	3.72251E+000	-1.24723E-006	0.00000E+000	-4.64284E-006	0.00000E+000	4.49850E-004	-3.27672E+002	7	...........
	151	152	3.72249E+000	-1.24669E-006	0.00000E+000	-4.64078E-006	0.00000E+000	4.48067E-004	-3.27672E+002	7	...........
	152	153	3.72247E+000	-1.24743E-006	0.00000E+000	-4.64352E-006	0.00000E+000	4.49067E-004	-3.27672E+002	7	...........
	153	154	3.72247E+000	-1.24729E-006	0.00000E+000	-4.64300E-006	0.00000E+000	4.48117E-004	-3.27672E+002	7	...........
	154	155	3.72244E+000	-1.24781E-006	0.00000E+000	-4.64491E-006	0.00000E+000	4.49517E-004	-3.27672E+002	7	...........
	155	156	3.72242E+000	-1.24731E-006	0.00000E+000	-4.64301E-006	0.00000E+000	4.48267E-004	-3.27672E+002	7	...........
	156	157	3.72240E+000	-1.24791E-006	0.00000E+000	-4.64521E-006	0.00000E+000	4.51450E-004	-3.27672E+002	7	...........
	157	158	3.72238E+000	-1.24716E-006	0.00000E+000	-4.64241E-006	0.00000E+000	4.52017E-004	-3.27672E+002	7	...........
	158	159	3.72237E+000	-1.24658E-006	0.00000E+000	-4.64022E-006	0.00000E+000	4.54317E-004	-3.27672E+002	7	...........
	159	160	3.72235E+000	-1.24708E-006	0.00000E+000	-4.64207E-006	0.00000E+000	4.52717E-004	-3.27672E+002	7	...........
	160	161	3.72233E+000	-1.24643E-006	0.00000E+000	-4.63963E-006	0.00000E+000	4.54417E-004	-3.27672E+002	7	...........
	161	162	3.72231E+000	-1.24689E-006	0.00000E+000	-4.64130E-006	0.00000E+000	4.54233E-004	-3.27672E+002	7	...........
	162	163	3.72229E+000	-1.24771E-006	0.00000E+000	-4.64434E-006	0.00000E+000	4.55283E-004	-3.27672E+002	7	...........
	163	164	3.72228E+000	-1.24696E-006	0.00000E+000	-4.64154E-006	0.00000E+000	4.53383E-004	-3.27672E+002	7	...........
	164	165	3.72226E+000	-1.24723E-006	0.00000E+000	-4.64251E-006	0.00000E+000	4.51933E-004	-3.27672E+002	7	...........
	165	166	3.72225E+000	-1.24723E-006	0.00000E+000	-4.64249E-006	0.00000E+000	4.53450E-004	-3.27672E+002	7	...........
	166	167	3.72221E+000	-1.24779E-006	0.00000E+000	-4.64455E-006	0.00000E+000	4.53417E-004	-3.27672E+002	7	...........
	167	168	3.72220E+000	-1.24716E-006	0.00000E+000	-4.64220E-006	0.00000E+000	4.51950E-004	-3.27672E+002	7	...........
	168	169	3.72219E+000	-1.24687E-006	0.00000E+000	-4.64109E-006	0.00000E+000	4.52800E-004	-3.27672E+002	7	...........
	169	170	3.72217E+000	-1.24625E-006	0.00000E+000	-4.63876E-006	0.00000E+000	4.54033E-004	-3.27672E+002	7	...........
	170	171	3.72215E+000	-1.24569E-006	0.00000E+000	-4.63667E-006	0.00000E+000	4.52033E-004	-3.27672E+002	7	...........
	171	172	3.72214E+000	-1.24686E-006	0.00000E+000	-4.64099E-006	0.00000E+000	4.57317E-004	-3.27672E+002	7	...........
	172	173	3.72213E+000	-1.24674E-006	0.00000E+000	-4.64053E-006	0.00000E+000	4.55967E-004	-3.27672E+002	7	...........
	173	174	3.72211E+000	-1.24673E-006	0.00000E+000	-4.64045E-006	0.00000E+000	4.53900E-004	-3.27672E+002	7	...........
	174	175	3.72209E+000	-1.24660E-006	0.00000E+000	-4.63997E-006	0.00000E+000	4.53400E-004	-3.27672E+002	7	...........
	175	176	3.72209E+000	-1.24682E-006	0.00000E+000	-4.64078E-006	0.00000E+000	4.53217E-004	-3.27672E+002	7	...........
	176	177	3.72207E+000	-1.24560E-006	0.00000E+000	-4.63619E-006	0.00000E+000	4.54367E-004	-3.27672E+002	7	...........
	177	178	3.72205E+000	-1.24607E-006	0.00000E+000	-4.63794E-006	0.00000E+000	4.54533E-004	-3.27672E+002	7	...........
	178	179	3.72204E+000	-1.24584E-006	0.00000E+000	-4.63705E-006	0.00000E+000	4.54150E-004	-3.27672E+002	7	...........
	179	180	3.72203E+000	-1.24632E-006	0.00000E+000	-4.63884E-006	0.00000E+000	4.55983E-004	-3.27672E+002	7	...........
	180	181	3.72201E+000	-1.24641E-006	0.00000E+000	-4.63916E-006	0.00000E+000	4.54050E-004	-3.27672E+002	7	...........
	181	182	3.72199E+000	-1.24636E-006	0.00000E+000	-4.63895E-006	0.00000E+000	4.56100E-004	-3.27672E+002	7	...........
	182	183	3.72198E+000	-1.24590E-006	0.00000E+000	-4.63723E-006	0.00000E+000	4.52850E-004	-3.27672E+002	7	...........
	183	184	3.72196E+000	-1.24640E-006	0.00000E+000	-4.63904E-006	0.00000E+000	4.53283E-004	-3.27672E+002	7	...........
	184	185	3.72195E+000	-1.24605E-006	0.00000E+000	-4.63773E-006	0.00000E+000	4.52133E-004	-3.27672E+002	7	...........
	185	186	3.72194E+000	-1.24623E-006	0.00000E+000	-4.63838E-006	0.00000E+000	4.53200E-004	-3.27672E+002	7	...........
	186	187	3.72192E+000	-1.24556E-006	0.00000E+000	-4.63587E-006	0.00000E+000	4.52900E-004	-3.27672E+002	7	...........
	187	188	3.72191E+000	-1.24477E-006	0.00000E+000	-4.63291E-006	0.00000E+000	4.54183E-004	-3.27672E+002	7	...........
	188	189	3.72189E+000	-1.24488E-006	0.00000E+000	-4.63333E-006	0.00000E+000	4.54200E-004	-3.27672E+002	7	...........
	189	190	3.72188E+000	-1.24565E-006	0.00000E+000	-4.63615E-006	0.00000E+000	4.51767E-004	-3.27672E+002	7	...........
	190	191	3.72187E+000	-1.24608E-006	0.00000E+000	-4.63775E-006	0.00000E+000	4.50967E-004	-3.27672E+002	7	...........
	191	192	3.72185E+000	-1.24592E-006	0.00000E+000	-4.63714E-006	0.00000E+000	4.52800E-004	-3.27672E+002	7	...........
	192	193	3.72183E+000	-1.24588E-006	0.00000E+000	-4.63696E-006	0.00000E+000	4.49883E-004	-3.27672E+002	7	...........
	193	194	3.72182E+000	-1.24562E-006	0.00000E+000	-4.63596E-006	0.00000E+000	4.48183E-004	-3.27672E+002	7	...........
	194	195	3.72181E+000	-1.24591E-006	0.00000E+000	-4.63704E-006	0.00000E+000	4.53467E-004	-3.27672E+002	7	...........
	195	196	3.72179E+000	-1.24570E-006	0.00000E+000	-4.63622E-006	0.00000E+000	4.48933E-004	-3.27672E+002	7	...........
	196	197	3.72178E+000	-1.24604E-006	0.00000E+000	-4.63750E-006	0.00000E+000	4.50933E-004	-3.27672E+002	7	...........
	197	198	3.72177E+000	-1.24559E-006	0.00000E+000	-4.63580E-006	0.00000E+000	4.49917E-004	-3.27672E+002	7	...........
	198	199	3.72176E+000	-1.24612E-006	0.00000E+000	-4.63775E-006	0.00000E+000	4.50883E-004	-3.27672E+002	7	...........
	199	200	3.72176E+000	-1.24627E-006	0.00000E+000	-4.63833E-006	0.00000E+000	4.48033E-004	-3.27672E+002	7	...........
	200	201	3.72174E+000	-1.24588E-006	0.00000E+000	-4.63684E-006	0.00000E+000	4.47250E-004	-3.27672E+002	7	...........
	201	202	3.72172E+000	-1.24649E-006	0.00000E+000	-4.63910E-006	0.00000E+000	4.46500E-004	-3.27672E+002	7	...........
	202	203	3.72172E+000	-1.24573E-006	0.00000E+000	-4.63625E-006	0.00000E+000	4.49817E-004	-3.27672E+002	7	...........
	203	204	3.72169E+000	-1.24600E-006	0.00000E+000	-4.63722E-006	0.00000E+000	4.47000E-004	-3.27672E+002	7	...........
	204	205	3.72168E+000	-1.24533E-006	0.00000E+000	-4.63471E-006	0.00000E+000	4.48717E-004	-3.27672E+002	7	...........
	205	206	3.72167E+000	-1.24471E-006	0.00000E+000	-4.63239E-006	0.00000E+000	4.43067E-004	-3.27672E+002	7	...........
	206	207	3.72167E+000	-1.24535E-006	0.00000E+000	-4.63476E-006	0.00000E+000	4.45300E-004	-3.27672E+002	7	...........
	207	208	3.72165E+000	-1.24547E-006	0.00000E+000	-4.63521E-006	0.00000E+000	4.50533E-004	-3.27672E+002	7	...........
	208	209	3.72164E+000	-1.24463E-006	0.00000E+000	-4.63204E-006	0.00000E+000	4.47800E-004	-3.27672E+002	7	...........
	209	210	3.72162E+000	-1.24560E-006	0.00000E+000	-4.63566E-006	0.00000E+000	4.45633E-004	-3.27672E+002	7	...........
	210	211	3.72161E+000	-1.24531E-006	0.00000E+000	-4.63455E-006	0.00000E+000	4.44933E-004	-3.27672E+002	7	...........
	211	212	3.72159E+000	-1.24465E-006	0.00000E+000	-4.63209E-006	0.00000E+000	4.45050E-004	-3.27672E+002	7	...........
	212	213	3.72158E+000	-1.24457E-006	0.00000E+000	-4.63177E-006	0.00000E+000	4.43850E-004	-3.27672E+002	7	...........
	213	214	3.72156E+000	-1.24569E-006	0.00000E+000	-4.63592E-006	0.00000E+000	4.47117E-004	-3.27672E+002	7	...........
	214	215	3.72156E+000	-1.24467E-006	0.00000E+000	-4.63213E-006	0.00000E+000	4.47467E-004	-3.27672E+002	7	...........
	215	216	3.72155E+000	-1.24474E-006	0.00000E+000	-4.63238E-006	0.00000E+000	4.49350E-004	-3.27672E+002	7	...........
	216	217	3.72154E+000	-1.24562E-006	0.00000E+000	-4.63561E-006	0.00000E+000	4.47400E-004	-3.27672E+002	7	...........
	217	218	3.72152E+000	-1.24506E-006	0.00000E+000	-4.63352E-006	0.00000E+000	4.43950E-004	-3.27672E+002	7	...........
	218	219	3.72151E+000	-1.24524E-006	0.00000E+000	-4.63417E-006	0.00000E+000	4.47600E-004	-3.27672E+002	7	...........
	219	220	3.72150E+000	-1.24587E-006	0.00000E+000	-4.63651E-006	0.00000E+000	4.45083E-004	-3.27672E+002	7	...........
	220	221	3.72149E+000	-1.24497E-006	0.00000E+000	-4.63312E-006	0.00000E+000	4.46467E-004	-3.27672E+002	7	...........
	221	222	3.72147E+000	-1.24466E-006	0.00000E+000	-4.63199E-006	0.00000E+000	4.45900E-004	-3.27672E+002	7	...........
	222	223	3.72146E+000	-1.24461E-006	0.00000E+000	-4.63177E-006	0.00000E+000	4.44817E-004	-3.27672E+002	7	...........
	223	224	3.72147E+000	-1.24465E-006	0.00000E+000	-4.63194E-006	0.00000E+000	4.46167E-004	-3.27672E+002	7	...........
	224	225	3.72145E+000	-1.24436E-006	0.00000E+000	-4.63083E-006	0.00000E+000	4.44383E-004	-3.27672E+002	7	...........
	225	226	3.72144E+000	-1.24535E-006	0.00000E+000	-4.63451E-006	0.00000E+000	4.48233E-004	-3.27672E+002	7	...........
	226	227	3.72144E+000	-1.24582E-006	0.00000E+000	-4.63623E-006	0.00000E+000	4.47583E-004	-3.27672E+002	7	...........
	227	228	3.72141E+000	-1.24543E-006	0.00000E+000	-4.63475E-006	0.00000E+000	4.44883E-004	-3.27672E+002	7	...........
	228	229	3.72140E+000	-1.24398E-006	0.00000E+000	-4.62935E-006	0.00000E+000	4.42417E-004	-3.27672E+002	7	...........
	229	230	3.72139E+000	-1.24447E-006	0.00000E+000	-4.63117E-006	0.00000E+000	4.45000E-004	-3.27672E+002	7	...........
	230	231	3.72138E+000	-1.24428E-006	0.00000E+000	-4.63044E-006	0.00000E+000	4.46267E-004	-3.27672E+002	7	...........
	231	232	3.72137E+000	-1.24524E-006	0.00000E+000	-4.63399E-006	0.00000E+000	4.45750E-004	-3.27672E+002	7	...........
	232	233	3.72136E+000	-1.24490E-006	0.00000E+000	-4.63271E-006	0.00000E+000	4.45917E-004	-3.27672E+002	7	...........
	233	234	3.72135E+000	-1.24464E-006	0.00000E+000	-4.63173E-006	0.00000E+000	4.45800E-004	-3.27672E+002	7	...........
	234	235	3.72134E+000	-1.24484E-006	0.00000E+000	-4.63246E-006	0.00000E+000	4.42067E-004	-3.27672E+002	7	...........
	235	236	3.72133E+000	-1.24531E-006	0.00000E+000	-4.63421E-006	0.00000E+000	4.46533E-004	-3.27672E+002	7	...........
	236	237	3.72132E+000	-1.24493E-006	0.00000E+000	-4.63278E-006	0.00000E+000	4.47717E-004	-3.27672E+002	7	...........
	237	238	3.72130E+000	-1.24500E-006	0.00000E+000	-4.63300E-006	0.00000E+000	4.45367E-004	-3.27672E+002	7	...........
	238	239	3.72129E+000	-1.24530E-006	0.00000E+000	-4.63412E-006	0.00000E+000	4.44433E-004	-3.27672E+002	7	...........
	239	240	3.72128E+000	-1.24506E-006	0.00000E+000	-4.63323E-006	0.00000E+000	4.45417E-004	-3.27672E+002	7	...........
	240	241	3.72127E+000	-1.24472E-006	0.00000E+000	-4.63192E-006	0.00000E+000	4.45450E-004	-3.27672E+002	7	...........
	241	242	3.72126E+000	-1.24409E-006	0.00000E+000	-4.62958E-006	0.00000E+000	4.44267E-004	-3.27672E+002	7	...........
	242	243	3.72126E+000	-1.24344E-006	0.00000E+000	-4.62717E-006	0.00000E+000	4.44133E-004	-3.27672E+002	7	...........
	243	244	3.72124E+000	-1.24499E-006	0.00000E+000	-4.63289E-006	0.00000E+000	4.48117E-004	-3.27672E+002	7	...........
	244	245	3.72123E+000	-1.24487E-006	0.00000E+000	-4.63244E-006	0.00000E+000	4.44700E-004	-3.27672E+002	7	...........
	245	246	3.72121E+000	-1.24384E-006	0.00000E+000	-4.62859E-006	0.00000E+000	4.44933E-004	-3.27672E+002	7	...........
	246	247	3.72120E+000	-1.24415E-006	0.00000E+000	-4.62973E-006	0.00000E+000	4.44633E-004	-3.27672E+002	7	...........
	247	248	3.72120E+000	-1.24438E-006	0.00000E+000	-4.63059E-006	0.00000E+000	4.45850E-004	-3.27672E+002	7	...........
	248	249	3.72120E+000	-1.24437E-006	0.00000E+000	-4.63053E-006	0.00000E+000	4.45783E-004	-3.27672E+002	7	...........
	249	250	3.72118E+000	-1.24393E-006	0.00000E+000	-4.62889E-006	0.00000E+000	4.44250E-004	-3.27672E+002	7	...........
	250	251	3.72117E+000	-1.24476E-006	0.00000E+000	-4.63195E-006	0.00000E+000	4.43883E-004	-3.27672E+002	7	...........
	251	252	3.72116E+000	-1.24490E-006	0.00000E+000	-4.63246E-006	0.00000E+000	4.45317E-004	-3.27672E+002	7	...........
	252	253	3.72115E+000	-1.24434E-006	0.00000E+000	-4.63037E-006	0.00000E+000	4.46917E-004	-3.27672E+002	7	...........
	253	254	3.72114E+000	-1.24437E-006	0.00000E+000	-4.63047E-006	0.00000E+000	4.46400E-004	-3.27672E+002	7	...........
	254	255	3.72113E+000	-1.24468E-006	0.00000E+000	-4.63164E-006	0.00000E+000	4.43950E-004	-3.27672E+002	7	...........
	255	256	3.72112E+000	-1.24489E-006	0.00000E+000	-4.63237E-006	0.00000E+000	4.46917E-004	-3.27672E+002	7	...........
	256	257	3.72110E+000	-1.24390E-006	0.00000E+000	-4.62867E-006	0.00000E+000	4.45283E-004	-3.27672E+002	7	...........
	257	258	3.72110E+000	-1.24443E-006	0.00000E+000	-4.63066E-006	0.00000E+000	4.46767E-004	-3.27672E+002	7	...........
	258	259	3.72109E+000	-1.24387E-006	0.00000E+000	-4.62857E-006	0.00000E+000	4.47650E-004	-3.27672E+002	7	...........
	259	260	3.72108E+000	-1.24386E-006	0.00000E+000	-4.62849E-006	0.00000E+000	4.46333E-004	-3.27672E+002	7	...........
	260	261	3.72107E+000	-1.24315E-006	0.00000E+000	-4.62584E-006	0.00000E+000	4.44883E-004	-3.27672E+002	7	...........
	261	262	3.72106E+000	-1.24496E-006	0.00000E+000	-4.63255E-006	0.00000E+000	4.44300E-004	-3.27672E+002	7	...........
	262	263	3.72105E+000	-1.24416E-006	0.00000E+000	-4.62960E-006	0.00000E+000	4.43683E-004	-3.27672E+002	7	...........
	263	264	3.72104E+000	-1.24459E-006	0.00000E+000	-4.63115E-006	0.00000E+000	4.48400E-004	-3.27672E+002	7	...........
	264	265	3.72102E+000	-1.24480E-006	0.00000E+000	-4.63193E-006	0.00000E+000	4.46700E-004	-3.27672E+002	7	...........
	265	266	3.72102E+000	-1.24336E-006	0.00000E+000	-4.62658E-006	0.00000E+000	4.43367E-004	-3.27672E+002	7	...........
	266	267	3.72101E+000	-1.24408E-006	0.00000E+000	-4.62922E-006	0.00000E+000	4.46617E-004	-3.27672E+002	7	...........
	267	268	3.72100E+000	-1.24416E-006	0.00000E+000	-4.62952E-006	0.00000E+000	4.50433E-004	-3.27672E+002	7	...........
	268	269	3.72099E+000	-1.24384E-006	0.00000E+000	-4.62833E-006	0.00000E+000	4.45517E-004	-3.27672E+002	7	...........
	269	270	3.72098E+000	-1.24399E-006	0.00000E+000	-4.62887E-006	0.00000E+000	4.46600E-004	-3.27672E+002	7	...........
	270	271	3.72097E+000	-1.24437E-006	0.00000E+000	-4.63027E-006	0.00000E+000	4.46417E-004	-3.27672E+002	7	...........
	271	272	3.72096E+000	-1.24456E-006	0.00000E+000	-4.63095E-006	0.00000E+000	4.45217E-004	-3.27672E+002	7	...........
	272	273	3.72095E+000	-1.24444E-006	0.00000E+000	-4.63051E-006	0.00000E+000	4.46250E-004	-3.27672E+002	7	...........
	273	274	3.72095E+000	-1.24406E-006	0.00000E+000	-4.62907E-006	0.00000E+000	4.49733E-004	-3.27672E+002	7	...........
	274	275	3.72094E+000	-1.24383E-006	0.00000E+000	-4.62822E-006	0.00000E+000	4.47967E-004	-3.27672E+002	7	...........
	275	276	3.72093E+000	-1.24428E-006	0.00000E+000	-4.62986E-006	0.00000E+000	4.46850E-004	-3.27672E+002	7	...........
	276	277	3.72093E+000	-1.24289E-006	0.00000E+000	-4.62470E-006	0.00000E+000	4.49817E-004	-3.27672E+002	7	...........
	277	278	3.72091E+000	-1.24316E-006	0.00000E+000	-4.62569E-006	0.00000E+000	4.47367E-004	-3.27672E+002	7	...........
	278	279	3.72091E+000	-1.24224E-006	0.00000E+000	-4.62226E-006	0.00000E+000	4.45817E-004	-3.27672E+002	7	...........
	279	280	3.72088E+000	-1.24346E-006	0.00000E+000	-4.62676E-006	0.00000E+000	4.51650E-004	-3.27672E+002	7	...........
	280	281	3.72088E+000	-1.24348E-006	0.00000E+000	-4.62684E-006	0.00000E+000	4.51967E-004	-3.27672E+002	7	...........
	281	282	3.72087E+000	-1.24403E-006	0.00000E+000	-4.62887E-006	0.00000E+000	4.50617E-004	-3.27672E+002	7	...........
	282	283	3.72086E+000	-1.24407E-006	0.00000E+000	-4.62900E-006	0.00000E+000	4.50100E-004	-3.27672E+002	7	...........
	283	284	3.72085E+000	-1.24346E-006	0.00000E+000	-4.62672E-006	0.00000E+000	4.50483E-004	-3.27672E+002	7	...........
	284	285	3.72085E+000	-1.24439E-006	0.00000E+000	-4.63017E-006	0.00000E+000	4.51617E-004	-3.27672E+002	7	...........
	285	286	3.72084E+000	-1.24357E-006	0.00000E+000	-4.62711E-006	0.00000E+000	4.48617E-004	-3.27672E+002	7	...........
	286	287	3.72083E+000	-1.24369E-006	0.00000E+000	-4.62755E-006	0.00000E+000	4.46733E-004	-3.27672E+002	7	...........
	287	288	3.72083E+000	-1.24406E-006	0.00000E+000	-4.62896E-006	0.00000E+000	4.48533E-004	-3.27672E+002	7	...........
	288	289	3.72082E+000	-1.24380E-006	0.00000E+000	-4.62795E-006	0.00000E+000	4.52383E-004	-3.27672E+002	7	...........
	289	290	3.72081E+000	-1.24430E-006	0.00000E+000	-4.62979E-006	0.00000E+000	4.51167E-004	-3.27672E+002	7	...........
	290	291	3.72080E+000	-1.24433E-006	0.00000E+000	-4.62990E-006	0.00000E+000	4.53550E-004	-3.27672E+002	7	...........
	291	292	3.72079E+000	-1.24494E-006	0.00000E+000	-4.63217E-006	0.00000E+000	4.50700E-004	-3.27672E+002	7	...........
	292	293	3.72078E+000	-1.24489E-006	0.00000E+000	-4.63196E-006	0.00000E+000	4.50850E-004	-3.27672E+002	7	...........
	293	294	3.72076E+000	-1.24412E-006	0.00000E+000	-4.62907E-006	0.00000E+000	4.48983E-004	-3.27672E+002	7	...........
	294	295	3.72076E+000	-1.24457E-006	0.00000E+000	-4.63076E-006	0.00000E+000	4.49617E-004	-3.27672E+002	7	...........
	295	296	3.72076E+000	-1.24366E-006	0.00000E+000	-4.62737E-006	0.00000E+000	4.49017E-004	-3.27672E+002	7	...........
	296	297	3.72075E+000	-1.24296E-006	0.00000E+000	-4.62475E-006	0.00000E+000	4.49983E-004	-3.27672E+002	7	...........
	297	298	3.72074E+000	-1.24324E-006	0.00000E+000	-4.62577E-006	0.00000E+000	4.50583E-004	-3.27672E+002	7	...........
	298	299	3.72074E+000	-1.24340E-006	0.00000E+000	-4.62636E-006	0.00000E+000	4.51250E-004	-3.27672E+002	7	...........
	299	300	3.72073E+000	-1.24407E-006	0.00000E+000	-4.62883E-006	0.00000E+000	4.53933E-004	-3.27672E+002	7	...........
	300	301	3.72072E+000	-1.24301E-006	0.00000E+000	-4.62488E-006	0.00000E+000	4.50867E-004	-3.27672E+002	7	...........
	301	302	3.72071E+000	-1.24353E-006	0.00000E+000	-4.62683E-006	0.00000E+000	4.52583E-004	-3.27672E+002	7	...........
	302	303	3.72070E+000	-1.24253E-006	0.00000E+000	-4.62308E-006	0.00000E+000	4.51967E-004	-3.27672E+002	7	...........
	303	304	3.72069E+000	-1.24322E-006	0.00000E+000	-4.62563E-006	0.00000E+000	4.50067E-004	-3.27672E+002	7	...........
	304	305	3.72068E+000	-1.24356E-006	0.00000E+000	-4.62688E-006	0.00000E+000	4.51067E-004	-3.27672E+002	7	...........
	305	306	3.72067E+000	-1.24375E-006	0.00000E+000	-4.62759E-006	0.00000E+000	4.49967E-004	-3.27672E+002	7	...........
	306	307	3.72066E+000	-1.24371E-006	0.00000E+000	-4.62741E-006	0.00000E+000	4.52317E-004	-3.27672E+002	7	...........
	307	308	3.72066E+000	-1.24388E-006	0.00000E+000	-4.62806E-006	0.00000E+000	4.53433E-004	-3.27672E+002	7	...........
	308	309	3.72064E+000	-1.24420E-006	0.00000E+000	-4.62922E-006	0.00000E+000	4.50283E-004	-3.27672E+002	7	...........
	309	310	3.72064E+000	-1.24390E-006	0.00000E+000	-4.62810E-006	0.00000E+000	4.53300E-004	-3.27672E+002	7	...........
	310	311	3.72063E+000	-1.24372E-006	0.00000E+000	-4.62744E-006	0.00000E+000	4.49500E-004	-3.27672E+002	7	...........
	311	312	3.72063E+000	-1.24384E-006	0.00000E+000	-4.62788E-006	0.00000E+000	4.52567E-004	-3.27672E+002	7	...........
	312	313	3.72061E+000	-1.24387E-006	0.00000E+000	-4.62795E-006	0.00000E+000	4.53317E-004	-3.27672E+002	7	...........
	313	314	3.72060E+000	-1.24439E-006	0.00000E+000	-4.62987E-006	0.00000E+000	4.51033E-004	-3.27672E+002	7	...........
	314	315	3.72060E+000	-1.24378E-006	0.00000E+000	-4.62763E-006	0.00000E+000	4.50633E-004	-3.27672E+002	7	...........
	315	316	3.72058E+000	-1.24384E-006	0.00000E+000	-4.62783E-006	0.00000E+000	4.51717E-004	-3.27672E+002	7	...........
	316	317	3.72059E+000	-1.24362E-006	0.00000E+000	-4.62700E-006	0.00000E+000	4.52717E-004	-3.27672E+002	7	...........
	317	318	3.72058E+000	-1.24353E-006	0.00000E+000	-4.62666E-006	0.00000E+000	4.51017E-004	-3.27672E+002	7	...........
	318	319	3.72057E+000	-1.24371E-006	0.00000E+000	-4.62732E-006	0.00000E+000	4.51533E-004	-3.27672E+002	7	...........
	319	320	3.72056E+000	-1.24366E-006	0.00000E+000	-4.62710E-006	0.00000E+000	4.52833E-004	-3.27672E+002	7	...........
	320	321	3.72055E+000	-1.24211E-006	0.00000E+000	-4.62132E-006	0.00000E+000	4.49633E-004	-3.27672E+002	7	...........
	321	322	3.72055E+000	-1.24224E-006	0.00000E+000	-4.62180E-006	0.00000E+000	4.51517E-004	-3.27672E+002	7	...........
	322	323	3.72054E+000	-1.24332E-006	0.00000E+000	-4.62581E-006	0.00000E+000	4.52417E-004	-3.27672E+002	7	...........
	323	324	3.72053E+000	-1.24370E-006	0.00000E+000	-4.62724E-006	0.00000E+000	4.50567E-004	-3.27672E+002	7	...........
	324	325	3.72053E+000	-1.24285E-006	0.00000E+000	-4.62406E-006	0.00000E+000	4.52850E-004	-3.27672E+002	7	...........
	325	326	3.72052E+000	-1.24380E-006	0.00000E+000	-4.62759E-006	0.00000E+000	4.54250E-004	-3.27672E+002	7	...........
	326	327	3.72051E+000	-1.24317E-006	0.00000E+000	-4.62523E-006	0.00000E+000	4.51967E-004	-3.27672E+002	7	...........
	327	328	3.72051E+000	-1.24352E-006	0.00000E+000	-4.62653E-006	0.00000E+000	4.49817E-004	-3.27672E+002	7	...........
	328	329	3.72050E+000	-1.24385E-006	0.00000E+000	-4.62775E-006	0.00000E+000	4.52017E-004	-3.27672E+002	7	...........
	329	330	3.72049E+000	-1.24337E-006	0.00000E+000	-4.62595E-006	0.00000E+000	4.48650E-004	-3.27672E+002	7	...........
	330	331	3.72047E+000	-1.24343E-006	0.00000E+000	-4.62615E-006	0.00000E+000	4.56700E-004	-3.27672E+002	7	...........
	331	332	3.72048E+000	-1.24232E-006	0.00000E+000	-4.62203E-006	0.00000E+000	4.53817E-004	-3.27672E+002	7	...........
	332	333	3.72047E+000	-1.24250E-006	0.00000E+000	-4.62269E-006	0.00000E+000	4.54800E-004	-3.27672E+002	7	...........
	333	334	3.72047E+000	-1.24321E-006	0.00000E+000	-4.62532E-006	0.00000E+000	4.52633E-004	-3.27672E+002	7	...........
	334	335	3.72046E+000	-1.24321E-006	0.00000E+000	-4.62531E-006	0.00000E+000	4.54150E-004	-3.27672E+002	7	...........
	335	336	3.72046E+000	-1.24333E-006	0.00000E+000	-4.62577E-006	0.00000E+000	4.54017E-004	-3.27672E+002	7	...........
	336	337	3.72045E+000	-1.24313E-006	0.00000E+000	-4.62501E-006	0.00000E+000	4.57583E-004	-3.27672E+002	7	...........
	337	338	3.72044E+000	-1.24279E-006	0.00000E+000	-4.62372E-006	0.00000E+000	4.56383E-004	-3.27672E+002	7	...........
	338	339	3.72043E+000	-1.24292E-006	0.00000E+000	-4.62419E-006	0.00000E+000	4.54633E-004	-3.27672E+002	7	...........
	339	340	3.72042E+000	-1.24318E-006	0.00000E+000	-4.62515E-006	0.00000E+000	4.52000E-004	-3.27672E+002	7	...........
	340	341	3.72042E+000	-1.24303E-006	0.00000E+000	-4.62460E-006	0.00000E+000	4.54233E-004	-3.27672E+002	7	...........
	341	342	3.72042E+000	-1.24298E-006	0.00000E+000	-4.62439E-006	0.00000E+000	4.50783E-004	-3.27672E+002	7	...........
	342	343	3.72041E+000	-1.24399E-006	0.00000E+000	-4.62814E-006	0.00000E+000	4.53117E-004	-3.27672E+002	7	...........
	343	344	3.72040E+000	-1.24387E-006	0.00000E+000	-4.62771E-006	0.00000E+000	4.52217E-004	-3.27672E+002	7	...........
	344	345	3.72040E+000	-1.24389E-006	0.00000E+000	-4.62776E-006	0.00000E+000	4.53267E-004	-3.27672E+002	7	...........
	345	346	3.72040E+000	-1.24314E-006	0.00000E+000	-4.62498E-006	0.00000E+000	4.51533E-004	-3.27672E+002	7	...........
	346	347	3.72039E+000	-1.24313E-006	0.00000E+000	-4.62491E-006	0.00000E+000	4.51050E-004	-3.27672E+002	7	...........
	347	348	3.72039E+000	-1.24241E-006	0.00000E+000	-4.62225E-006	0.00000E+000	4.56083E-004	-3.27672E+002	7	...........
	348	349	3.72038E+000	-1.24270E-006	0.00000E+000	-4.62333E-006	0.00000E+000	4.54333E-004	-3.27672E+002	7	...........
	349	350	3.72037E+000	-1.24264E-006	0.00000E+000	-4.62308E-006	0.00000E+000	4.55667E-004	-3.27672E+002	7	...........
	350	351	3.72036E+000	-1.24226E-006	0.00000E+000	-4.62167E-006	0.00000E+000	4.59267E-004	-3.27672E+002	7	...........
	351	352	3.72036E+000	-1.24315E-006	0.00000E+000	-4.62495E-006	0.00000E+000	4.55483E-004	-3.27672E+002	7	...........
	352	353	3.72035E+000	-1.24321E-006	0.00000E+000	-4.62519E-006	0.00000E+000	4.54417E-004	-3.27672E+002	7	...........
	353	354	3.72035E+000	-1.24360E-006	0.00000E+000	-4.62664E-006	0.00000E+000	4.53433E-004	-3.27672E+002	7	...........
	354	355	3.72034E+000	-1.24324E-006	0.00000E+000	-4.62528E-006	0.00000E+000	4.55667E-004	-3.27672E+002	7	...........
	355	356	3.72034E+000	-1.24346E-006	0.00000E+000	-4.62609E-006	0.00000E+000	4.54267E-004	-3.27672E+002	7	...........
	356	357	3.72034E+000	-1.24334E-006	0.00000E+000	-4.62563E-006	0.00000E+000	4.51283E-004	-3.27672E+002	7	...........
	357	358	3.72032E+000	-1.24318E-006	0.00000E+000	-4.62503E-006	0.00000E+000	4.57200E-004	-3.27672E+002	7	...........
	358	359	3.72032E+000	-1.24297E-006	0.00000E+000	-4.62424E-006	0.00000E+000	4.54350E-004	-3.27672E+002	7	...........
	359	360	3.72031E+000	-1.24409E-006	0.00000E+000	-4.62840E-006	0.00000E+000	4.54000E-004	-3.27672E+002	7	...........
	360	361	3.72030E+000	-1.24464E-006	0.00000E+000	-4.63042E-006	0.00000E+000	4.56050E-004	-3.27672E+002	7	...........
	361	362	3.72030E+000	-1.24420E-006	0.00000E+000	-4.62878E-006	0.00000E+000	4.53483E-004	-3.27672E+002	7	...........
	362	363	3.72029E+000	-1.24393E-006	0.00000E+000	-4.62778E-006	0.00000E+000	4.54550E-004	-3.27672E+002	7	...........
	363	364	3.72028E+000	-1.24384E-006	0.00000E+000	-4.62743E-006	0.00000E+000	4.56483E-004	-3.27672E+002	7	...........
	364	365	3.72028E+000	-1.24428E-006	0.00000E+000	-4.62906E-006	0.00000E+000	4.51800E-004	-3.27672E+002	7	...........
	365	366	3.72026E+000	-1.24400E-006	0.00000E+000	-4.62799E-006	0.00000E+000	4.53083E-004	-3.27672E+002	7	...........
	366	367	3.72027E+000	-1.24379E-006	0.00000E+000	-4.62724E-006	0.00000E+000	4.56000E-004	-3.27672E+002	7	...........
	367	368	3.72026E+000	-1.24309E-006	0.00000E+000	-4.62460E-006	0.00000E+000	4.56117E-004	-3.27672E+002	7	...........
	368	369	3.72025E+000	-1.24318E-006	0.00000E+000	-4.62494E-006	0.00000E+000	4.56817E-004	-3.27672E+002	7	...........
	369	370	3.72024E+000	-1.24343E-006	0.00000E+000	-4.62584E-006	0.00000E+000	4.57133E-004	-3.27672E+002	7	...........
	370	371	3.72023E+000	-1.24321E-006	0.00000E+000	-4.62502E-006	0.00000E+000	4.52683E-004	-3.27672E+002	7	...........
	371	372	3.72024E+000	-1.24334E-006	0.00000E+000	-4.62553E-006	0.00000E+000	4.56133E-004	-3.27672E+002	7	...........
	372	373	3.72023E+000	-1.24372E-006	0.00000E+000	-4.62694E-006	0.00000E+000	4.56300E-004	-3.27672E+002	7	...........
	373	374	3.72022E+000	-1.24360E-006	0.00000E+000	-4.62645E-006	0.00000E+000	4.57367E-004	-3.27672E+002	7	...........
	374	375	3.72021E+000	-1.24311E-006	0.00000E+000	-4.62463E-006	0.00000E+000	4.55150E-004	-3.27672E+002	7	...........
	375	376	3.72021E+000	-1.24372E-006	0.00000E+000	-4.62690E-006	0.00000E+000	4.55117E-004	-3.27672E+002	7	...........
	376	377	3.72020E+000	-1.24295E-006	0.00000E+000	-4.62403E-006	0.00000E+000	4.53583E-004	-3.27672E+002	7	...........
	377	378	3.72019E+000	-1.24365E-006	0.00000E+000	-4.62662E-006	0.00000E+000	4.58067E-004	-3.27672E+002	7	...........
	378	379	3.72019E+000	-1.24252E-006	0.00000E+000	-4.62241E-006	0.00000E+000	4.56117E-004	-3.27672E+002	7	...........
	379	380	3.72019E+000	-1.24302E-006	0.00000E+000	-4.62426E-006	0.00000E+000	4.55083E-004	-3.27672E+002	7	...........
	380	381	3.72018E+000	-1.24312E-006	0.00000E+000	-4.62461E-006	0.00000E+000	4.54833E-004	-3.27672E+002	7	...........
	381	382	3.72016E+000	-1.24349E-006	0.00000E+000	-4.62597E-006	0.00000E+000	4.56817E-004	-3.27672E+002	7	...........
	382	383	3.72016E+000	-1.24340E-006	0.00000E+000	-4.62565E-006	0.00000E+000	4.53200E-004	-3.27672E+002	7	...........
	383	384	3.72016E+000	-1.24370E-006	0.00000E+000	-4.62675E-006	0.00000E+000	4.54850E-004	-3.27672E+002	7	...........
	384	385	3.72015E+000	-1.24350E-006	0.00000E+000	-4.62602E-006	0.00000E+000	4.53533E-004	-3.27672E+002	7	...........
	385	386	3.72014E+000	-1.24237E-006	0.00000E+000	-4.62178E-006	0.00000E+000	4.58033E-004	-3.27672E+002	7	...........
	386	387	3.72015E+000	-1.24225E-006	0.00000E+000	-4.62137E-006	0.00000E+000	4.54683E-004	-3.27672E+002	7	...........
	387	388	3.72013E+000	-1.24291E-006	0.00000E+000	-4.62380E-006	0.00000E+000	4.54683E-004	-3.27672E+002	7	...........
	388	389	3.72013E+000	-1.24250E-006	0.00000E+000	-4.62226E-006	0.00000E+000	4.54883E-004	-3.27672E+002	7	...........
	389	390	3.72013E+000	-1.24301E-006	0.00000E+000	-4.62417E-006	0.00000E+000	4.57667E-004	-3.27672E+002	7	...........
	390	391	3.72012E+000	-1.24232E-006	0.00000E+000	-4.62156E-006	0.00000E+000	4.57650E-004	-3.27672E+002	7	...........
	391	392	3.72011E+000	-1.24292E-006	0.00000E+000	-4.62379E-006	0.00000E+000	4.56867E-004	-3.27672E+002	7	...........
	392	393	3.72010E+000	-1.24287E-006	0.00000E+000	-4.62359E-006	0.00000E+000	4.55100E-004	-3.27672E+002	7	...........
	393	394	3.72010E+000	-1.24302E-006	0.00000E+000	-4.62415E-006	0.00000E+000	4.56217E-004	-3.27672E+002	7	...........
	394	395	3.72009E+000	-1.24336E-006	0.00000E+000	-4.62541E-006	0.00000E+000	4.57050E-004	-3.27672E+002	7	...........
	395	396	3.72009E+000	-1.24336E-006	0.00000E+000	-4.62541E-006	0.00000E+000	4.58683E-004	-3.27672E+002	7	...........
	396	397	3.72009E+000	-1.24324E-006	0.00000E+000	-4.62497E-006	0.00000E+000	4.58417E-004	-3.27672E+002	7	...........
	397	398	3.72008E+000	-1.24378E-006	0.00000E+000	-4.62696E-006	0.00000E+000	4.60100E-004	-3.27672E+002	7	...........
	398	399	3.72007E+000	-1.24324E-006	0.00000E+000	-4.62492E-006	0.00000E+000	4.56783E-004	-3.27672E+002	7	...........
	399	400	3.72006E+000	-1.24369E-006	0.00000E+000	-4.62661E-006	0.00000E+000	4.59750E-004	-3.27672E+002	7	...........
	400	401	3.72006E+000	-1.24287E-006	0.00000E+000	-4.62357E-006	0.00000E+000	4.56117E-004	-3.27672E+002	7	...........
	401	402	3.72006E+000	-1.24266E-006	0.00000E+000	-4.62275E-006	0.00000E+000	4.57867E-004	-3.27672E+002	7	...........
	402	403	3.72005E+000	-1.24273E-006	0.00000E+000	-4.62300E-006	0.00000E+000	4.55050E-004	-3.27672E+002	7	...........
	403	404	3.72005E+000	-1.24174E-006	0.00000E+000	-4.61934E-006	0.00000E+000	4.57400E-004	-3.27672E+002	7	...........
	404	405	3.72004E+000	-1.24103E-006	0.00000E+000	-4.61668E-006	0.00000E+000	4.55767E-004	-3.27672E+002	7	...........
	405	406	3.72003E+000	-1.24265E-006	0.00000E+000	-4.62269E-006	0.00000E+000	4.57367E-004	-3.27672E+002	7	...........
	406	407	3.72002E+000	-1.24319E-006	0.00000E+000	-4.62469E-006	0.00000E+000	4.57933E-004	-3.27672E+002	7	...........
	407	408	3.72001E+000	-1.24291E-006	0.00000E+000	-4.62364E-006	0.00000E+000	4.58650E-004	-3.27672E+002	7	...........
	408	409	3.72001E+000	-1.24240E-006	0.00000E+000	-4.62174E-006	0.00000E+000	4.57867E-004	-3.27672E+002	7	...........
	409	410	3.71999E+000	-1.24247E-006	0.00000E+000	-4.62199E-006	0.00000E+000	4.58700E-004	-3.27672E+002	7	...........
	410	411	3.71999E+000	-1.24197E-006	0.00000E+000	-4.62014E-006	0.00000E+000	4.57800E-004	-3.27672E+002	7	...........
	411	412	3.71998E+000	-1.24242E-006	0.00000E+000	-4.62179E-006	0.00000E+000	4.60367E-004	-3.27672E+002	7	...........
	412	413	3.71998E+000	-1.24275E-006	0.00000E+000	-4.62301E-006	0.00000E+000	4.59117E-004	-3.27672E+002	7	...........
	413	414	3.71997E+000	-1.24352E-006	0.00000E+000	-4.62586E-006	0.00000E+000	4.56033E-004	-3.27672E+002	7	...........
	414	415	3.71997E+000	-1.24358E-006	0.00000E+000	-4.62609E-006	0.00000E+000	4.58517E-004	-3.27672E+002	7	...........
	415	416	3.71996E+000	-1.24289E-006	0.00000E+000	-4.62349E-006	0.00000E+000	4.58767E-004	-3.27672E+002	7	...........
	416	417	3.71996E+000	-1.24297E-006	0.00000E+000	-4.62381E-006	0.00000E+000	4.55883E-004	-3.27672E+002	7	...........
	417	418	3.71995E+000	-1.24304E-006	0.00000E+000	-4.62405E-006	0.00000E+000	4.57483E-004	-3.27672E+002	7	...........
	418	419	3.71994E+000	-1.24312E-006	0.00000E+000	-4.62435E-006	0.00000E+000	4.56083E-004	-3.27672E+002	7	...........
	419	420	3.71994E+000	-1.24273E-006	0.00000E+000	-4.62288E-006	0.00000E+000	4.56850E-004	-3.27672E+002	7	...........
	420	421	3.71994E+000	-1.24319E-006	0.00000E+000	-4.62457E-006	0.00000E+000	4.55400E-004	-3.27672E+002	7	...........
	421	422	3.71993E+000	-1.24286E-006	0.00000E+000	-4.62335E-006	0.00000E+000	4.55467E-004	-3.27672E+002	7	...........
	422	423	3.71993E+000	-1.24173E-006	0.00000E+000	-4.61913E-006	0.00000E+000	4.55083E-004	-3.27672E+002	7	...........
	423	424	3.71992E+000	-1.24284E-006	0.00000E+000	-4.62326E-006	0.00000E+000	4.59250E-004	-3.27672E+002	7	...........
	424	425	3.71992E+000	-1.24277E-006	0.00000E+000	-4.62300E-006	0.00000E+000	4.59733E-004	-3.27672E+002	7	...........
	425	426	3.71991E+000	-1.24270E-006	0.00000E+000	-4.62274E-006	0.00000E+000	4.60633E-004	-3.27672E+002	7	...........
	426	427	3.71990E+000	-1.24198E-006	0.00000E+000	-4.62006E-006	0.00000E+000	4.59217E-004	-3.27672E+002	7	...........
	427	428	3.71990E+000	-1.24276E-006	0.00000E+000	-4.62294E-006	0.00000E+000	4.58417E-004	-3.27672E+002	7	...........
	428	429	3.71989E+000	-1.24251E-006	0.00000E+000	-4.62200E-006	0.00000E+000	4.59633E-004	-3.27672E+002	7	...........
	429	430	3.71988E+000	-1.24237E-006	0.00000E+000	-4.62147E-006	0.00000E+000	4.58467E-004	-3.27672E+002	7	...........
	430	431	3.71988E+000	-1.24222E-006	0.00000E+000	-4.62090E-006	0.00000E+000	4.59967E-004	-3.27672E+002	7	...........
	431	432	3.71987E+000	-1.24353E-006	0.00000E+000	-4.62578E-006	0.00000E+000	4.60000E-004	-3.27672E+002	7	...........
	432	433	3.71988E+000	-1.24326E-006	0.00000E+000	-4.62478E-006	0.00000E+000	4.58550E-004	-3.27672E+002	7	...........
	433	434	3.71987E+000	-1.24322E-006	0.00000E+000	-4.62461E-006	0.00000E+000	4.57883E-004	-3.27672E+002	7	...........
	434	435	3.71985E+000	-1.24294E-006	0.00000E+000	-4.62355E-006	0.00000E+000	4.58117E-004	-3.27672E+002	7	...........
	435	436	3.71985E+000	-1.24327E-006	0.00000E+000	-4.62479E-006	0.00000E+000	4.59717E-004	-3.27672E+002	7	...........
	436	437	3.71985E+000	-1.24289E-006	0.00000E+000	-4.62337E-006	0.00000E+000	4.59567E-004	-3.27672E+002	7	...........
	437	438	3.71984E+000	-1.24327E-006	0.00000E+000	-4.62478E-006	0.00000E+000	4.57800E-004	-3.27672E+002	7	...........
	438	439	3.71984E+000	-1.24329E-006	0.00000E+000	-4.62483E-006	0.00000E+000	4.58167E-004	-3.27672E+002	7	...........
	439	440	3.71984E+000	-1.24286E-006	0.00000E+000	-4.62325E-006	0.00000E+000	4.57317E-004	-3.27672E+002	7	...........
	440	441	3.71984E+000	-1.24183E-006	0.00000E+000	-4.61940E-006	0.00000E+000	4.56117E-004	-3.27672E+002	7	...........
	441	442	3.71983E+000	-1.24244E-006	0.00000E+000	-4.62165E-006	0.00000E+000	4.59183E-004	-3.27672E+002	7	...........
	442	443	3.71982E+000	-1.24337E-006	0.00000E+000	-4.62511E-006	0.00000E+000	4.55733E-004	-3.27672E+002	7	...........
	443	444	3.71981E+000	-1.24300E-006	0.00000E+000	-4.62373E-006	0.00000E+000	4.59300E-004	-3.27672E+002	7	...........
	444	445	3.71982E+000	-1.24330E-006	0.00000E+000	-4.62484E-006	0.00000E+000	4.59300E-004	-3.27672E+002	7	...........
	445	446	3.71981E+000	-1.24289E-006	0.00000E+000	-4.62332E-006	0.00000E+000	4.58217E-004	-3.27672E+002	7	...........
	446	447	3.71980E+000	-1.24244E-006	0.00000E+000	-4.62162E-006	0.00000E+000	4.59317E-004	-3.27672E+002	7	...........
	447	448	3.71981E+000	-1.24219E-006	0.00000E+000	-4.62070E-006	0.00000E+000	4.59817E-004	-3.27672E+002	7	...........
	448	449	3.71979E+000	-1.24241E-006	0.00000E+000	-4.62150E-006	0.00000E+000	4.58400E-004	-3.27672E+002	7	...........
	449	450	3.71978E+000	-1.24244E-006	0.00000E+000	-4.62161E-006	0.00000E+000	4.58600E-004	-3.27672E+002	7	...........
	450	451	3.71977E+000	-1.24287E-006	0.00000E+000	-4.62319E-006	0.00000E+000	4.58500E-004	-3.27672E+002	7	...........
	451	452	3.71977E+000	-1.24268E-006	0.00000E+000	-4.62247E-006	0.00000E+000	4.60750E-004	-3.27672E+002	7	...........
	452	453	3.71977E+000	-1.24296E-006	0.00000E+000	-4.62352E-006	0.00000E+000	4.60683E-004	-3.27672E+002	7	...........
	453	454	3.71976E+000	-1.24334E-006	0.00000E+000	-4.62492E-006	0.00000E+000	4.55850E-004	-3.27672E+002	7	...........
	454	455	3.71976E+000	-1.24223E-006	0.00000E+000	-4.62081E-006	0.00000E+000	4.58600E-004	-3.27672E+002	7	...........
	455	456	3.71975E+000	-1.24270E-006	0.00000E+000	-4.62253E-006	0.00000E+000	4.57983E-004	-3.27672E+002	7	...........
	456	457	3.71975E+000	-1.24272E-006	0.00000E+000	-4.62262E-006	0.00000E+000	4.61150E-004	-3.27672E+002	7	...........
	457	458	3.71974E+000	-1.24168E-006	0.00000E+000	-4.61872E-006	0.00000E+000	4.61433E-004	-3.27672E+002	7	...........
	458	459	3.71974E+000	-1.24095E-006	0.00000E+000	-4.61603E-006	0.00000E+000	4.59517E-004	-3.27672E+002	7	...........
	459	460	3.71974E+000	-1.24112E-006	0.00000E+000	-4.61664E-006	0.00000E+000	4.58200E-004	-3.27672E+002	7	...........
	460	461	3.71973E+000	-1.24214E-006	0.00000E+000	-4.62042E-006	0.00000E+000	4.57817E-004	-3.27672E+002	7	...........
	461	462	3.71972E+000	-1.24202E-006	0.00000E+000	-4.61995E-006	0.00000E+000	4.58517E-004	-3.27672E+002	7	...........
	462	463	3.71971E+000	-1.24226E-006	0.00000E+000	-4.62084E-006	0.00000E+000	4.61400E-004	-3.27672E+002	7	...........
	463	464	3.71971E+000	-1.24137E-006	0.00000E+000	-4.61754E-006	0.00000E+000	4.56700E-004	-3.27672E+002	7	...........
	464	465	3.71971E+000	-1.24197E-006	0.00000E+000	-4.61975E-006	0.00000E+000	4.57167E-004	-3.27672E+002	7	...........
	465	466	3.71971E+000	-1.24276E-006	0.00000E+000	-4.62271E-006	0.00000E+000	4.58133E-004	-3.27672E+002	7	...........
	466	467	3.71970E+000	-1.24187E-006	0.00000E+000	-4.61939E-006	0.00000E+000	4.57300E-004	-3.27672E+002	7	...........
	467	468	3.71970E+000	-1.24175E-006	0.00000E+000	-4.61895E-006	0.00000E+000	4.57317E-004	-3.27672E+002	7	...........
	468	469	3.71969E+000	-1.24213E-006	0.00000E+000	-4.62033E-006	0.00000E+000	4.58800E-004	-3.27672E+002	7	...........
	469	470	3.71968E+000	-1.24289E-006	0.00000E+000	-4.62317E-006	0.00000E+000	4.57433E-004	-3.27672E+002	7	...........
	470	471	3.71968E+000	-1.24265E-006	0.00000E+000	-4.62225E-006	0.00000E+000	4.57500E-004	-3.27672E+002	7	...........
	471	472	3.71968E+000	-1.24257E-006	0.00000E+000	-4.62197E-006	0.00000E+000	4.60250E-004	-3.27672E+002	7	...........
	472	473	3.71968E+000	-1.24261E-006	0.00000E+000	-4.62209E-006	0.00000E+000	4.60100E-004	-3.27672E+002	7	...........
	473	474	3.71967E+000	-1.24275E-006	0.00000E+000	-4.62264E-006	0.00000E+000	4.61783E-004	-3.27672E+002	7	...........
	474	475	3.71966E+000	-1.24229E-006	0.00000E+000	-4.62089E-006	0.00000E+000	4.58550E-004	-3.27672E+002	7	...........
	475	476	3.71966E+000	-1.24168E-006	0.00000E+000	-4.61865E-006	0.00000E+000	4.58883E-004	-3.27672E+002	7	...........
	476	477	3.71966E+000	-1.24130E-006	0.00000E+000	-4.61723E-006	0.00000E+000	4.58383E-004	-3.27672E+002	7	...........
	477	478	3.71965E+000	-1.24230E-006	0.00000E+000	-4.62091E-006	0.00000E+000	4.61533E-004	-3.27672E+002	7	...........
	478	479	3.71964E+000	-1.24305E-006	0.00000E+000	-4.62370E-006	0.00000E+000	4.58117E-004	-3.27672E+002	7	...........
	479	480	3.71964E+000	-1.24259E-006	0.00000E+000	-4.62198E-006	0.00000E+000	4.58783E-004	-3.27672E+002	7	...........
	480	481	3.71964E+000	-1.24287E-006	0.00000E+000	-4.62304E-006	0.00000E+000	4.58167E-004	-3.27672E+002	7	...........
	481	482	3.71964E+000	-1.24210E-006	0.00000E+000	-4.62016E-006	0.00000E+000	4.57900E-004	-3.27672E+002	7	...........
	482	483	3.71963E+000	-1.24217E-006	0.00000E+000	-4.62041E-006	0.00000E+000	4.58417E-004	-3.27672E+002	7	...........
	483	484	3.71962E+000	-1.24228E-006	0.00000E+000	-4.62080E-006	0.00000E+000	4.62183E-004	-3.27672E+002	7	...........
	484	485	3.71962E+000	-1.24209E-006	0.00000E+000	-4.62009E-006	0.00000E+000	4.58950E-004	-3.27672E+002	7	...........
	485	486	3.71961E+000	-1.24204E-006	0.00000E+000	-4.61992E-006	0.00000E+000	4.58533E-004	-3.27672E+002	7	...........
	486	487	3.71961E+000	-1.24220E-006	0.00000E+000	-4.62051E-006	0.00000E+000	4.58833E-004	-3.27672E+002	7	...........
	487	488	3.71961E+000	-1.24273E-006	0.00000E+000	-4.62248E-006	0.00000E+000	4.61667E-004	-3.27672E+002	7	...........
	488	489	3.71960E+000	-1.24271E-006	0.00000E+000	-4.62240E-006	0.00000E+000	4.59350E-004	-3.27672E+002	7	...........
	489	490	3.71960E+000	-1.24244E-006	0.00000E+000	-4.62136E-006	0.00000E+000	4.62650E-004	-3.27672E+002	7	...........
	490	491	3.71959E+000	-1.24241E-006	0.00000E+000	-4.62126E-006	0.00000E+000	4.60050E-004	-3.27672E+002	7	...........
	491	492	3.71957E+000	-1.24226E-006	0.00000E+000	-4.62069E-006	0.00000E+000	4.61200E-004	-3.27672E+002	7	...........
	492	493	3.71957E+000	-1.24249E-006	0.00000E+000	-4.62151E-006	0.00000E+000	4.58833E-004	-3.27672E+002	7	...........
	493	494	3.71956E+000	-1.24187E-006	0.00000E+000	-4.61922E-006	0.00000E+000	4.58667E-004	-3.27672E+002	7	...........
	494	495	3.71956E+000	-1.24179E-006	0.00000E+000	-4.61893E-006	0.00000E+000	4.61717E-004	-3.27672E+002	7	...........
	495	496	3.71956E+000	-1.24201E-006	0.00000E+000	-4.61974E-006	0.00000E+000	4.60717E-004	-3.27672E+002	7	...........
	496	497	3.71956E+000	-1.24294E-006	0.00000E+000	-4.62320E-006	0.00000E+000	4.62450E-004	-3.27672E+002	7	...........
	497	498	3.71955E+000	-1.24303E-006	0.00000E+000	-4.62352E-006	0.00000E+000	4.58867E-004	-3.27672E+002	7	...........
	498	499	3.71955E+000	-1.24285E-006	0.00000E+000	-4.62284E-006	0.00000E+000	4.60100E-004	-3.27672E+002	7	...........
	499	500	3.71954E+000	-1.24210E-006	0.00000E+000	-4.62004E-006	0.00000E+000	4.62333E-004	-3.27672E+002	7	...........
	500	501	3.71954E+000	-1.24237E-006	0.00000E+000	-4.62105E-006	0.00000E+000	4.59083E-004	-3.27672E+002	7	...........
	501	502	3.71954E+000	-1.24239E-006	0.00000E+000	-4.62110E-006	0.00000E+000	4.58667E-004	-3.27672E+002	7	...........
	502	503	3.71953E+000	-1.24238E-006	0.00000E+000	-4.62108E-006	0.00000E+000	4.61083E-004	-3.27672E+002	7	...........
	503	504	3.71953E+000	-1.24200E-006	0.00000E+000	-4.61966E-006	0.00000E+000	4.59450E-004	-3.27672E+002	7	...........
	504	505	3.71952E+000	-1.24195E-006	0.00000E+000	-4.61948E-006	0.00000E+000	4.59417E-004	-3.27672E+002	7	...........
	505	506	3.71952E+000	-1.24173E-006	0.00000E+000	-4.61865E-006	0.00000E+000	4.60200E-004	-3.27672E+002	7	...........
	506	507	3.71952E+000	-1.24245E-006	0.00000E+000	-4.62130E-006	0.00000E+000	4.59017E-004	-3.27672E+002	7	...........
	507	508	3.71952E+000	-1.24222E-006	0.00000E+000	-4.62045E-006	0.00000E+000	4.61133E-004	-3.27672E+002	7	...........
	508	509	3.71950E+000	-1.24294E-006	0.00000E+000	-4.62311E-006	0.00000E+000	4.62533E-004	-3.27672E+002	7	...........
	509	510	3.71950E+000	-1.24285E-006	0.00000E+000	-4.62280E-006	0.00000E+000	4.63900E-004	-3.27672E+002	7	...........
	510	511	3.71951E+000	-1.24172E-006	0.00000E+000	-4.61859E-006	0.00000E+000	4.59050E-004	-3.27672E+002	7	...........
	511	512	3.71950E+000	-1.24157E-006	0.00000E+000	-4.61801E-006	0.00000E+000	4.60917E-004	-3.27672E+002	7	...........
	512	513	3.71949E+000	-1.24206E-006	0.00000E+000	-4.61981E-006	0.00000E+000	4.60417E-004	-3.27672E+002	7	...........
	513	514	3.71949E+000	-1.24242E-006	0.00000E+000	-4.62119E-006	0.00000E+000	4.60083E-004	-3.27672E+002	7	...........
	514	515	3.71948E+000	-1.24219E-006	0.00000E+000	-4.62029E-006	0.00000E+000	4.60900E-004	-3.27672E+002	7	...........
	515	516	3.71947E+000	-1.24234E-006	0.00000E+000	-4.62083E-006	0.00000E+000	4.61200E-004	-3.27672E+002	7	...........
	516	517	3.71947E+000	-1.24277E-006	0.00000E+000	-4.62244E-006	0.00000E+000	4.59500E-004	-3.27672E+002	7	...........
	517	518	3.71948E+000	-1.24209E-006	0.00000E+000	-4.61994E-006	0.00000E+000	4.62133E-004	-3.27672E+002	7	...........
	518	519	3.71946E+000	-1.24178E-006	0.00000E+000	-4.61874E-006	0.00000E+000	4.58717E-004	-3.27672E+002	7	...........
	519	520	3.71946E+000	-1.24199E-006	0.00000E+000	-4.61952E-006	0.00000E+000	4.60383E-004	-3.27672E+002	7	...........
	520	521	3.71945E+000	-1.24169E-006	0.00000E+000	-4.61839E-006	0.00000E+000	4.63000E-004	-3.27672E+002	7	...........
	521	522	3.71945E+000	-1.24213E-006	0.00000E+000	-4.62004E-006	0.00000E+000	4.62517E-004	-3.27672E+002	7	...........
	522	523	3.71944E+000	-1.24239E-006	0.00000E+000	-4.62099E-006	0.00000E+000	4.62450E-004	-3.27672E+002	7	...........
	523	524	3.71944E+000	-1.24310E-006	0.00000E+000	-4.62365E-006	0.00000E+000	4.60700E-004	-3.27672E+002	7	...........
	524	525	3.71944E+000	-1.24339E-006	0.00000E+000	-4.62473E-006	0.00000E+000	4.63667E-004	-3.27672E+002	7	...........
	525	526	3.71943E+000	-1.24248E-006	0.00000E+000	-4.62133E-006	0.00000E+000	4.65767E-004	-3.27672E+002	7	...........
	526	527	3.71942E+000	-1.24284E-006	0.00000E+000	-4.62266E-006	0.00000E+000	4.62033E-004	-3.27672E+002	7	...........
	527	528	3.71941E+000	-1.24312E-006	0.00000E+000	-4.62368E-006	0.00000E+000	4.61500E-004	-3.27672E+002	7	...........
	528	529	3.71942E+000	-1.24210E-006	0.00000E+000	-4.61989E-006	0.00000E+000	4.63817E-004	-3.27672E+002	7	...........
	529	530	3.71942E+000	-1.24213E-006	0.00000E+000	-4.61999E-006	0.00000E+000	4.63633E-004	-3.27672E+002	7	...........
	530	531	3.71941E+000	-1.24154E-006	0.00000E+000	-4.61780E-006	0.00000E+000	4.62083E-004	-3.27672E+002	7	...........
	531	532	3.71941E+000	-1.24126E-006	0.00000E+000	-4.61676E-006	0.00000E+000	4.65717E-004	-3.27672E+002	7	...........
	532	533	3.71940E+000	-1.24245E-006	0.00000E+000	-4.62116E-006	0.00000E+000	4.64533E-004	-3.27672E+002	7	...........
	533	534	3.71940E+000	-1.24221E-006	0.00000E+000	-4.62027E-006	0.00000E+000	4.60683E-004	-3.27672E+002	7	...........
	534	535	3.71940E+000	-1.24239E-006	0.00000E+000	-4.62093E-006	0.00000E+000	4.61650E-004	-3.27672E+002	7	...........
	535	536	3.71939E+000	-1.24211E-006	0.00000E+000	-4.61990E-006	0.00000E+000	4.60633E-004	-3.27672E+002	7	...........
	536	537	3.71938E+000	-1.24233E-006	0.00000E+000	-4.62070E-006	0.00000E+000	4.62767E-004	-3.27672E+002	7	...........
	537	538	3.71939E+000	-1.24174E-006	0.00000E+000	-4.61853E-006	0.00000E+000	4.64533E-004	-3.27672E+002	7	...........
	538	539	3.71939E+000	-1.24200E-006	0.00000E+000	-4.61949E-006	0.00000E+000	4.62717E-004	-3.27672E+002	7	...........
	539	540	3.71938E+000	-1.24296E-006	0.00000E+000	-4.62303E-006	0.00000E+000	4.63567E-004	-3.27672E+002	7	...........
	540	541	3.71937E+000	-1.24319E-006	0.00000E+000	-4.62390E-006	0.00000E+000	4.65333E-004	-3.27672E+002	7	...........
	541	542	3.71936E+000	-1.24262E-006	0.00000E+000	-4.62175E-006	0.00000E+000	4.60483E-004	-3.27672E+002	7	...........
	542	543	3.71937E+000	-1.24309E-006	0.00000E+000	-4.62351E-006	0.00000E+000	4.65033E-004	-3.27672E+002	7	...........
	543	544	3.71936E+000	-1.24277E-006	0.00000E+000	-4.62230E-006	0.00000E+000	4.62783E-004	-3.27672E+002	7	...........
	544	545	3.71936E+000	-1.24264E-006	0.00000E+000	-4.62184E-006	0.00000E+000	4.67150E-004	-3.27672E+002	7	...........
	545	546	3.71935E+000	-1.24235E-006	0.00000E+000	-4.62073E-006	0.00000E+000	4.63950E-004	-3.27672E+002	7	...........
	546	547	3.71935E+000	-1.24361E-006	0.00000E+000	-4.62542E-006	0.00000E+000	4.60567E-004	-3.27672E+002	7	...........
	547	548	3.71934E+000	-1.24230E-006	0.00000E+000	-4.62056E-006	0.00000E+000	4.60783E-004	-3.27672E+002	7	...........
	548	549	3.71934E+000	-1.24172E-006	0.00000E+000	-4.61839E-006	0.00000E+000	4.61667E-004	-3.27672E+002	7	...........
	549	550	3.71933E+000	-1.24138E-006	0.00000E+000	-4.61712E-006	0.00000E+000	4.62433E-004	-3.27672E+002	7	...........
	550	551	3.71932E+000	-1.24258E-006	0.00000E+000	-4.62155E-006	0.00000E+000	4.63733E-004	-3.27672E+002	7	...........
	551	552	3.71933E+000	-1.24322E-006	0.00000E+000	-4.62394E-006	0.00000E+000	4.61717E-004	-3.27672E+002	7	...........
	552	553	3.71932E+000	-1.24215E-006	0.00000E+000	-4.61997E-006	0.00000E+000	4.63050E-004	-3.27672E+002	7	...........
	553	554	3.71931E+000	-1.24186E-006	0.00000E+000	-4.61886E-006	0.00000E+000	4.62317E-004	-3.27672E+002	7	...........
	554	555	3.71931E+000	-1.24195E-006	0.00000E+000	-4.61918E-006	0.00000E+000	4.60017E-004	-3.27672E+002	7	...........
	555	556	3.71931E+000	-1.24232E-006	0.00000E+000	-4.62056E-006	0.00000E+000	4.61567E-004	-3.27672E+002	7	...........
	556	557	3.71930E+000	-1.24200E-006	0.00000E+000	-4.61937E-006	0.00000E+000	4.61433E-004	-3.27672E+002	7	...........
	557	558	3.71930E+000	-1.24194E-006	0.00000E+000	-4.61915E-006	0.00000E+000	4.62050E-004	-3.27672E+002	7	...........
	558	559	3.71930E+000	-1.24246E-006	0.00000E+000	-4.62109E-006	0.00000E+000	4.61850E-004	-3.27672E+002	7	...........
	559	560	3.71929E+000	-1.24269E-006	0.00000E+000	-4.62193E-006	0.00000E+000	4.62133E-004	-3.27672E+002	7	...........
	560	561	3.71928E+000	-1.24230E-006	0.00000E+000	-4.62046E-006	0.00000E+000	4.60600E-004	-3.27672E+002	7	...........
	561	562	3.71928E+000	-1.24193E-006	0.00000E+000	-4.61908E-006	0.00000E+000	4.67133E-004	-3.27672E+002	7	...........
	562	563	3.71928E+000	-1.24334E-006	0.00000E+000	-4.62431E-006	0.00000E+000	4.62433E-004	-3.27672E+002	7	...........
	563	564	3.71927E+000	-1.24315E-006	0.00000E+000	-4.62361E-006	0.00000E+000	4.61733E-004	-3.27672E+002	7	...........
	564	565	3.71928E+000	-1.24274E-006	0.00000E+000	-4.62209E-006	0.00000E+000	4.62317E-004	-3.27672E+002	7	...........
	565	566	3.71927E+000	-1.24201E-006	0.00000E+000	-4.61938E-006	0.00000E+000	4.64250E-004	-3.27672E+002	7	...........
	566	567	3.71927E+000	-1.24093E-006	0.00000E+000	-4.61535E-006	0.00000E+000	4.62367E-004	-3.27672E+002	7	...........
	567	568	3.71925E+000	-1.24164E-006	0.00000E+000	-4.61799E-006	0.00000E+000	4.61633E-004	-3.27672E+002	7	...........
	568	569	3.71925E+000	-1.24322E-006	0.00000E+000	-4.62385E-006	0.00000E+000	4.58683E-004	-3.27672E+002	7	...........
	569	570	3.71925E+000	-1.24204E-006	0.00000E+000	-4.61944E-006	0.00000E+000	4.61533E-004	-3.27672E+002	7	...........
	570	571	3.71925E+000	-1.24287E-006	0.00000E+000	-4.62254E-006	0.00000E+000	4.64550E-004	-3.27672E+002	7	...........
	571	572	3.71924E+000	-1.24253E-006	0.00000E+000	-4.62125E-006	0.00000E+000	4.65667E-004	-3.27672E+002	7	...........
	572	573	3.71923E+000	-1.24168E-006	0.00000E+000	-4.61811E-006	0.00000E+000	4.61267E-004	-3.27672E+002	7	...........
	573	574	3.71923E+000	-1.24221E-006	0.00000E+000	-4.62004E-006	0.00000E+000	4.65950E-004	-3.27672E+002	7	...........
	574	575	3.71923E+000	-1.24244E-006	0.00000E+000	-4.62092E-006	0.00000E+000	4.62133E-004	-3.27672E+002	7	...........
	575	576	3.71922E+000	-1.24205E-006	0.00000E+000	-4.61946E-006	0.00000E+000	4.63733E-004	-3.27672E+002	7	...........
	576	577	3.71921E+000	-1.24194E-006	0.00000E+000	-4.61903E-006	0.00000E+000	4.63883E-004	-3.27672E+002	7	...........
	577	578	3.71921E+000	-1.24203E-006	0.00000E+000	-4.61937E-006	0.00000E+000	4.62483E-004	-3.27672E+002	7	...........
	578	579	3.71920E+000	-1.24199E-006	0.00000E+000	-4.61920E-006	0.00000E+000	4.62750E-004	-3.27672E+002	7	...........
	579	580	3.71919E+000	-1.24211E-006	0.00000E+000	-4.61965E-006	0.00000E+000	4.61933E-004	-3.27672E+002	7	...........
	580	581	3.71920E+000	-1.24283E-006	0.00000E+000	-4.62233E-006	0.00000E+000	4.59350E-004	-3.27672E+002	7	...........
	581	582	3.71919E+000	-1.24246E-006	0.00000E+000	-4.62095E-006	0.00000E+000	4.62517E-004	-3.27672E+002	7	...........
	582	583	3.71918E+000	-1.24227E-006	0.00000E+000	-4.62024E-006	0.00000E+000	4.65767E-004	-3.27672E+002	7	...........
	583	584	3.71919E+000	-1.24166E-006	0.00000E+000	-4.61797E-006	0.00000E+000	4.60433E-004	-3.27672E+002	7	...........
	584	585	3.71917E+000	-1.24047E-006	0.00000E+000	-4.61350E-006	0.00000E+000	4.62750E-004	-3.27672E+002	7	...........
	585	586	3.71917E+000	-1.24124E-006	0.00000E+000	-4.61640E-006	0.00000E+000	4.61183E-004	-3.27672E+002	7	...........
	586	587	3.71917E+000	-1.24228E-006	0.00000E+000	-4.62026E-006	0.00000E+000	4.61983E-004	-3.27672E+002	7	...........
	587	588	3.71916E+000	-1.24211E-006	0.00000E+000	-4.61958E-006	0.00000E+000	4.64433E-004	-3.27672E+002	7	...........
	588	589	3.71916E+000	-1.24295E-006	0.00000E+000	-4.62273E-006	0.00000E+000	4.63017E-004	-3.27672E+002	7	...........
	589	590	3.71916E+000	-1.24270E-006	0.00000E+000	-4.62181E-006	0.00000E+000	4.62700E-004	-3.27672E+002	7	...........
	590	591	3.71915E+000	-1.24232E-006	0.00000E+000	-4.62039E-006	0.00000E+000	4.61467E-004	-3.27672E+002	7	...........
	591	592	3.71916E+000	-1.24185E-006	0.00000E+000	-4.61865E-006	0.00000E+000	4.60033E-004	-3.27672E+002	7	...........
	592	593	3.71915E+000	-1.24189E-006	0.00000E+000	-4.61875E-006	0.00000E+000	4.60717E-004	-3.27672E+002	7	...........
	593	594	3.71914E+000	-1.24195E-006	0.00000E+000	-4.61900E-006	0.00000E+000	4.63167E-004	-3.27672E+002	7	...........
	594	595	3.71913E+000	-1.24180E-006	0.00000E+000	-4.61840E-006	0.00000E+000	4.64667E-004	-3.27672E+002	7	...........
	595	596	3.71913E+000	-1.24260E-006	0.00000E+000	-4.62140E-006	0.00000E+000	4.60717E-004	-3.27672E+002	7	...........
	596	597	3.71912E+000	-1.24231E-006	0.00000E+000	-4.62030E-006	0.00000E+000	4.60817E-004	-3.27672E+002	7	...........
	597	598	3.71911E+000	-1.24177E-006	0.00000E+000	-4.61827E-006	0.00000E+000	4.63817E-004	-3.27672E+002	7	...........
	598	599	3.71911E+000	-1.24250E-006	0.00000E+000	-4.62100E-006	0.00000E+000	4.61167E-004	-3.27672E+002	7	...........
	599	600	3.71911E+000	-1.24192E-006	0.00000E+000	-4.61884E-006	0.00000E+000	4.61217E-004	-3.27672E+002	7	...........
