EXPLAIN
TAG	PWR800_READVOLTAGE
TITLE	LABEL	PWR Read Voltage	Test Identifier
DATE	LABEL	7.2.2024	Date
TIME	LABEL	15:20:02	Time
NOTES	NOTES	1	Notes...
	
PSTAT	PSTAT	REF600-12055	Potentiostat
CAPACITY	QUANT	1.00000E+000	Capacity (A-hr)
CELLTYPE	SELECTOR	1	Cell Type
WORKINGCONNECTION	SELECTOR	0	Working Connection
MAXTIME	VARIABLEANDUNITS	6.00000E+002	s	6.00000E+002	second(s)	Max Time
SAMPLETIME	QUANT	1.00000E+000	Sample Period (s)
STOPAT1	MULTIPARAM	0	0.00000E+000	Stop At 1	None	N/A
STOPAT2	MULTIPARAM	0	0.00000E+000	Stop At 2	None	N/A
AESBHCSELECTOR	TOGGLE	F	Save Both Half Cells
EOC	QUANT	3.179316	Open Circuit (V)
SEQUENCER	TOGGLE	TRUE	Run as Sequence
PSTATMODEL	IQUANT	4	Pstat Model
PSTATSECTION	LABEL	REF600-12055	Pstat Section
PSTATSERIALNO	LABEL	12055	Pstat Serial Number
CTRLMODE	IQUANT	0	Control Mode
ELECTROMETER	IQUANT	0	RE=0 or CS=1
IESTAB	IQUANT	0	I/E Stability
CASPEED	IQUANT	4	Control Amp Speed
CONVENTION	IQUANT	1	Current Convention
ICHRANGE	IQUANT	2	Ich Range
ICHRANGEMODE	TOGGLE	T	Ich Auto Range
ICHOFFSETENABLE	TOGGLE	F	Ich Offset Enable
ICHOFFSET	QUANT	0	Ich Offset (V)
ICHFILTER	IQUANT	1	Ich Filter
VCHRANGE	IQUANT	3	Vch Range
VCHRANGEMODE	TOGGLE	T	Vch Auto Range
VCHOFFSETENABLE	TOGGLE	F	Vch Offset Enable
VCHOFFSET	QUANT	0	Vch Offset (V)
VCHFILTER	IQUANT	1	Vch Filter
ACHRANGE	IQUANT	2	Ach Range
ACHOFFSETENABLE	TOGGLE	F	Ach Offset Enable
ACHOFFSET	QUANT	0	Ach Offset (V)
ACHFILTER	IQUANT	1	Ach Filter
IERANGELOWERLIMIT	IQUANT	7	I/E Range Lower Limit
IERANGEMODE	TOGGLE	F	I/E AutoRange
IERANGE	IQUANT	11	I/E Range
POSFEEDENABLE	TOGGLE	F	Positive Feedback IR Comp
POSFEEDRESISTANCE	QUANT	0	Positive Feedback Resistance (ohm)
ACHSELECT	IQUANT	4	Ach Select
SENSECABLEID	IQUANT	14	Sense Cable ID
PWRCABLEID	IQUANT	14	Power Cable ID
DCCALDATE	LABEL		DC Calibration Date
ACCALDATE	LABEL		AC Calibration Date
THERMOSELECT	IQUANT	1	Thermo Select
FRAMEWORKVERSION	LABEL	7.10.3	Framework Version
INSTRUMENTVERSION	LABEL	4.91	Instrument Version
COMMVERSION	LABEL	2.24	Communications Version
CPUPLDVERSION	LABEL	0.00	CPU PLD Version
CTRLPLDVERSION	LABEL	0.00	CTRL PLD Version
PSTATPLDVERSION	LABEL	0.00	PSTAT PLD Version
CURVE	TABLE	600
	Pt	T	Vf	Im	Vu	Pwr	Sig	Ach	Temp	IERange	Over
	#	s	V	A	V	W	V	V	deg C	#	bits
	0	1	3.40973E+000	-1.72893E-007	0.00000E+000	-5.89519E-007	0.00000E+000	7.09550E-004	-3.27672E+002	7	...........
	1	2	3.40946E+000	-1.70767E-007	0.00000E+000	-5.82224E-007	0.00000E+000	7.09150E-004	-3.27672E+002	7	...........
	2	3	3.40925E+000	-1.70629E-007	0.00000E+000	-5.81718E-007	0.00000E+000	7.10900E-004	-3.27672E+002	7	...........
	3	4	3.40909E+000	-1.71225E-007	0.00000E+000	-5.83722E-007	0.00000E+000	7.14033E-004	-3.27672E+002	7	...........
	4	5	3.40893E+000	-1.70326E-007	0.00000E+000	-5.80627E-007	0.00000E+000	7.14700E-004	-3.27672E+002	7	...........
	5	6	3.40878E+000	-1.71192E-007	0.00000E+000	-5.83558E-007	0.00000E+000	7.17733E-004	-3.27672E+002	7	...........
	6	7	3.40866E+000	-1.70501E-007	0.00000E+000	-5.81179E-007	0.00000E+000	7.18000E-004	-3.27672E+002	7	...........
	7	8	3.40854E+000	-1.69615E-007	0.00000E+000	-5.78141E-007	0.00000E+000	7.17883E-004	-3.27672E+002	7	...........
	8	9	3.40844E+000	-1.70634E-007	0.00000E+000	-5.81595E-007	0.00000E+000	7.19900E-004	-3.27672E+002	7	...........
	9	10	3.40834E+000	-1.70780E-007	0.00000E+000	-5.82078E-007	0.00000E+000	7.17750E-004	-3.27672E+002	7	...........
	10	11	3.40825E+000	-1.69761E-007	0.00000E+000	-5.78587E-007	0.00000E+000	7.19933E-004	-3.27672E+002	7	...........
	11	12	3.40814E+000	-1.70207E-007	0.00000E+000	-5.80091E-007	0.00000E+000	7.19833E-004	-3.27672E+002	7	...........
	12	13	3.40805E+000	-1.70221E-007	0.00000E+000	-5.80122E-007	0.00000E+000	7.19933E-004	-3.27672E+002	7	...........
	13	14	3.40795E+000	-1.69413E-007	0.00000E+000	-5.77352E-007	0.00000E+000	7.17283E-004	-3.27672E+002	7	...........
	14	15	3.40787E+000	-1.69986E-007	0.00000E+000	-5.79289E-007	0.00000E+000	7.17517E-004	-3.27672E+002	7	...........
	15	16	3.40778E+000	-1.69491E-007	0.00000E+000	-5.77587E-007	0.00000E+000	7.18100E-004	-3.27672E+002	7	...........
	16	17	3.40769E+000	-1.70063E-007	0.00000E+000	-5.79521E-007	0.00000E+000	7.16833E-004	-3.27672E+002	7	...........
	17	18	3.40761E+000	-1.69327E-007	0.00000E+000	-5.77001E-007	0.00000E+000	7.17217E-004	-3.27672E+002	7	...........
	18	19	3.40754E+000	-1.70139E-007	0.00000E+000	-5.79755E-007	0.00000E+000	7.14617E-004	-3.27672E+002	7	...........
	19	20	3.40746E+000	-1.69353E-007	0.00000E+000	-5.77064E-007	0.00000E+000	7.19867E-004	-3.27672E+002	7	...........
	20	21	3.40738E+000	-1.69394E-007	0.00000E+000	-5.77190E-007	0.00000E+000	5.03183E-004	-3.27672E+002	7	...........
	21	22	3.40731E+000	-1.68843E-007	0.00000E+000	-5.75300E-007	0.00000E+000	4.02900E-004	-3.27672E+002	7	...........
	22	23	3.40723E+000	-1.68010E-007	0.00000E+000	-5.72449E-007	0.00000E+000	4.02883E-004	-3.27672E+002	7	...........
	23	24	3.40717E+000	-1.69874E-007	0.00000E+000	-5.78791E-007	0.00000E+000	4.04833E-004	-3.27672E+002	7	...........
	24	25	3.40710E+000	-1.70042E-007	0.00000E+000	-5.79351E-007	0.00000E+000	4.02750E-004	-3.27672E+002	7	...........
	25	26	3.40704E+000	-1.68345E-007	0.00000E+000	-5.73557E-007	0.00000E+000	4.05017E-004	-3.27672E+002	7	...........
	26	27	3.40698E+000	-1.68607E-007	0.00000E+000	-5.74440E-007	0.00000E+000	4.02933E-004	-3.27672E+002	7	...........
	27	28	3.40693E+000	-1.68882E-007	0.00000E+000	-5.75367E-007	0.00000E+000	4.03067E-004	-3.27672E+002	7	...........
	28	29	3.40687E+000	-1.68663E-007	0.00000E+000	-5.74612E-007	0.00000E+000	4.03967E-004	-3.27672E+002	7	...........
	29	30	3.40681E+000	-1.68539E-007	0.00000E+000	-5.74181E-007	0.00000E+000	4.06300E-004	-3.27672E+002	7	...........
	30	31	3.40677E+000	-1.67634E-007	0.00000E+000	-5.71089E-007	0.00000E+000	4.04650E-004	-3.27672E+002	7	...........
	31	32	3.40672E+000	-1.68688E-007	0.00000E+000	-5.74673E-007	0.00000E+000	4.05583E-004	-3.27672E+002	7	...........
	32	33	3.40667E+000	-1.67962E-007	0.00000E+000	-5.72192E-007	0.00000E+000	4.04367E-004	-3.27672E+002	7	...........
	33	34	3.40663E+000	-1.68570E-007	0.00000E+000	-5.74257E-007	0.00000E+000	4.09350E-004	-3.27672E+002	7	...........
	34	35	3.40657E+000	-1.68198E-007	0.00000E+000	-5.72978E-007	0.00000E+000	4.09950E-004	-3.27672E+002	7	...........
	35	36	3.40652E+000	-1.68829E-007	0.00000E+000	-5.75119E-007	0.00000E+000	4.12950E-004	-3.27672E+002	7	...........
	36	37	3.40647E+000	-1.68700E-007	0.00000E+000	-5.74673E-007	0.00000E+000	4.12717E-004	-3.27672E+002	7	...........
	37	38	3.40642E+000	-1.68890E-007	0.00000E+000	-5.75311E-007	0.00000E+000	4.16133E-004	-3.27672E+002	7	...........
	38	39	3.40636E+000	-1.67828E-007	0.00000E+000	-5.71684E-007	0.00000E+000	4.18300E-004	-3.27672E+002	7	...........
	39	40	3.40631E+000	-1.67822E-007	0.00000E+000	-5.71654E-007	0.00000E+000	4.16217E-004	-3.27672E+002	7	...........
	40	41	3.40626E+000	-1.66344E-007	0.00000E+000	-5.66610E-007	0.00000E+000	4.18767E-004	-3.27672E+002	7	...........
	41	42	3.40621E+000	-1.68671E-007	0.00000E+000	-5.74530E-007	0.00000E+000	4.20383E-004	-3.27672E+002	7	...........
	42	43	3.40617E+000	-1.68784E-007	0.00000E+000	-5.74906E-007	0.00000E+000	4.20967E-004	-3.27672E+002	7	...........
	43	44	3.40611E+000	-1.67315E-007	0.00000E+000	-5.69892E-007	0.00000E+000	4.25383E-004	-3.27672E+002	7	...........
	44	45	3.40607E+000	-1.67552E-007	0.00000E+000	-5.70693E-007	0.00000E+000	4.21383E-004	-3.27672E+002	7	...........
	45	46	3.40603E+000	-1.67201E-007	0.00000E+000	-5.69492E-007	0.00000E+000	4.25900E-004	-3.27672E+002	7	...........
	46	47	3.40599E+000	-1.67145E-007	0.00000E+000	-5.69293E-007	0.00000E+000	4.25817E-004	-3.27672E+002	7	...........
	47	48	3.40594E+000	-1.67601E-007	0.00000E+000	-5.70840E-007	0.00000E+000	4.22767E-004	-3.27672E+002	7	...........
	48	49	3.40590E+000	-1.67197E-007	0.00000E+000	-5.69457E-007	0.00000E+000	4.21067E-004	-3.27672E+002	7	...........
	49	50	3.40586E+000	-1.67191E-007	0.00000E+000	-5.69430E-007	0.00000E+000	4.26567E-004	-3.27672E+002	7	...........
	50	51	3.40583E+000	-1.66357E-007	0.00000E+000	-5.66582E-007	0.00000E+000	4.25700E-004	-3.27672E+002	7	...........
	51	52	3.40578E+000	-1.66578E-007	0.00000E+000	-5.67326E-007	0.00000E+000	4.30333E-004	-3.27672E+002	7	...........
	52	53	3.40574E+000	-1.67284E-007	0.00000E+000	-5.69725E-007	0.00000E+000	4.27233E-004	-3.27672E+002	7	...........
	53	54	3.40570E+000	-1.67517E-007	0.00000E+000	-5.70512E-007	0.00000E+000	4.27950E-004	-3.27672E+002	7	...........
	54	55	3.40565E+000	-1.67297E-007	0.00000E+000	-5.69755E-007	0.00000E+000	4.31483E-004	-3.27672E+002	7	...........
	55	56	3.40561E+000	-1.66717E-007	0.00000E+000	-5.67773E-007	0.00000E+000	4.28783E-004	-3.27672E+002	7	...........
	56	57	3.40556E+000	-1.66538E-007	0.00000E+000	-5.67156E-007	0.00000E+000	4.29283E-004	-3.27672E+002	7	...........
	57	58	3.40552E+000	-1.65519E-007	0.00000E+000	-5.63678E-007	0.00000E+000	4.26883E-004	-3.27672E+002	7	...........
	58	59	3.40547E+000	-1.65811E-007	0.00000E+000	-5.64665E-007	0.00000E+000	4.27750E-004	-3.27672E+002	7	...........
	59	60	3.40542E+000	-1.65633E-007	0.00000E+000	-5.64051E-007	0.00000E+000	4.24833E-004	-3.27672E+002	7	...........
	60	61	3.40538E+000	-1.65979E-007	0.00000E+000	-5.65221E-007	0.00000E+000	4.24817E-004	-3.27672E+002	7	...........
	61	62	3.40534E+000	-1.65742E-007	0.00000E+000	-5.64406E-007	0.00000E+000	4.24267E-004	-3.27672E+002	7	...........
	62	63	3.40529E+000	-1.66043E-007	0.00000E+000	-5.65427E-007	0.00000E+000	4.23650E-004	-3.27672E+002	7	...........
	63	64	3.40526E+000	-1.65580E-007	0.00000E+000	-5.63842E-007	0.00000E+000	4.22167E-004	-3.27672E+002	7	...........
	64	65	3.40521E+000	-1.65003E-007	0.00000E+000	-5.61869E-007	0.00000E+000	4.21283E-004	-3.27672E+002	7	...........
	65	66	3.40517E+000	-1.65870E-007	0.00000E+000	-5.64817E-007	0.00000E+000	4.18167E-004	-3.27672E+002	7	...........
	66	67	3.40514E+000	-1.65688E-007	0.00000E+000	-5.64190E-007	0.00000E+000	4.16867E-004	-3.27672E+002	7	...........
	67	68	3.40511E+000	-1.65537E-007	0.00000E+000	-5.63672E-007	0.00000E+000	4.16533E-004	-3.27672E+002	7	...........
	68	69	3.40505E+000	-1.65098E-007	0.00000E+000	-5.62168E-007	0.00000E+000	4.15650E-004	-3.27672E+002	7	...........
	69	70	3.40504E+000	-1.65154E-007	0.00000E+000	-5.62355E-007	0.00000E+000	4.15717E-004	-3.27672E+002	7	...........
	70	71	3.40500E+000	-1.65134E-007	0.00000E+000	-5.62282E-007	0.00000E+000	4.13083E-004	-3.27672E+002	7	...........
	71	72	3.40495E+000	-1.65644E-007	0.00000E+000	-5.64011E-007	0.00000E+000	4.11950E-004	-3.27672E+002	7	...........
	72	73	3.40493E+000	-1.65524E-007	0.00000E+000	-5.63597E-007	0.00000E+000	4.12383E-004	-3.27672E+002	7	...........
	73	74	3.40490E+000	-1.65142E-007	0.00000E+000	-5.62292E-007	0.00000E+000	4.13800E-004	-3.27672E+002	7	...........
	74	75	3.40487E+000	-1.64784E-007	0.00000E+000	-5.61070E-007	0.00000E+000	4.10800E-004	-3.27672E+002	7	...........
	75	76	3.40485E+000	-1.63803E-007	0.00000E+000	-5.57724E-007	0.00000E+000	4.12833E-004	-3.27672E+002	7	...........
	76	77	3.40482E+000	-1.64390E-007	0.00000E+000	-5.59719E-007	0.00000E+000	4.10083E-004	-3.27672E+002	7	...........
	77	78	3.40480E+000	-1.64274E-007	0.00000E+000	-5.59319E-007	0.00000E+000	4.09250E-004	-3.27672E+002	7	...........
	78	79	3.40478E+000	-1.64109E-007	0.00000E+000	-5.58754E-007	0.00000E+000	4.07750E-004	-3.27672E+002	7	...........
	79	80	3.40475E+000	-1.63621E-007	0.00000E+000	-5.57087E-007	0.00000E+000	4.07417E-004	-3.27672E+002	7	...........
	80	81	3.40471E+000	-1.63523E-007	0.00000E+000	-5.56749E-007	0.00000E+000	4.10650E-004	-3.27672E+002	7	...........
	81	82	3.40469E+000	-1.63061E-007	0.00000E+000	-5.55174E-007	0.00000E+000	4.08000E-004	-3.27672E+002	7	...........
	82	83	3.40467E+000	-1.62884E-007	0.00000E+000	-5.54566E-007	0.00000E+000	4.06100E-004	-3.27672E+002	7	...........
	83	84	3.40465E+000	-1.62998E-007	0.00000E+000	-5.54949E-007	0.00000E+000	4.09000E-004	-3.27672E+002	7	...........
	84	85	3.40462E+000	-1.63172E-007	0.00000E+000	-5.55538E-007	0.00000E+000	4.07550E-004	-3.27672E+002	7	...........
	85	86	3.40460E+000	-1.63882E-007	0.00000E+000	-5.57953E-007	0.00000E+000	4.05817E-004	-3.27672E+002	7	...........
	86	87	3.40458E+000	-1.63177E-007	0.00000E+000	-5.55548E-007	0.00000E+000	4.05550E-004	-3.27672E+002	7	...........
	87	88	3.40456E+000	-1.64364E-007	0.00000E+000	-5.59587E-007	0.00000E+000	4.04900E-004	-3.27672E+002	7	...........
	88	89	3.40454E+000	-1.64113E-007	0.00000E+000	-5.58730E-007	0.00000E+000	4.03550E-004	-3.27672E+002	7	...........
	89	90	3.40452E+000	-1.63515E-007	0.00000E+000	-5.56690E-007	0.00000E+000	4.05917E-004	-3.27672E+002	7	...........
	90	91	3.40450E+000	-1.62211E-007	0.00000E+000	-5.52249E-007	0.00000E+000	4.01833E-004	-3.27672E+002	7	...........
	91	92	3.40449E+000	-1.61798E-007	0.00000E+000	-5.50839E-007	0.00000E+000	4.00833E-004	-3.27672E+002	7	...........
	92	93	3.40446E+000	-1.62216E-007	0.00000E+000	-5.52259E-007	0.00000E+000	3.99867E-004	-3.27672E+002	7	...........
	93	94	3.40445E+000	-1.61260E-007	0.00000E+000	-5.49002E-007	0.00000E+000	4.01050E-004	-3.27672E+002	7	...........
	94	95	3.40443E+000	-1.61129E-007	0.00000E+000	-5.48552E-007	0.00000E+000	4.05083E-004	-3.27672E+002	7	...........
	95	96	3.40442E+000	-1.62572E-007	0.00000E+000	-5.53463E-007	0.00000E+000	4.02183E-004	-3.27672E+002	7	...........
	96	97	3.40439E+000	-1.62740E-007	0.00000E+000	-5.54029E-007	0.00000E+000	4.02067E-004	-3.27672E+002	7	...........
	97	98	3.40438E+000	-1.62572E-007	0.00000E+000	-5.53456E-007	0.00000E+000	4.02783E-004	-3.27672E+002	7	...........
	98	99	3.40436E+000	-1.61346E-007	0.00000E+000	-5.49281E-007	0.00000E+000	4.05933E-004	-3.27672E+002	7	...........
	99	100	3.40434E+000	-1.60971E-007	0.00000E+000	-5.48000E-007	0.00000E+000	4.05867E-004	-3.27672E+002	7	...........
	100	101	3.40432E+000	-1.60732E-007	0.00000E+000	-5.47185E-007	0.00000E+000	4.01683E-004	-3.27672E+002	7	...........
	101	102	3.40430E+000	-1.60793E-007	0.00000E+000	-5.47387E-007	0.00000E+000	4.01867E-004	-3.27672E+002	7	...........
	102	103	3.40430E+000	-1.61737E-007	0.00000E+000	-5.50601E-007	0.00000E+000	4.02767E-004	-3.27672E+002	7	...........
	103	104	3.40427E+000	-1.62400E-007	0.00000E+000	-5.52854E-007	0.00000E+000	4.00217E-004	-3.27672E+002	7	...........
	104	105	3.40425E+000	-1.61965E-007	0.00000E+000	-5.51368E-007	0.00000E+000	4.02717E-004	-3.27672E+002	7	...........
	105	106	3.40424E+000	-1.62481E-007	0.00000E+000	-5.53125E-007	0.00000E+000	4.04767E-004	-3.27672E+002	7	...........
	106	107	3.40422E+000	-1.61853E-007	0.00000E+000	-5.50984E-007	0.00000E+000	4.05650E-004	-3.27672E+002	7	...........
	107	108	3.40420E+000	-1.62185E-007	0.00000E+000	-5.52111E-007	0.00000E+000	4.02450E-004	-3.27672E+002	7	...........
	108	109	3.40418E+000	-1.61681E-007	0.00000E+000	-5.50393E-007	0.00000E+000	4.03333E-004	-3.27672E+002	7	...........
	109	110	3.40417E+000	-1.61807E-007	0.00000E+000	-5.50816E-007	0.00000E+000	4.02750E-004	-3.27672E+002	7	...........
	110	111	3.40415E+000	-1.61230E-007	0.00000E+000	-5.48849E-007	0.00000E+000	3.99383E-004	-3.27672E+002	7	...........
	111	112	3.40413E+000	-1.60532E-007	0.00000E+000	-5.46471E-007	0.00000E+000	4.03317E-004	-3.27672E+002	7	...........
	112	113	3.40411E+000	-1.60345E-007	0.00000E+000	-5.45831E-007	0.00000E+000	4.01567E-004	-3.27672E+002	7	...........
	113	114	3.40409E+000	-1.61904E-007	0.00000E+000	-5.51134E-007	0.00000E+000	4.01950E-004	-3.27672E+002	7	...........
	114	115	3.40407E+000	-1.60565E-007	0.00000E+000	-5.46575E-007	0.00000E+000	4.02517E-004	-3.27672E+002	7	...........
	115	116	3.40405E+000	-1.60464E-007	0.00000E+000	-5.46230E-007	0.00000E+000	4.02100E-004	-3.27672E+002	7	...........
	116	117	3.40403E+000	-1.61024E-007	0.00000E+000	-5.48130E-007	0.00000E+000	4.02817E-004	-3.27672E+002	7	...........
	117	118	3.40401E+000	-1.60334E-007	0.00000E+000	-5.45780E-007	0.00000E+000	4.02283E-004	-3.27672E+002	7	...........
	118	119	3.40399E+000	-1.60117E-007	0.00000E+000	-5.45039E-007	0.00000E+000	4.03833E-004	-3.27672E+002	7	...........
	119	120	3.40398E+000	-1.60006E-007	0.00000E+000	-5.44658E-007	0.00000E+000	4.02967E-004	-3.27672E+002	7	...........
	120	121	3.40395E+000	-1.59775E-007	0.00000E+000	-5.43865E-007	0.00000E+000	4.01050E-004	-3.27672E+002	7	...........
	121	122	3.40394E+000	-1.60670E-007	0.00000E+000	-5.46911E-007	0.00000E+000	3.99550E-004	-3.27672E+002	7	...........
	122	123	3.40392E+000	-1.60198E-007	0.00000E+000	-5.45299E-007	0.00000E+000	4.01350E-004	-3.27672E+002	7	...........
	123	124	3.40390E+000	-1.60714E-007	0.00000E+000	-5.47054E-007	0.00000E+000	4.00983E-004	-3.27672E+002	7	...........
	124	125	3.40389E+000	-1.60607E-007	0.00000E+000	-5.46690E-007	0.00000E+000	4.00700E-004	-3.27672E+002	7	...........
	125	126	3.40387E+000	-1.61284E-007	0.00000E+000	-5.48990E-007	0.00000E+000	4.00033E-004	-3.27672E+002	7	...........
	126	127	3.40386E+000	-1.60979E-007	0.00000E+000	-5.47950E-007	0.00000E+000	4.01533E-004	-3.27672E+002	7	...........
	127	128	3.40384E+000	-1.60516E-007	0.00000E+000	-5.46372E-007	0.00000E+000	3.98633E-004	-3.27672E+002	7	...........
	128	129	3.40382E+000	-1.59582E-007	0.00000E+000	-5.43187E-007	0.00000E+000	4.01050E-004	-3.27672E+002	7	...........
	129	130	3.40381E+000	-1.59380E-007	0.00000E+000	-5.42500E-007	0.00000E+000	3.96600E-004	-3.27672E+002	7	...........
	130	131	3.40380E+000	-1.59900E-007	0.00000E+000	-5.44266E-007	0.00000E+000	3.96833E-004	-3.27672E+002	7	...........
	131	132	3.40378E+000	-1.60541E-007	0.00000E+000	-5.46447E-007	0.00000E+000	3.98683E-004	-3.27672E+002	7	...........
	132	133	3.40376E+000	-1.60308E-007	0.00000E+000	-5.45649E-007	0.00000E+000	3.98067E-004	-3.27672E+002	7	...........
	133	134	3.40374E+000	-1.59371E-007	0.00000E+000	-5.42459E-007	0.00000E+000	3.96850E-004	-3.27672E+002	7	...........
	134	135	3.40373E+000	-1.59692E-007	0.00000E+000	-5.43547E-007	0.00000E+000	3.97633E-004	-3.27672E+002	7	...........
	135	136	3.40371E+000	-1.59437E-007	0.00000E+000	-5.42678E-007	0.00000E+000	3.97267E-004	-3.27672E+002	7	...........
	136	137	3.40370E+000	-1.59304E-007	0.00000E+000	-5.42222E-007	0.00000E+000	3.96833E-004	-3.27672E+002	7	...........
	137	138	3.40369E+000	-1.58889E-007	0.00000E+000	-5.40809E-007	0.00000E+000	3.98733E-004	-3.27672E+002	7	...........
	138	139	3.40367E+000	-1.59875E-007	0.00000E+000	-5.44160E-007	0.00000E+000	3.97083E-004	-3.27672E+002	7	...........
	139	140	3.40365E+000	-1.59829E-007	0.00000E+000	-5.44003E-007	0.00000E+000	3.98100E-004	-3.27672E+002	7	...........
	140	141	3.40364E+000	-1.59072E-007	0.00000E+000	-5.41425E-007	0.00000E+000	3.96850E-004	-3.27672E+002	7	...........
	141	142	3.40362E+000	-1.58751E-007	0.00000E+000	-5.40329E-007	0.00000E+000	4.00517E-004	-3.27672E+002	7	...........
	142	143	3.40361E+000	-1.58968E-007	0.00000E+000	-5.41064E-007	0.00000E+000	3.95383E-004	-3.27672E+002	7	...........
	143	144	3.40360E+000	-1.59245E-007	0.00000E+000	-5.42006E-007	0.00000E+000	3.96450E-004	-3.27672E+002	7	...........
	144	145	3.40358E+000	-1.59547E-007	0.00000E+000	-5.43030E-007	0.00000E+000	3.98617E-004	-3.27672E+002	7	...........
	145	146	3.40357E+000	-1.59595E-007	0.00000E+000	-5.43192E-007	0.00000E+000	3.98000E-004	-3.27672E+002	7	...........
	146	147	3.40356E+000	-1.57914E-007	0.00000E+000	-5.37468E-007	0.00000E+000	3.96767E-004	-3.27672E+002	7	...........
	147	148	3.40354E+000	-1.57765E-007	0.00000E+000	-5.36959E-007	0.00000E+000	3.97800E-004	-3.27672E+002	7	...........
	148	149	3.40353E+000	-1.58024E-007	0.00000E+000	-5.37841E-007	0.00000E+000	3.95650E-004	-3.27672E+002	7	...........
	149	150	3.40352E+000	-1.58425E-007	0.00000E+000	-5.39203E-007	0.00000E+000	3.98133E-004	-3.27672E+002	7	...........
	150	151	3.40351E+000	-1.59032E-007	0.00000E+000	-5.41265E-007	0.00000E+000	3.96117E-004	-3.27672E+002	7	...........
	151	152	3.40350E+000	-1.58520E-007	0.00000E+000	-5.39524E-007	0.00000E+000	3.96100E-004	-3.27672E+002	7	...........
	152	153	3.40348E+000	-1.58463E-007	0.00000E+000	-5.39327E-007	0.00000E+000	3.98383E-004	-3.27672E+002	7	...........
	153	154	3.40347E+000	-1.58208E-007	0.00000E+000	-5.38457E-007	0.00000E+000	3.97217E-004	-3.27672E+002	7	...........
	154	155	3.40346E+000	-1.58041E-007	0.00000E+000	-5.37885E-007	0.00000E+000	3.96317E-004	-3.27672E+002	7	...........
	155	156	3.40345E+000	-1.58242E-007	0.00000E+000	-5.38568E-007	0.00000E+000	3.95333E-004	-3.27672E+002	7	...........
	156	157	3.40342E+000	-1.58071E-007	0.00000E+000	-5.37981E-007	0.00000E+000	3.94683E-004	-3.27672E+002	7	...........
	157	158	3.40341E+000	-1.57752E-007	0.00000E+000	-5.36895E-007	0.00000E+000	3.95917E-004	-3.27672E+002	7	...........
	158	159	3.40340E+000	-1.57755E-007	0.00000E+000	-5.36903E-007	0.00000E+000	3.96233E-004	-3.27672E+002	7	...........
	159	160	3.40339E+000	-1.58229E-007	0.00000E+000	-5.38513E-007	0.00000E+000	3.95917E-004	-3.27672E+002	7	...........
	160	161	3.40338E+000	-1.58103E-007	0.00000E+000	-5.38085E-007	0.00000E+000	3.97400E-004	-3.27672E+002	7	...........
	161	162	3.40336E+000	-1.58225E-007	0.00000E+000	-5.38496E-007	0.00000E+000	3.98067E-004	-3.27672E+002	7	...........
	162	163	3.40334E+000	-1.57762E-007	0.00000E+000	-5.36920E-007	0.00000E+000	3.99933E-004	-3.27672E+002	7	...........
	163	164	3.40333E+000	-1.57710E-007	0.00000E+000	-5.36738E-007	0.00000E+000	3.98833E-004	-3.27672E+002	7	...........
	164	165	3.40332E+000	-1.56399E-007	0.00000E+000	-5.32274E-007	0.00000E+000	3.98517E-004	-3.27672E+002	7	...........
	165	166	3.40329E+000	-1.56988E-007	0.00000E+000	-5.34275E-007	0.00000E+000	4.00367E-004	-3.27672E+002	7	...........
	166	167	3.40328E+000	-1.58344E-007	0.00000E+000	-5.38891E-007	0.00000E+000	3.99017E-004	-3.27672E+002	7	...........
	167	168	3.40327E+000	-1.57465E-007	0.00000E+000	-5.35897E-007	0.00000E+000	3.98600E-004	-3.27672E+002	7	...........
	168	169	3.40326E+000	-1.58127E-007	0.00000E+000	-5.38149E-007	0.00000E+000	3.97850E-004	-3.27672E+002	7	...........
	169	170	3.40324E+000	-1.57196E-007	0.00000E+000	-5.34976E-007	0.00000E+000	4.00550E-004	-3.27672E+002	7	...........
	170	171	3.40322E+000	-1.57128E-007	0.00000E+000	-5.34742E-007	0.00000E+000	3.97617E-004	-3.27672E+002	7	...........
	171	172	3.40321E+000	-1.56810E-007	0.00000E+000	-5.33656E-007	0.00000E+000	3.99283E-004	-3.27672E+002	7	...........
	172	173	3.40320E+000	-1.56435E-007	0.00000E+000	-5.32380E-007	0.00000E+000	4.00633E-004	-3.27672E+002	7	...........
	173	174	3.40318E+000	-1.57389E-007	0.00000E+000	-5.35622E-007	0.00000E+000	4.01750E-004	-3.27672E+002	7	...........
	174	175	3.40317E+000	-1.57316E-007	0.00000E+000	-5.35373E-007	0.00000E+000	4.00800E-004	-3.27672E+002	7	...........
	175	176	3.40316E+000	-1.57848E-007	0.00000E+000	-5.37182E-007	0.00000E+000	4.00417E-004	-3.27672E+002	7	...........
	176	177	3.40315E+000	-1.57385E-007	0.00000E+000	-5.35605E-007	0.00000E+000	3.99150E-004	-3.27672E+002	7	...........
	177	178	3.40313E+000	-1.57992E-007	0.00000E+000	-5.37667E-007	0.00000E+000	4.00317E-004	-3.27672E+002	7	...........
	178	179	3.40312E+000	-1.58253E-007	0.00000E+000	-5.38554E-007	0.00000E+000	4.01267E-004	-3.27672E+002	7	...........
	179	180	3.40310E+000	-1.58247E-007	0.00000E+000	-5.38531E-007	0.00000E+000	3.99550E-004	-3.27672E+002	7	...........
	180	181	3.40308E+000	-1.57864E-007	0.00000E+000	-5.37223E-007	0.00000E+000	4.02633E-004	-3.27672E+002	7	...........
	181	182	3.40308E+000	-1.56727E-007	0.00000E+000	-5.33354E-007	0.00000E+000	4.00450E-004	-3.27672E+002	7	...........
	182	183	3.40307E+000	-1.56835E-007	0.00000E+000	-5.33718E-007	0.00000E+000	3.98733E-004	-3.27672E+002	7	...........
	183	184	3.40306E+000	-1.55374E-007	0.00000E+000	-5.28748E-007	0.00000E+000	4.02067E-004	-3.27672E+002	7	...........
	184	185	3.40304E+000	-1.56199E-007	0.00000E+000	-5.31551E-007	0.00000E+000	4.02217E-004	-3.27672E+002	7	...........
	185	186	3.40302E+000	-1.56822E-007	0.00000E+000	-5.33668E-007	0.00000E+000	4.03417E-004	-3.27672E+002	7	...........
	186	187	3.40301E+000	-1.56227E-007	0.00000E+000	-5.31643E-007	0.00000E+000	4.01850E-004	-3.27672E+002	7	...........
	187	188	3.40300E+000	-1.56902E-007	0.00000E+000	-5.33938E-007	0.00000E+000	4.04283E-004	-3.27672E+002	7	...........
	188	189	3.40299E+000	-1.56782E-007	0.00000E+000	-5.33525E-007	0.00000E+000	4.03367E-004	-3.27672E+002	7	...........
	189	190	3.40297E+000	-1.57137E-007	0.00000E+000	-5.34733E-007	0.00000E+000	4.06200E-004	-3.27672E+002	7	...........
	190	191	3.40295E+000	-1.57338E-007	0.00000E+000	-5.35415E-007	0.00000E+000	4.02450E-004	-3.27672E+002	7	...........
	191	192	3.40294E+000	-1.56564E-007	0.00000E+000	-5.32780E-007	0.00000E+000	4.03883E-004	-3.27672E+002	7	...........
	192	193	3.40294E+000	-1.55846E-007	0.00000E+000	-5.30334E-007	0.00000E+000	4.07833E-004	-3.27672E+002	7	...........
	193	194	3.40291E+000	-1.55284E-007	0.00000E+000	-5.28417E-007	0.00000E+000	4.06350E-004	-3.27672E+002	7	...........
	194	195	3.40290E+000	-1.55943E-007	0.00000E+000	-5.30658E-007	0.00000E+000	4.07367E-004	-3.27672E+002	7	...........
	195	196	3.40288E+000	-1.55708E-007	0.00000E+000	-5.29854E-007	0.00000E+000	4.06917E-004	-3.27672E+002	7	...........
	196	197	3.40287E+000	-1.56438E-007	0.00000E+000	-5.32340E-007	0.00000E+000	4.07000E-004	-3.27672E+002	7	...........
	197	198	3.40286E+000	-1.56410E-007	0.00000E+000	-5.32241E-007	0.00000E+000	4.05250E-004	-3.27672E+002	7	...........
	198	199	3.40285E+000	-1.55817E-007	0.00000E+000	-5.30221E-007	0.00000E+000	4.07283E-004	-3.27672E+002	7	...........
	199	200	3.40284E+000	-1.54430E-007	0.00000E+000	-5.25501E-007	0.00000E+000	4.07917E-004	-3.27672E+002	7	...........
	200	201	3.40282E+000	-1.54973E-007	0.00000E+000	-5.27344E-007	0.00000E+000	4.09517E-004	-3.27672E+002	7	...........
	201	202	3.40281E+000	-1.54969E-007	0.00000E+000	-5.27329E-007	0.00000E+000	4.10017E-004	-3.27672E+002	7	...........
	202	203	3.40280E+000	-1.56367E-007	0.00000E+000	-5.32087E-007	0.00000E+000	4.11550E-004	-3.27672E+002	7	...........
	203	204	3.40278E+000	-1.55707E-007	0.00000E+000	-5.29835E-007	0.00000E+000	4.11050E-004	-3.27672E+002	7	...........
	204	205	3.40277E+000	-1.55569E-007	0.00000E+000	-5.29365E-007	0.00000E+000	4.11817E-004	-3.27672E+002	7	...........
	205	206	3.40274E+000	-1.54697E-007	0.00000E+000	-5.26395E-007	0.00000E+000	4.13383E-004	-3.27672E+002	7	...........
	206	207	3.40274E+000	-1.54616E-007	0.00000E+000	-5.26117E-007	0.00000E+000	4.11150E-004	-3.27672E+002	7	...........
	207	208	3.40272E+000	-1.55161E-007	0.00000E+000	-5.27970E-007	0.00000E+000	4.10967E-004	-3.27672E+002	7	...........
	208	209	3.40271E+000	-1.55210E-007	0.00000E+000	-5.28135E-007	0.00000E+000	4.09583E-004	-3.27672E+002	7	...........
	209	210	3.40269E+000	-1.54672E-007	0.00000E+000	-5.26302E-007	0.00000E+000	4.10000E-004	-3.27672E+002	7	...........
	210	211	3.40268E+000	-1.54890E-007	0.00000E+000	-5.27041E-007	0.00000E+000	4.12217E-004	-3.27672E+002	7	...........
	211	212	3.40267E+000	-1.55442E-007	0.00000E+000	-5.28916E-007	0.00000E+000	4.09150E-004	-3.27672E+002	7	...........
	212	213	3.40265E+000	-1.55693E-007	0.00000E+000	-5.29770E-007	0.00000E+000	4.14300E-004	-3.27672E+002	7	...........
	213	214	3.40264E+000	-1.55618E-007	0.00000E+000	-5.29510E-007	0.00000E+000	4.14933E-004	-3.27672E+002	7	...........
	214	215	3.40263E+000	-1.55477E-007	0.00000E+000	-5.29030E-007	0.00000E+000	4.15433E-004	-3.27672E+002	7	...........
	215	216	3.40261E+000	-1.55738E-007	0.00000E+000	-5.29917E-007	0.00000E+000	4.14500E-004	-3.27672E+002	7	...........
	216	217	3.40260E+000	-1.55024E-007	0.00000E+000	-5.27486E-007	0.00000E+000	4.14483E-004	-3.27672E+002	7	...........
	217	218	3.40259E+000	-1.55565E-007	0.00000E+000	-5.29325E-007	0.00000E+000	4.13583E-004	-3.27672E+002	7	...........
	218	219	3.40258E+000	-1.54891E-007	0.00000E+000	-5.27030E-007	0.00000E+000	4.16383E-004	-3.27672E+002	7	...........
	219	220	3.40256E+000	-1.54518E-007	0.00000E+000	-5.25756E-007	0.00000E+000	4.14150E-004	-3.27672E+002	7	...........
	220	221	3.40256E+000	-1.54723E-007	0.00000E+000	-5.26454E-007	0.00000E+000	4.16467E-004	-3.27672E+002	7	...........
	221	222	3.40255E+000	-1.55632E-007	0.00000E+000	-5.29545E-007	0.00000E+000	4.15833E-004	-3.27672E+002	7	...........
	222	223	3.40253E+000	-1.55562E-007	0.00000E+000	-5.29305E-007	0.00000E+000	4.15633E-004	-3.27672E+002	7	...........
	223	224	3.40253E+000	-1.54744E-007	0.00000E+000	-5.26522E-007	0.00000E+000	4.17617E-004	-3.27672E+002	7	...........
	224	225	3.40251E+000	-1.54949E-007	0.00000E+000	-5.27217E-007	0.00000E+000	4.15783E-004	-3.27672E+002	7	...........
	225	226	3.40249E+000	-1.55005E-007	0.00000E+000	-5.27402E-007	0.00000E+000	4.16467E-004	-3.27672E+002	7	...........
	226	227	3.40247E+000	-1.54897E-007	0.00000E+000	-5.27032E-007	0.00000E+000	4.17850E-004	-3.27672E+002	7	...........
	227	228	3.40246E+000	-1.54955E-007	0.00000E+000	-5.27228E-007	0.00000E+000	4.21117E-004	-3.27672E+002	7	...........
	228	229	3.40246E+000	-1.54753E-007	0.00000E+000	-5.26541E-007	0.00000E+000	4.18867E-004	-3.27672E+002	7	...........
	229	230	3.40244E+000	-1.54669E-007	0.00000E+000	-5.26252E-007	0.00000E+000	4.18667E-004	-3.27672E+002	7	...........
	230	231	3.40243E+000	-1.54758E-007	0.00000E+000	-5.26554E-007	0.00000E+000	4.17383E-004	-3.27672E+002	7	...........
	231	232	3.40241E+000	-1.55443E-007	0.00000E+000	-5.28883E-007	0.00000E+000	4.19000E-004	-3.27672E+002	7	...........
	232	233	3.40240E+000	-1.55680E-007	0.00000E+000	-5.29685E-007	0.00000E+000	4.17633E-004	-3.27672E+002	7	...........
	233	234	3.40240E+000	-1.55473E-007	0.00000E+000	-5.28981E-007	0.00000E+000	4.19483E-004	-3.27672E+002	7	...........
	234	235	3.40237E+000	-1.55249E-007	0.00000E+000	-5.28214E-007	0.00000E+000	4.22367E-004	-3.27672E+002	7	...........
	235	236	3.40237E+000	-1.54650E-007	0.00000E+000	-5.26174E-007	0.00000E+000	4.18767E-004	-3.27672E+002	7	...........
	236	237	3.40235E+000	-1.54215E-007	0.00000E+000	-5.24694E-007	0.00000E+000	4.19933E-004	-3.27672E+002	7	...........
	237	238	3.40235E+000	-1.53870E-007	0.00000E+000	-5.23521E-007	0.00000E+000	4.20617E-004	-3.27672E+002	7	...........
	238	239	3.40234E+000	-1.54495E-007	0.00000E+000	-5.25645E-007	0.00000E+000	4.19550E-004	-3.27672E+002	7	...........
	239	240	3.40233E+000	-1.54487E-007	0.00000E+000	-5.25614E-007	0.00000E+000	4.19167E-004	-3.27672E+002	7	...........
	240	241	3.40231E+000	-1.54408E-007	0.00000E+000	-5.25344E-007	0.00000E+000	4.19967E-004	-3.27672E+002	7	...........
	241	242	3.40230E+000	-1.54618E-007	0.00000E+000	-5.26058E-007	0.00000E+000	4.22767E-004	-3.27672E+002	7	...........
	242	243	3.40229E+000	-1.53913E-007	0.00000E+000	-5.23656E-007	0.00000E+000	4.20767E-004	-3.27672E+002	7	...........
	243	244	3.40227E+000	-1.54223E-007	0.00000E+000	-5.24708E-007	0.00000E+000	4.23000E-004	-3.27672E+002	7	...........
	244	245	3.40226E+000	-1.53792E-007	0.00000E+000	-5.23240E-007	0.00000E+000	4.20700E-004	-3.27672E+002	7	...........
	245	246	3.40226E+000	-1.54324E-007	0.00000E+000	-5.25050E-007	0.00000E+000	4.22033E-004	-3.27672E+002	7	...........
	246	247	3.40224E+000	-1.54946E-007	0.00000E+000	-5.27164E-007	0.00000E+000	4.20900E-004	-3.27672E+002	7	...........
	247	248	3.40222E+000	-1.55176E-007	0.00000E+000	-5.27943E-007	0.00000E+000	4.20900E-004	-3.27672E+002	7	...........
	248	249	3.40222E+000	-1.55413E-007	0.00000E+000	-5.28751E-007	0.00000E+000	4.18683E-004	-3.27672E+002	7	...........
	249	250	3.40221E+000	-1.55365E-007	0.00000E+000	-5.28585E-007	0.00000E+000	4.18733E-004	-3.27672E+002	7	...........
	250	251	3.40219E+000	-1.55087E-007	0.00000E+000	-5.27635E-007	0.00000E+000	4.18900E-004	-3.27672E+002	7	...........
	251	252	3.40219E+000	-1.55123E-007	0.00000E+000	-5.27759E-007	0.00000E+000	4.21650E-004	-3.27672E+002	7	...........
	252	253	3.40218E+000	-1.55473E-007	0.00000E+000	-5.28945E-007	0.00000E+000	4.19733E-004	-3.27672E+002	7	...........
	253	254	3.40217E+000	-1.53760E-007	0.00000E+000	-5.23116E-007	0.00000E+000	4.19917E-004	-3.27672E+002	7	...........
	254	255	3.40215E+000	-1.54206E-007	0.00000E+000	-5.24633E-007	0.00000E+000	4.18950E-004	-3.27672E+002	7	...........
	255	256	3.40214E+000	-1.54292E-007	0.00000E+000	-5.24921E-007	0.00000E+000	4.21933E-004	-3.27672E+002	7	...........
	256	257	3.40214E+000	-1.55065E-007	0.00000E+000	-5.27551E-007	0.00000E+000	4.19667E-004	-3.27672E+002	7	...........
	257	258	3.40213E+000	-1.55194E-007	0.00000E+000	-5.27988E-007	0.00000E+000	4.18433E-004	-3.27672E+002	7	...........
	258	259	3.40211E+000	-1.54903E-007	0.00000E+000	-5.26999E-007	0.00000E+000	4.19467E-004	-3.27672E+002	7	...........
	259	260	3.40210E+000	-1.55072E-007	0.00000E+000	-5.27571E-007	0.00000E+000	4.24967E-004	-3.27672E+002	7	...........
	260	261	3.40210E+000	-1.54978E-007	0.00000E+000	-5.27250E-007	0.00000E+000	4.21450E-004	-3.27672E+002	7	...........
	261	262	3.40208E+000	-1.54554E-007	0.00000E+000	-5.25803E-007	0.00000E+000	4.22117E-004	-3.27672E+002	7	...........
	262	263	3.40207E+000	-1.54624E-007	0.00000E+000	-5.26042E-007	0.00000E+000	4.22300E-004	-3.27672E+002	7	...........
	263	264	3.40206E+000	-1.54008E-007	0.00000E+000	-5.23944E-007	0.00000E+000	4.22200E-004	-3.27672E+002	7	...........
	264	265	3.40206E+000	-1.54372E-007	0.00000E+000	-5.25182E-007	0.00000E+000	4.19950E-004	-3.27672E+002	7	...........
	265	266	3.40205E+000	-1.54539E-007	0.00000E+000	-5.25751E-007	0.00000E+000	4.22017E-004	-3.27672E+002	7	...........
	266	267	3.40204E+000	-1.54973E-007	0.00000E+000	-5.27224E-007	0.00000E+000	4.20700E-004	-3.27672E+002	7	...........
	267	268	3.40204E+000	-1.54184E-007	0.00000E+000	-5.24540E-007	0.00000E+000	4.18550E-004	-3.27672E+002	7	...........
	268	269	3.40202E+000	-1.53875E-007	0.00000E+000	-5.23488E-007	0.00000E+000	4.19950E-004	-3.27672E+002	7	...........
	269	270	3.40201E+000	-1.54696E-007	0.00000E+000	-5.26276E-007	0.00000E+000	4.15517E-004	-3.27672E+002	7	...........
	270	271	3.40201E+000	-1.53977E-007	0.00000E+000	-5.23832E-007	0.00000E+000	4.18717E-004	-3.27672E+002	7	...........
	271	272	3.40199E+000	-1.53825E-007	0.00000E+000	-5.23312E-007	0.00000E+000	4.18417E-004	-3.27672E+002	7	...........
	272	273	3.40199E+000	-1.53525E-007	0.00000E+000	-5.22290E-007	0.00000E+000	4.20050E-004	-3.27672E+002	7	...........
	273	274	3.40199E+000	-1.53595E-007	0.00000E+000	-5.22528E-007	0.00000E+000	4.22967E-004	-3.27672E+002	7	...........
	274	275	3.40197E+000	-1.53149E-007	0.00000E+000	-5.21010E-007	0.00000E+000	4.16183E-004	-3.27672E+002	7	...........
	275	276	3.40196E+000	-1.54190E-007	0.00000E+000	-5.24548E-007	0.00000E+000	4.17617E-004	-3.27672E+002	7	...........
	276	277	3.40195E+000	-1.54368E-007	0.00000E+000	-5.25154E-007	0.00000E+000	4.18833E-004	-3.27672E+002	7	...........
	277	278	3.40194E+000	-1.54053E-007	0.00000E+000	-5.24080E-007	0.00000E+000	4.20250E-004	-3.27672E+002	7	...........
	278	279	3.40194E+000	-1.53274E-007	0.00000E+000	-5.21430E-007	0.00000E+000	4.16683E-004	-3.27672E+002	7	...........
	279	280	3.40194E+000	-1.53119E-007	0.00000E+000	-5.20901E-007	0.00000E+000	4.17633E-004	-3.27672E+002	7	...........
	280	281	3.40192E+000	-1.52939E-007	0.00000E+000	-5.20285E-007	0.00000E+000	4.17567E-004	-3.27672E+002	7	...........
	281	282	3.40191E+000	-1.52920E-007	0.00000E+000	-5.20222E-007	0.00000E+000	4.17300E-004	-3.27672E+002	7	...........
	282	283	3.40190E+000	-1.53052E-007	0.00000E+000	-5.20668E-007	0.00000E+000	4.18583E-004	-3.27672E+002	7	...........
	283	284	3.40189E+000	-1.53130E-007	0.00000E+000	-5.20931E-007	0.00000E+000	4.15800E-004	-3.27672E+002	7	...........
	284	285	3.40189E+000	-1.53315E-007	0.00000E+000	-5.21560E-007	0.00000E+000	4.16767E-004	-3.27672E+002	7	...........
	285	286	3.40187E+000	-1.53567E-007	0.00000E+000	-5.22416E-007	0.00000E+000	4.15933E-004	-3.27672E+002	7	...........
	286	287	3.40186E+000	-1.53739E-007	0.00000E+000	-5.22998E-007	0.00000E+000	4.13850E-004	-3.27672E+002	7	...........
	287	288	3.40186E+000	-1.53262E-007	0.00000E+000	-5.21376E-007	0.00000E+000	4.12133E-004	-3.27672E+002	7	...........
	288	289	3.40185E+000	-1.53192E-007	0.00000E+000	-5.21137E-007	0.00000E+000	4.11750E-004	-3.27672E+002	7	...........
	289	290	3.40184E+000	-1.52541E-007	0.00000E+000	-5.18920E-007	0.00000E+000	4.11617E-004	-3.27672E+002	7	...........
	290	291	3.40183E+000	-1.52569E-007	0.00000E+000	-5.19013E-007	0.00000E+000	4.10817E-004	-3.27672E+002	7	...........
	291	292	3.40183E+000	-1.52161E-007	0.00000E+000	-5.17626E-007	0.00000E+000	4.12350E-004	-3.27672E+002	7	...........
	292	293	3.40182E+000	-1.52620E-007	0.00000E+000	-5.19185E-007	0.00000E+000	4.12333E-004	-3.27672E+002	7	...........
	293	294	3.40181E+000	-1.53143E-007	0.00000E+000	-5.20964E-007	0.00000E+000	4.15583E-004	-3.27672E+002	7	...........
	294	295	3.40180E+000	-1.53120E-007	0.00000E+000	-5.20883E-007	0.00000E+000	4.15133E-004	-3.27672E+002	7	...........
	295	296	3.40179E+000	-1.52649E-007	0.00000E+000	-5.19279E-007	0.00000E+000	4.11283E-004	-3.27672E+002	7	...........
	296	297	3.40178E+000	-1.52992E-007	0.00000E+000	-5.20447E-007	0.00000E+000	4.12817E-004	-3.27672E+002	7	...........
	297	298	3.40177E+000	-1.52225E-007	0.00000E+000	-5.17836E-007	0.00000E+000	4.12600E-004	-3.27672E+002	7	...........
	298	299	3.40177E+000	-1.51825E-007	0.00000E+000	-5.16473E-007	0.00000E+000	4.14883E-004	-3.27672E+002	7	...........
	299	300	3.40176E+000	-1.52296E-007	0.00000E+000	-5.18073E-007	0.00000E+000	4.11983E-004	-3.27672E+002	7	...........
	300	301	3.40174E+000	-1.52513E-007	0.00000E+000	-5.18808E-007	0.00000E+000	4.13283E-004	-3.27672E+002	7	...........
	301	302	3.40173E+000	-1.51743E-007	0.00000E+000	-5.16187E-007	0.00000E+000	4.11217E-004	-3.27672E+002	7	...........
	302	303	3.40172E+000	-1.52808E-007	0.00000E+000	-5.19810E-007	0.00000E+000	4.11433E-004	-3.27672E+002	7	...........
	303	304	3.40171E+000	-1.52639E-007	0.00000E+000	-5.19233E-007	0.00000E+000	4.10317E-004	-3.27672E+002	7	...........
	304	305	3.40169E+000	-1.52415E-007	0.00000E+000	-5.18470E-007	0.00000E+000	4.09317E-004	-3.27672E+002	7	...........
	305	306	3.40169E+000	-1.53688E-007	0.00000E+000	-5.22799E-007	0.00000E+000	4.09583E-004	-3.27672E+002	7	...........
	306	307	3.40167E+000	-1.53275E-007	0.00000E+000	-5.21393E-007	0.00000E+000	4.10250E-004	-3.27672E+002	7	...........
	307	308	3.40168E+000	-1.52145E-007	0.00000E+000	-5.17550E-007	0.00000E+000	4.12217E-004	-3.27672E+002	7	...........
	308	309	3.40166E+000	-1.52814E-007	0.00000E+000	-5.19821E-007	0.00000E+000	4.07750E-004	-3.27672E+002	7	...........
	309	310	3.40165E+000	-1.52054E-007	0.00000E+000	-5.17234E-007	0.00000E+000	4.07417E-004	-3.27672E+002	7	...........
	310	311	3.40165E+000	-1.52652E-007	0.00000E+000	-5.19267E-007	0.00000E+000	4.09250E-004	-3.27672E+002	7	...........
	311	312	3.40163E+000	-1.52823E-007	0.00000E+000	-5.19848E-007	0.00000E+000	4.07967E-004	-3.27672E+002	7	...........
	312	313	3.40163E+000	-1.52572E-007	0.00000E+000	-5.18994E-007	0.00000E+000	4.06083E-004	-3.27672E+002	7	...........
	313	314	3.40162E+000	-1.52679E-007	0.00000E+000	-5.19357E-007	0.00000E+000	4.09433E-004	-3.27672E+002	7	...........
	314	315	3.40160E+000	-1.52974E-007	0.00000E+000	-5.20355E-007	0.00000E+000	4.07500E-004	-3.27672E+002	7	...........
	315	316	3.40160E+000	-1.52726E-007	0.00000E+000	-5.19515E-007	0.00000E+000	4.07167E-004	-3.27672E+002	7	...........
	316	317	3.40158E+000	-1.52565E-007	0.00000E+000	-5.18963E-007	0.00000E+000	4.07633E-004	-3.27672E+002	7	...........
	317	318	3.40157E+000	-1.52492E-007	0.00000E+000	-5.18711E-007	0.00000E+000	4.06117E-004	-3.27672E+002	7	...........
	318	319	3.40157E+000	-1.53305E-007	0.00000E+000	-5.21477E-007	0.00000E+000	4.05533E-004	-3.27672E+002	7	...........
	319	320	3.40155E+000	-1.52765E-007	0.00000E+000	-5.19638E-007	0.00000E+000	4.06150E-004	-3.27672E+002	7	...........
	320	321	3.40153E+000	-1.52705E-007	0.00000E+000	-5.19431E-007	0.00000E+000	4.04083E-004	-3.27672E+002	7	...........
	321	322	3.40154E+000	-1.53522E-007	0.00000E+000	-5.22212E-007	0.00000E+000	4.04850E-004	-3.27672E+002	7	...........
	322	323	3.40153E+000	-1.52997E-007	0.00000E+000	-5.20423E-007	0.00000E+000	4.06867E-004	-3.27672E+002	7	...........
	323	324	3.40152E+000	-1.53019E-007	0.00000E+000	-5.20499E-007	0.00000E+000	4.06283E-004	-3.27672E+002	7	...........
	324	325	3.40151E+000	-1.51952E-007	0.00000E+000	-5.16867E-007	0.00000E+000	4.05500E-004	-3.27672E+002	7	...........
	325	326	3.40150E+000	-1.51407E-007	0.00000E+000	-5.15010E-007	0.00000E+000	4.06867E-004	-3.27672E+002	7	...........
	326	327	3.40148E+000	-1.51610E-007	0.00000E+000	-5.15698E-007	0.00000E+000	4.04467E-004	-3.27672E+002	7	...........
	327	328	3.40148E+000	-1.51177E-007	0.00000E+000	-5.14226E-007	0.00000E+000	4.02817E-004	-3.27672E+002	7	...........
	328	329	3.40147E+000	-1.51835E-007	0.00000E+000	-5.16463E-007	0.00000E+000	4.02067E-004	-3.27672E+002	7	...........
	329	330	3.40146E+000	-1.52272E-007	0.00000E+000	-5.17948E-007	0.00000E+000	4.04333E-004	-3.27672E+002	7	...........
	330	331	3.40144E+000	-1.51381E-007	0.00000E+000	-5.14912E-007	0.00000E+000	4.06433E-004	-3.27672E+002	7	...........
	331	332	3.40144E+000	-1.51676E-007	0.00000E+000	-5.15916E-007	0.00000E+000	4.05167E-004	-3.27672E+002	7	...........
	332	333	3.40144E+000	-1.51687E-007	0.00000E+000	-5.15955E-007	0.00000E+000	4.04700E-004	-3.27672E+002	7	...........
	333	334	3.40142E+000	-1.51503E-007	0.00000E+000	-5.15325E-007	0.00000E+000	4.03433E-004	-3.27672E+002	7	...........
	334	335	3.40140E+000	-1.51238E-007	0.00000E+000	-5.14420E-007	0.00000E+000	4.05450E-004	-3.27672E+002	7	...........
	335	336	3.40140E+000	-1.51026E-007	0.00000E+000	-5.13698E-007	0.00000E+000	4.03450E-004	-3.27672E+002	7	...........
	336	337	3.40139E+000	-1.50807E-007	0.00000E+000	-5.12954E-007	0.00000E+000	4.01483E-004	-3.27672E+002	7	...........
	337	338	3.40138E+000	-1.51588E-007	0.00000E+000	-5.15608E-007	0.00000E+000	4.03067E-004	-3.27672E+002	7	...........
	338	339	3.40138E+000	-1.51705E-007	0.00000E+000	-5.16006E-007	0.00000E+000	4.03267E-004	-3.27672E+002	7	...........
	339	340	3.40135E+000	-1.51661E-007	0.00000E+000	-5.15852E-007	0.00000E+000	4.03950E-004	-3.27672E+002	7	...........
	340	341	3.40136E+000	-1.52725E-007	0.00000E+000	-5.19473E-007	0.00000E+000	4.01233E-004	-3.27672E+002	7	...........
	341	342	3.40135E+000	-1.52291E-007	0.00000E+000	-5.17995E-007	0.00000E+000	4.00917E-004	-3.27672E+002	7	...........
	342	343	3.40134E+000	-1.52136E-007	0.00000E+000	-5.17468E-007	0.00000E+000	4.03050E-004	-3.27672E+002	7	...........
	343	344	3.40133E+000	-1.51377E-007	0.00000E+000	-5.14885E-007	0.00000E+000	4.04350E-004	-3.27672E+002	7	...........
	344	345	3.40132E+000	-1.50850E-007	0.00000E+000	-5.13090E-007	0.00000E+000	4.02100E-004	-3.27672E+002	7	...........
	345	346	3.40131E+000	-1.50259E-007	0.00000E+000	-5.11076E-007	0.00000E+000	4.02867E-004	-3.27672E+002	7	...........
	346	347	3.40130E+000	-1.51260E-007	0.00000E+000	-5.14481E-007	0.00000E+000	4.01667E-004	-3.27672E+002	7	...........
	347	348	3.40129E+000	-1.52088E-007	0.00000E+000	-5.17296E-007	0.00000E+000	4.06217E-004	-3.27672E+002	7	...........
	348	349	3.40129E+000	-1.51507E-007	0.00000E+000	-5.15319E-007	0.00000E+000	4.02300E-004	-3.27672E+002	7	...........
	349	350	3.40127E+000	-1.52050E-007	0.00000E+000	-5.17165E-007	0.00000E+000	4.03967E-004	-3.27672E+002	7	...........
	350	351	3.40126E+000	-1.51808E-007	0.00000E+000	-5.16339E-007	0.00000E+000	4.04600E-004	-3.27672E+002	7	...........
	351	352	3.40125E+000	-1.51763E-007	0.00000E+000	-5.16186E-007	0.00000E+000	4.01267E-004	-3.27672E+002	7	...........
	352	353	3.40124E+000	-1.51605E-007	0.00000E+000	-5.15644E-007	0.00000E+000	4.01700E-004	-3.27672E+002	7	...........
	353	354	3.40124E+000	-1.51980E-007	0.00000E+000	-5.16921E-007	0.00000E+000	4.03600E-004	-3.27672E+002	7	...........
	354	355	3.40123E+000	-1.52173E-007	0.00000E+000	-5.17576E-007	0.00000E+000	4.01917E-004	-3.27672E+002	7	...........
	355	356	3.40121E+000	-1.52156E-007	0.00000E+000	-5.17513E-007	0.00000E+000	3.98617E-004	-3.27672E+002	7	...........
	356	357	3.40121E+000	-1.52718E-007	0.00000E+000	-5.19427E-007	0.00000E+000	4.02150E-004	-3.27672E+002	7	...........
	357	358	3.40119E+000	-1.52090E-007	0.00000E+000	-5.17286E-007	0.00000E+000	4.01950E-004	-3.27672E+002	7	...........
	358	359	3.40119E+000	-1.51556E-007	0.00000E+000	-5.15469E-007	0.00000E+000	4.03350E-004	-3.27672E+002	7	...........
	359	360	3.40118E+000	-1.51827E-007	0.00000E+000	-5.16392E-007	0.00000E+000	4.02083E-004	-3.27672E+002	7	...........
	360	361	3.40118E+000	-1.51541E-007	0.00000E+000	-5.15418E-007	0.00000E+000	4.00200E-004	-3.27672E+002	7	...........
	361	362	3.40117E+000	-1.52002E-007	0.00000E+000	-5.16984E-007	0.00000E+000	4.03233E-004	-3.27672E+002	7	...........
	362	363	3.40117E+000	-1.51652E-007	0.00000E+000	-5.15794E-007	0.00000E+000	4.01933E-004	-3.27672E+002	7	...........
	363	364	3.40115E+000	-1.51162E-007	0.00000E+000	-5.14124E-007	0.00000E+000	4.00617E-004	-3.27672E+002	7	...........
	364	365	3.40115E+000	-1.51745E-007	0.00000E+000	-5.16108E-007	0.00000E+000	4.01717E-004	-3.27672E+002	7	...........
	365	366	3.40115E+000	-1.52197E-007	0.00000E+000	-5.17644E-007	0.00000E+000	4.00783E-004	-3.27672E+002	7	...........
	366	367	3.40114E+000	-1.51878E-007	0.00000E+000	-5.16558E-007	0.00000E+000	4.01283E-004	-3.27672E+002	7	...........
	367	368	3.40112E+000	-1.52360E-007	0.00000E+000	-5.18195E-007	0.00000E+000	4.01417E-004	-3.27672E+002	7	...........
	368	369	3.40111E+000	-1.52035E-007	0.00000E+000	-5.17090E-007	0.00000E+000	4.00483E-004	-3.27672E+002	7	...........
	369	370	3.40111E+000	-1.52065E-007	0.00000E+000	-5.17190E-007	0.00000E+000	4.02200E-004	-3.27672E+002	7	...........
	370	371	3.40110E+000	-1.51086E-007	0.00000E+000	-5.13858E-007	0.00000E+000	4.02767E-004	-3.27672E+002	7	...........
	371	372	3.40109E+000	-1.50684E-007	0.00000E+000	-5.12490E-007	0.00000E+000	4.04533E-004	-3.27672E+002	7	...........
	372	373	3.40108E+000	-1.50890E-007	0.00000E+000	-5.13190E-007	0.00000E+000	4.05050E-004	-3.27672E+002	7	...........
	373	374	3.40107E+000	-1.51490E-007	0.00000E+000	-5.15228E-007	0.00000E+000	4.03783E-004	-3.27672E+002	7	...........
	374	375	3.40106E+000	-1.51741E-007	0.00000E+000	-5.16081E-007	0.00000E+000	4.04250E-004	-3.27672E+002	7	...........
	375	376	3.40105E+000	-1.51910E-007	0.00000E+000	-5.16653E-007	0.00000E+000	4.02517E-004	-3.27672E+002	7	...........
	376	377	3.40105E+000	-1.52509E-007	0.00000E+000	-5.18690E-007	0.00000E+000	4.04000E-004	-3.27672E+002	7	...........
	377	378	3.40105E+000	-1.51893E-007	0.00000E+000	-5.16597E-007	0.00000E+000	4.03150E-004	-3.27672E+002	7	...........
	378	379	3.40103E+000	-1.51840E-007	0.00000E+000	-5.16414E-007	0.00000E+000	4.05833E-004	-3.27672E+002	7	...........
	379	380	3.40103E+000	-1.51255E-007	0.00000E+000	-5.14422E-007	0.00000E+000	4.03183E-004	-3.27672E+002	7	...........
	380	381	3.40103E+000	-1.50809E-007	0.00000E+000	-5.12906E-007	0.00000E+000	4.04017E-004	-3.27672E+002	7	...........
	381	382	3.40101E+000	-1.49901E-007	0.00000E+000	-5.09814E-007	0.00000E+000	4.02767E-004	-3.27672E+002	7	...........
	382	383	3.40101E+000	-1.51705E-007	0.00000E+000	-5.15950E-007	0.00000E+000	4.05400E-004	-3.27672E+002	7	...........
	383	384	3.40099E+000	-1.51386E-007	0.00000E+000	-5.14864E-007	0.00000E+000	4.05100E-004	-3.27672E+002	7	...........
	384	385	3.40099E+000	-1.51224E-007	0.00000E+000	-5.14310E-007	0.00000E+000	4.03933E-004	-3.27672E+002	7	...........
	385	386	3.40099E+000	-1.51180E-007	0.00000E+000	-5.14163E-007	0.00000E+000	4.03683E-004	-3.27672E+002	7	...........
	386	387	3.40097E+000	-1.50708E-007	0.00000E+000	-5.12552E-007	0.00000E+000	4.04550E-004	-3.27672E+002	7	...........
	387	388	3.40096E+000	-1.50427E-007	0.00000E+000	-5.11595E-007	0.00000E+000	4.06017E-004	-3.27672E+002	7	...........
	388	389	3.40094E+000	-1.49707E-007	0.00000E+000	-5.09145E-007	0.00000E+000	4.07633E-004	-3.27672E+002	7	...........
	389	390	3.40094E+000	-1.50600E-007	0.00000E+000	-5.12182E-007	0.00000E+000	4.08050E-004	-3.27672E+002	7	...........
	390	391	3.40093E+000	-1.51944E-007	0.00000E+000	-5.16750E-007	0.00000E+000	4.04500E-004	-3.27672E+002	7	...........
	391	392	3.40092E+000	-1.50822E-007	0.00000E+000	-5.12933E-007	0.00000E+000	4.06100E-004	-3.27672E+002	7	...........
	392	393	3.40091E+000	-1.50764E-007	0.00000E+000	-5.12733E-007	0.00000E+000	4.07900E-004	-3.27672E+002	7	...........
	393	394	3.40091E+000	-1.50687E-007	0.00000E+000	-5.12472E-007	0.00000E+000	4.04433E-004	-3.27672E+002	7	...........
	394	395	3.40090E+000	-1.50598E-007	0.00000E+000	-5.12169E-007	0.00000E+000	4.04217E-004	-3.27672E+002	7	...........
	395	396	3.40090E+000	-1.50866E-007	0.00000E+000	-5.13080E-007	0.00000E+000	4.05250E-004	-3.27672E+002	7	...........
	396	397	3.40090E+000	-1.51214E-007	0.00000E+000	-5.14262E-007	0.00000E+000	4.06833E-004	-3.27672E+002	7	...........
	397	398	3.40088E+000	-1.50842E-007	0.00000E+000	-5.12995E-007	0.00000E+000	4.03817E-004	-3.27672E+002	7	...........
	398	399	3.40088E+000	-1.50785E-007	0.00000E+000	-5.12803E-007	0.00000E+000	4.04967E-004	-3.27672E+002	7	...........
	399	400	3.40087E+000	-1.50328E-007	0.00000E+000	-5.11246E-007	0.00000E+000	4.06467E-004	-3.27672E+002	7	...........
	400	401	3.40086E+000	-1.51809E-007	0.00000E+000	-5.16282E-007	0.00000E+000	4.04917E-004	-3.27672E+002	7	...........
	401	402	3.40086E+000	-1.51497E-007	0.00000E+000	-5.15220E-007	0.00000E+000	4.06267E-004	-3.27672E+002	7	...........
	402	403	3.40084E+000	-1.50990E-007	0.00000E+000	-5.13494E-007	0.00000E+000	4.07533E-004	-3.27672E+002	7	...........
	403	404	3.40084E+000	-1.51430E-007	0.00000E+000	-5.14990E-007	0.00000E+000	4.06300E-004	-3.27672E+002	7	...........
	404	405	3.40083E+000	-1.50483E-007	0.00000E+000	-5.11767E-007	0.00000E+000	4.06983E-004	-3.27672E+002	7	...........
	405	406	3.40082E+000	-1.50396E-007	0.00000E+000	-5.11471E-007	0.00000E+000	4.08283E-004	-3.27672E+002	7	...........
	406	407	3.40082E+000	-1.51072E-007	0.00000E+000	-5.13770E-007	0.00000E+000	4.06500E-004	-3.27672E+002	7	...........
	407	408	3.40082E+000	-1.50240E-007	0.00000E+000	-5.10941E-007	0.00000E+000	4.08717E-004	-3.27672E+002	7	...........
	408	409	3.40080E+000	-1.50613E-007	0.00000E+000	-5.12206E-007	0.00000E+000	4.06750E-004	-3.27672E+002	7	...........
	409	410	3.40079E+000	-1.50332E-007	0.00000E+000	-5.11247E-007	0.00000E+000	4.07833E-004	-3.27672E+002	7	...........
	410	411	3.40078E+000	-1.50582E-007	0.00000E+000	-5.12095E-007	0.00000E+000	4.09700E-004	-3.27672E+002	7	...........
	411	412	3.40077E+000	-1.50426E-007	0.00000E+000	-5.11566E-007	0.00000E+000	4.09550E-004	-3.27672E+002	7	...........
	412	413	3.40077E+000	-1.50913E-007	0.00000E+000	-5.13220E-007	0.00000E+000	4.11000E-004	-3.27672E+002	7	...........
	413	414	3.40078E+000	-1.51359E-007	0.00000E+000	-5.14740E-007	0.00000E+000	4.07533E-004	-3.27672E+002	7	...........
	414	415	3.40076E+000	-1.50553E-007	0.00000E+000	-5.11994E-007	0.00000E+000	4.11000E-004	-3.27672E+002	7	...........
	415	416	3.40074E+000	-1.50413E-007	0.00000E+000	-5.11517E-007	0.00000E+000	4.09300E-004	-3.27672E+002	7	...........
	416	417	3.40074E+000	-1.49967E-007	0.00000E+000	-5.09998E-007	0.00000E+000	4.07767E-004	-3.27672E+002	7	...........
	417	418	3.40074E+000	-1.49912E-007	0.00000E+000	-5.09811E-007	0.00000E+000	4.09933E-004	-3.27672E+002	7	...........
	418	419	3.40073E+000	-1.50158E-007	0.00000E+000	-5.10648E-007	0.00000E+000	4.09500E-004	-3.27672E+002	7	...........
	419	420	3.40072E+000	-1.50688E-007	0.00000E+000	-5.12449E-007	0.00000E+000	4.08167E-004	-3.27672E+002	7	...........
	420	421	3.40072E+000	-1.50900E-007	0.00000E+000	-5.13168E-007	0.00000E+000	4.10583E-004	-3.27672E+002	7	...........
	421	422	3.40070E+000	-1.51144E-007	0.00000E+000	-5.13997E-007	0.00000E+000	4.11150E-004	-3.27672E+002	7	...........
	422	423	3.40070E+000	-1.50768E-007	0.00000E+000	-5.12715E-007	0.00000E+000	4.09433E-004	-3.27672E+002	7	...........
	423	424	3.40069E+000	-1.50606E-007	0.00000E+000	-5.12164E-007	0.00000E+000	4.11117E-004	-3.27672E+002	7	...........
	424	425	3.40068E+000	-1.50528E-007	0.00000E+000	-5.11898E-007	0.00000E+000	4.11033E-004	-3.27672E+002	7	...........
	425	426	3.40067E+000	-1.50859E-007	0.00000E+000	-5.13023E-007	0.00000E+000	4.11267E-004	-3.27672E+002	7	...........
	426	427	3.40067E+000	-1.51358E-007	0.00000E+000	-5.14718E-007	0.00000E+000	4.09500E-004	-3.27672E+002	7	...........
	427	428	3.40065E+000	-1.50267E-007	0.00000E+000	-5.11005E-007	0.00000E+000	4.09050E-004	-3.27672E+002	7	...........
	428	429	3.40065E+000	-1.50306E-007	0.00000E+000	-5.11138E-007	0.00000E+000	4.08217E-004	-3.27672E+002	7	...........
	429	430	3.40064E+000	-1.51162E-007	0.00000E+000	-5.14049E-007	0.00000E+000	4.08083E-004	-3.27672E+002	7	...........
	430	431	3.40064E+000	-1.50809E-007	0.00000E+000	-5.12848E-007	0.00000E+000	4.08300E-004	-3.27672E+002	7	...........
	431	432	3.40063E+000	-1.50508E-007	0.00000E+000	-5.11822E-007	0.00000E+000	4.09733E-004	-3.27672E+002	7	...........
	432	433	3.40062E+000	-1.51176E-007	0.00000E+000	-5.14094E-007	0.00000E+000	4.06817E-004	-3.27672E+002	7	...........
	433	434	3.40061E+000	-1.50570E-007	0.00000E+000	-5.12029E-007	0.00000E+000	4.08267E-004	-3.27672E+002	7	...........
	434	435	3.40061E+000	-1.50986E-007	0.00000E+000	-5.13445E-007	0.00000E+000	4.07417E-004	-3.27672E+002	7	...........
	435	436	3.40062E+000	-1.50451E-007	0.00000E+000	-5.11625E-007	0.00000E+000	4.08100E-004	-3.27672E+002	7	...........
	436	437	3.40060E+000	-1.50864E-007	0.00000E+000	-5.13027E-007	0.00000E+000	4.05200E-004	-3.27672E+002	7	...........
	437	438	3.40059E+000	-1.51960E-007	0.00000E+000	-5.16753E-007	0.00000E+000	4.05133E-004	-3.27672E+002	7	...........
	438	439	3.40060E+000	-1.51183E-007	0.00000E+000	-5.14112E-007	0.00000E+000	4.11500E-004	-3.27672E+002	7	...........
	439	440	3.40059E+000	-1.50509E-007	0.00000E+000	-5.11817E-007	0.00000E+000	4.08183E-004	-3.27672E+002	7	...........
	440	441	3.40058E+000	-1.49866E-007	0.00000E+000	-5.09633E-007	0.00000E+000	4.08783E-004	-3.27672E+002	7	...........
	441	442	3.40057E+000	-1.49149E-007	0.00000E+000	-5.07192E-007	0.00000E+000	4.07017E-004	-3.27672E+002	7	...........
	442	443	3.40056E+000	-1.50037E-007	0.00000E+000	-5.10210E-007	0.00000E+000	4.10050E-004	-3.27672E+002	7	...........
	443	444	3.40057E+000	-1.49727E-007	0.00000E+000	-5.09157E-007	0.00000E+000	4.08350E-004	-3.27672E+002	7	...........
	444	445	3.40056E+000	-1.50114E-007	0.00000E+000	-5.10472E-007	0.00000E+000	4.07867E-004	-3.27672E+002	7	...........
	445	446	3.40055E+000	-1.50300E-007	0.00000E+000	-5.11104E-007	0.00000E+000	4.11367E-004	-3.27672E+002	7	...........
	446	447	3.40055E+000	-1.50201E-007	0.00000E+000	-5.10767E-007	0.00000E+000	4.09583E-004	-3.27672E+002	7	...........
	447	448	3.40054E+000	-1.50204E-007	0.00000E+000	-5.10775E-007	0.00000E+000	4.09683E-004	-3.27672E+002	7	...........
	448	449	3.40054E+000	-1.50615E-007	0.00000E+000	-5.12172E-007	0.00000E+000	4.09967E-004	-3.27672E+002	7	...........
	449	450	3.40053E+000	-1.51206E-007	0.00000E+000	-5.14180E-007	0.00000E+000	4.04867E-004	-3.27672E+002	7	...........
	450	451	3.40052E+000	-1.51040E-007	0.00000E+000	-5.13614E-007	0.00000E+000	4.09267E-004	-3.27672E+002	7	...........
	451	452	3.40051E+000	-1.50411E-007	0.00000E+000	-5.11473E-007	0.00000E+000	4.09250E-004	-3.27672E+002	7	...........
	452	453	3.40050E+000	-1.50656E-007	0.00000E+000	-5.12306E-007	0.00000E+000	4.08517E-004	-3.27672E+002	7	...........
	453	454	3.40049E+000	-1.50280E-007	0.00000E+000	-5.11025E-007	0.00000E+000	4.07950E-004	-3.27672E+002	7	...........
	454	455	3.40049E+000	-1.50309E-007	0.00000E+000	-5.11124E-007	0.00000E+000	4.09150E-004	-3.27672E+002	7	...........
	455	456	3.40048E+000	-1.51065E-007	0.00000E+000	-5.13695E-007	0.00000E+000	4.07833E-004	-3.27672E+002	7	...........
	456	457	3.40049E+000	-1.50155E-007	0.00000E+000	-5.10602E-007	0.00000E+000	4.08217E-004	-3.27672E+002	7	...........
	457	458	3.40048E+000	-1.50542E-007	0.00000E+000	-5.11916E-007	0.00000E+000	4.09983E-004	-3.27672E+002	7	...........
	458	459	3.40047E+000	-1.49962E-007	0.00000E+000	-5.09942E-007	0.00000E+000	4.11550E-004	-3.27672E+002	7	...........
	459	460	3.40047E+000	-1.50004E-007	0.00000E+000	-5.10083E-007	0.00000E+000	4.06017E-004	-3.27672E+002	7	...........
	460	461	3.40047E+000	-1.50449E-007	0.00000E+000	-5.11595E-007	0.00000E+000	4.12550E-004	-3.27672E+002	7	...........
	461	462	3.40046E+000	-1.50982E-007	0.00000E+000	-5.13406E-007	0.00000E+000	4.12933E-004	-3.27672E+002	7	...........
	462	463	3.40046E+000	-1.50878E-007	0.00000E+000	-5.13054E-007	0.00000E+000	4.09000E-004	-3.27672E+002	7	...........
	463	464	3.40045E+000	-1.50724E-007	0.00000E+000	-5.12529E-007	0.00000E+000	4.11433E-004	-3.27672E+002	7	...........
	464	465	3.40044E+000	-1.51146E-007	0.00000E+000	-5.13963E-007	0.00000E+000	4.07683E-004	-3.27672E+002	7	...........
	465	466	3.40043E+000	-1.51179E-007	0.00000E+000	-5.14075E-007	0.00000E+000	4.10683E-004	-3.27672E+002	7	...........
	466	467	3.40043E+000	-1.50685E-007	0.00000E+000	-5.12394E-007	0.00000E+000	4.12550E-004	-3.27672E+002	7	...........
	467	468	3.40042E+000	-1.50721E-007	0.00000E+000	-5.12515E-007	0.00000E+000	4.11867E-004	-3.27672E+002	7	...........
	468	469	3.40042E+000	-1.51412E-007	0.00000E+000	-5.14865E-007	0.00000E+000	4.10200E-004	-3.27672E+002	7	...........
	469	470	3.40041E+000	-1.51037E-007	0.00000E+000	-5.13589E-007	0.00000E+000	4.09650E-004	-3.27672E+002	7	...........
	470	471	3.40040E+000	-1.50490E-007	0.00000E+000	-5.11725E-007	0.00000E+000	4.08733E-004	-3.27672E+002	7	...........
	471	472	3.40040E+000	-1.50552E-007	0.00000E+000	-5.11935E-007	0.00000E+000	4.09017E-004	-3.27672E+002	7	...........
	472	473	3.40039E+000	-1.50809E-007	0.00000E+000	-5.12807E-007	0.00000E+000	4.09867E-004	-3.27672E+002	7	...........
	473	474	3.40038E+000	-1.50822E-007	0.00000E+000	-5.12853E-007	0.00000E+000	4.09367E-004	-3.27672E+002	7	...........
	474	475	3.40038E+000	-1.51261E-007	0.00000E+000	-5.14343E-007	0.00000E+000	4.10567E-004	-3.27672E+002	7	...........
	475	476	3.40038E+000	-1.50528E-007	0.00000E+000	-5.11852E-007	0.00000E+000	4.09633E-004	-3.27672E+002	7	...........
	476	477	3.40037E+000	-1.50365E-007	0.00000E+000	-5.11298E-007	0.00000E+000	4.10100E-004	-3.27672E+002	7	...........
	477	478	3.40036E+000	-1.50581E-007	0.00000E+000	-5.12030E-007	0.00000E+000	4.10900E-004	-3.27672E+002	7	...........
	478	479	3.40037E+000	-1.50047E-007	0.00000E+000	-5.10214E-007	0.00000E+000	4.10383E-004	-3.27672E+002	7	...........
	479	480	3.40036E+000	-1.50034E-007	0.00000E+000	-5.10168E-007	0.00000E+000	4.12317E-004	-3.27672E+002	7	...........
	480	481	3.40036E+000	-1.50248E-007	0.00000E+000	-5.10895E-007	0.00000E+000	4.12700E-004	-3.27672E+002	7	...........
	481	482	3.40035E+000	-1.50802E-007	0.00000E+000	-5.12778E-007	0.00000E+000	4.12583E-004	-3.27672E+002	7	...........
	482	483	3.40034E+000	-1.50537E-007	0.00000E+000	-5.11876E-007	0.00000E+000	4.11817E-004	-3.27672E+002	7	...........
	483	484	3.40034E+000	-1.51052E-007	0.00000E+000	-5.13630E-007	0.00000E+000	4.10500E-004	-3.27672E+002	7	...........
	484	485	3.40034E+000	-1.51231E-007	0.00000E+000	-5.14236E-007	0.00000E+000	4.13750E-004	-3.27672E+002	7	...........
	485	486	3.40034E+000	-1.51179E-007	0.00000E+000	-5.14061E-007	0.00000E+000	4.10867E-004	-3.27672E+002	7	...........
	486	487	3.40033E+000	-1.50927E-007	0.00000E+000	-5.13200E-007	0.00000E+000	4.10767E-004	-3.27672E+002	7	...........
	487	488	3.40031E+000	-1.51071E-007	0.00000E+000	-5.13688E-007	0.00000E+000	4.11983E-004	-3.27672E+002	7	...........
	488	489	3.40031E+000	-1.49585E-007	0.00000E+000	-5.08635E-007	0.00000E+000	4.12350E-004	-3.27672E+002	7	...........
	489	490	3.40030E+000	-1.50059E-007	0.00000E+000	-5.10246E-007	0.00000E+000	4.11633E-004	-3.27672E+002	7	...........
	490	491	3.40030E+000	-1.49913E-007	0.00000E+000	-5.09749E-007	0.00000E+000	4.13233E-004	-3.27672E+002	7	...........
	491	492	3.40029E+000	-1.51452E-007	0.00000E+000	-5.14980E-007	0.00000E+000	4.11800E-004	-3.27672E+002	7	...........
	492	493	3.40028E+000	-1.51126E-007	0.00000E+000	-5.13872E-007	0.00000E+000	4.11850E-004	-3.27672E+002	7	...........
	493	494	3.40027E+000	-1.51390E-007	0.00000E+000	-5.14767E-007	0.00000E+000	4.13133E-004	-3.27672E+002	7	...........
	494	495	3.40027E+000	-1.50610E-007	0.00000E+000	-5.12114E-007	0.00000E+000	4.11450E-004	-3.27672E+002	7	...........
	495	496	3.40026E+000	-1.50659E-007	0.00000E+000	-5.12282E-007	0.00000E+000	4.15817E-004	-3.27672E+002	7	...........
	496	497	3.40026E+000	-1.49900E-007	0.00000E+000	-5.09698E-007	0.00000E+000	4.11767E-004	-3.27672E+002	7	...........
	497	498	3.40025E+000	-1.50224E-007	0.00000E+000	-5.10801E-007	0.00000E+000	4.12250E-004	-3.27672E+002	7	...........
	498	499	3.40025E+000	-1.50659E-007	0.00000E+000	-5.12277E-007	0.00000E+000	4.15067E-004	-3.27672E+002	7	...........
	499	500	3.40025E+000	-1.50221E-007	0.00000E+000	-5.10791E-007	0.00000E+000	4.13767E-004	-3.27672E+002	7	...........
	500	501	3.40024E+000	-1.50230E-007	0.00000E+000	-5.10819E-007	0.00000E+000	4.11417E-004	-3.27672E+002	7	...........
	501	502	3.40024E+000	-1.51193E-007	0.00000E+000	-5.14093E-007	0.00000E+000	4.11800E-004	-3.27672E+002	7	...........
	502	503	3.40022E+000	-1.51419E-007	0.00000E+000	-5.14858E-007	0.00000E+000	4.12533E-004	-3.27672E+002	7	...........
	503	504	3.40022E+000	-1.51641E-007	0.00000E+000	-5.15613E-007	0.00000E+000	4.11633E-004	-3.27672E+002	7	...........
	504	505	3.40022E+000	-1.52429E-007	0.00000E+000	-5.18291E-007	0.00000E+000	4.12167E-004	-3.27672E+002	7	...........
	505	506	3.40021E+000	-1.51340E-007	0.00000E+000	-5.14588E-007	0.00000E+000	4.09400E-004	-3.27672E+002	7	...........
	506	507	3.40021E+000	-1.51671E-007	0.00000E+000	-5.15711E-007	0.00000E+000	4.12117E-004	-3.27672E+002	7	...........
	507	508	3.40021E+000	-1.51337E-007	0.00000E+000	-5.14578E-007	0.00000E+000	4.09317E-004	-3.27672E+002	7	...........
	508	509	3.40019E+000	-1.51521E-007	0.00000E+000	-5.15201E-007	0.00000E+000	4.14750E-004	-3.27672E+002	7	...........
	509	510	3.40018E+000	-1.52874E-007	0.00000E+000	-5.19797E-007	0.00000E+000	4.15250E-004	-3.27672E+002	7	...........
	510	511	3.40018E+000	-1.52273E-007	0.00000E+000	-5.17754E-007	0.00000E+000	4.13717E-004	-3.27672E+002	7	...........
	511	512	3.40018E+000	-1.52114E-007	0.00000E+000	-5.17216E-007	0.00000E+000	4.13650E-004	-3.27672E+002	7	...........
	512	513	3.40017E+000	-1.52251E-007	0.00000E+000	-5.17678E-007	0.00000E+000	4.14983E-004	-3.27672E+002	7	...........
	513	514	3.40016E+000	-1.50857E-007	0.00000E+000	-5.12940E-007	0.00000E+000	4.15017E-004	-3.27672E+002	7	...........
	514	515	3.40016E+000	-1.51396E-007	0.00000E+000	-5.14770E-007	0.00000E+000	4.13467E-004	-3.27672E+002	7	...........
	515	516	3.40015E+000	-1.50343E-007	0.00000E+000	-5.11190E-007	0.00000E+000	4.14717E-004	-3.27672E+002	7	...........
	516	517	3.40014E+000	-1.50103E-007	0.00000E+000	-5.10372E-007	0.00000E+000	4.16183E-004	-3.27672E+002	7	...........
	517	518	3.40014E+000	-1.50458E-007	0.00000E+000	-5.11577E-007	0.00000E+000	4.12733E-004	-3.27672E+002	7	...........
	518	519	3.40014E+000	-1.50934E-007	0.00000E+000	-5.13195E-007	0.00000E+000	4.12600E-004	-3.27672E+002	7	...........
	519	520	3.40013E+000	-1.50803E-007	0.00000E+000	-5.12750E-007	0.00000E+000	4.14483E-004	-3.27672E+002	7	...........
	520	521	3.40013E+000	-1.51472E-007	0.00000E+000	-5.15023E-007	0.00000E+000	4.15267E-004	-3.27672E+002	7	...........
	521	522	3.40011E+000	-1.50782E-007	0.00000E+000	-5.12674E-007	0.00000E+000	4.16417E-004	-3.27672E+002	7	...........
	522	523	3.40010E+000	-1.51306E-007	0.00000E+000	-5.14454E-007	0.00000E+000	4.16600E-004	-3.27672E+002	7	...........
	523	524	3.40010E+000	-1.50306E-007	0.00000E+000	-5.11056E-007	0.00000E+000	4.17150E-004	-3.27672E+002	7	...........
	524	525	3.40009E+000	-1.50897E-007	0.00000E+000	-5.13065E-007	0.00000E+000	4.17733E-004	-3.27672E+002	7	...........
	525	526	3.40008E+000	-1.50305E-007	0.00000E+000	-5.11050E-007	0.00000E+000	4.14833E-004	-3.27672E+002	7	...........
	526	527	3.40008E+000	-1.49831E-007	0.00000E+000	-5.09437E-007	0.00000E+000	4.18283E-004	-3.27672E+002	7	...........
	527	528	3.40007E+000	-1.51059E-007	0.00000E+000	-5.13613E-007	0.00000E+000	4.16133E-004	-3.27672E+002	7	...........
	528	529	3.40007E+000	-1.50828E-007	0.00000E+000	-5.12825E-007	0.00000E+000	4.16617E-004	-3.27672E+002	7	...........
	529	530	3.40005E+000	-1.49759E-007	0.00000E+000	-5.09187E-007	0.00000E+000	4.20833E-004	-3.27672E+002	7	...........
	530	531	3.40004E+000	-1.50639E-007	0.00000E+000	-5.12179E-007	0.00000E+000	4.17200E-004	-3.27672E+002	7	...........
	531	532	3.40004E+000	-1.50575E-007	0.00000E+000	-5.11962E-007	0.00000E+000	4.19317E-004	-3.27672E+002	7	...........
	532	533	3.40004E+000	-1.49543E-007	0.00000E+000	-5.08453E-007	0.00000E+000	4.18517E-004	-3.27672E+002	7	...........
	533	534	3.40003E+000	-1.50660E-007	0.00000E+000	-5.12249E-007	0.00000E+000	4.17533E-004	-3.27672E+002	7	...........
	534	535	3.40004E+000	-1.50819E-007	0.00000E+000	-5.12790E-007	0.00000E+000	4.18283E-004	-3.27672E+002	7	...........
	535	536	3.40002E+000	-1.52000E-007	0.00000E+000	-5.16802E-007	0.00000E+000	4.16083E-004	-3.27672E+002	7	...........
	536	537	3.40002E+000	-1.51287E-007	0.00000E+000	-5.14378E-007	0.00000E+000	4.18683E-004	-3.27672E+002	7	...........
	537	538	3.40000E+000	-1.51448E-007	0.00000E+000	-5.14922E-007	0.00000E+000	4.19367E-004	-3.27672E+002	7	...........
	538	539	3.40000E+000	-1.51495E-007	0.00000E+000	-5.15083E-007	0.00000E+000	4.19300E-004	-3.27672E+002	7	...........
	539	540	3.40000E+000	-1.50649E-007	0.00000E+000	-5.12206E-007	0.00000E+000	4.20583E-004	-3.27672E+002	7	...........
	540	541	3.39999E+000	-1.50692E-007	0.00000E+000	-5.12352E-007	0.00000E+000	4.18600E-004	-3.27672E+002	7	...........
	541	542	3.39999E+000	-1.50900E-007	0.00000E+000	-5.13058E-007	0.00000E+000	4.18583E-004	-3.27672E+002	7	...........
	542	543	3.39997E+000	-1.50276E-007	0.00000E+000	-5.10935E-007	0.00000E+000	4.18850E-004	-3.27672E+002	7	...........
	543	544	3.39996E+000	-1.50181E-007	0.00000E+000	-5.10610E-007	0.00000E+000	4.18833E-004	-3.27672E+002	7	...........
	544	545	3.39996E+000	-1.49928E-007	0.00000E+000	-5.09749E-007	0.00000E+000	4.19467E-004	-3.27672E+002	7	...........
	545	546	3.39996E+000	-1.50312E-007	0.00000E+000	-5.11055E-007	0.00000E+000	4.19483E-004	-3.27672E+002	7	...........
	546	547	3.39995E+000	-1.50694E-007	0.00000E+000	-5.12352E-007	0.00000E+000	4.18250E-004	-3.27672E+002	7	...........
	547	548	3.39995E+000	-1.50358E-007	0.00000E+000	-5.11210E-007	0.00000E+000	4.20117E-004	-3.27672E+002	7	...........
	548	549	3.39994E+000	-1.50474E-007	0.00000E+000	-5.11601E-007	0.00000E+000	4.20283E-004	-3.27672E+002	7	...........
	549	550	3.39993E+000	-1.50019E-007	0.00000E+000	-5.10055E-007	0.00000E+000	4.22700E-004	-3.27672E+002	7	...........
	550	551	3.39992E+000	-1.50110E-007	0.00000E+000	-5.10363E-007	0.00000E+000	4.20783E-004	-3.27672E+002	7	...........
	551	552	3.39993E+000	-1.50240E-007	0.00000E+000	-5.10806E-007	0.00000E+000	4.19417E-004	-3.27672E+002	7	...........
	552	553	3.39992E+000	-1.50593E-007	0.00000E+000	-5.12005E-007	0.00000E+000	4.21200E-004	-3.27672E+002	7	...........
	553	554	3.39992E+000	-1.50674E-007	0.00000E+000	-5.12279E-007	0.00000E+000	4.19483E-004	-3.27672E+002	7	...........
	554	555	3.39991E+000	-1.50632E-007	0.00000E+000	-5.12134E-007	0.00000E+000	4.19567E-004	-3.27672E+002	7	...........
	555	556	3.39991E+000	-1.50198E-007	0.00000E+000	-5.10660E-007	0.00000E+000	4.24400E-004	-3.27672E+002	7	...........
	556	557	3.39990E+000	-1.50709E-007	0.00000E+000	-5.12395E-007	0.00000E+000	4.23217E-004	-3.27672E+002	7	...........
	557	558	3.39988E+000	-1.50659E-007	0.00000E+000	-5.12223E-007	0.00000E+000	4.21633E-004	-3.27672E+002	7	...........
	558	559	3.39988E+000	-1.49995E-007	0.00000E+000	-5.09966E-007	0.00000E+000	4.23250E-004	-3.27672E+002	7	...........
	559	560	3.39987E+000	-1.50330E-007	0.00000E+000	-5.11101E-007	0.00000E+000	4.21283E-004	-3.27672E+002	7	...........
	560	561	3.39987E+000	-1.49938E-007	0.00000E+000	-5.09769E-007	0.00000E+000	4.24617E-004	-3.27672E+002	7	...........
	561	562	3.39986E+000	-1.50193E-007	0.00000E+000	-5.10634E-007	0.00000E+000	4.20717E-004	-3.27672E+002	7	...........
	562	563	3.39986E+000	-1.50001E-007	0.00000E+000	-5.09981E-007	0.00000E+000	4.26767E-004	-3.27672E+002	7	...........
	563	564	3.39985E+000	-1.50506E-007	0.00000E+000	-5.11697E-007	0.00000E+000	4.24050E-004	-3.27672E+002	7	...........
	564	565	3.39985E+000	-1.50373E-007	0.00000E+000	-5.11244E-007	0.00000E+000	4.21167E-004	-3.27672E+002	7	...........
	565	566	3.39984E+000	-1.49838E-007	0.00000E+000	-5.09425E-007	0.00000E+000	4.25833E-004	-3.27672E+002	7	...........
	566	567	3.39983E+000	-1.50449E-007	0.00000E+000	-5.11502E-007	0.00000E+000	4.24250E-004	-3.27672E+002	7	...........
	567	568	3.39982E+000	-1.51084E-007	0.00000E+000	-5.13658E-007	0.00000E+000	4.25617E-004	-3.27672E+002	7	...........
	568	569	3.39982E+000	-1.49962E-007	0.00000E+000	-5.09845E-007	0.00000E+000	4.25750E-004	-3.27672E+002	7	...........
	569	570	3.39981E+000	-1.49721E-007	0.00000E+000	-5.09024E-007	0.00000E+000	4.29183E-004	-3.27672E+002	7	...........
	570	571	3.39980E+000	-1.50390E-007	0.00000E+000	-5.11295E-007	0.00000E+000	4.26100E-004	-3.27672E+002	7	...........
	571	572	3.39980E+000	-1.49756E-007	0.00000E+000	-5.09139E-007	0.00000E+000	4.25133E-004	-3.27672E+002	7	...........
	572	573	3.39979E+000	-1.49386E-007	0.00000E+000	-5.07883E-007	0.00000E+000	4.26433E-004	-3.27672E+002	7	...........
	573	574	3.39979E+000	-1.49900E-007	0.00000E+000	-5.09628E-007	0.00000E+000	4.23983E-004	-3.27672E+002	7	...........
	574	575	3.39979E+000	-1.49538E-007	0.00000E+000	-5.08398E-007	0.00000E+000	4.25500E-004	-3.27672E+002	7	...........
	575	576	3.39978E+000	-1.50058E-007	0.00000E+000	-5.10164E-007	0.00000E+000	4.24483E-004	-3.27672E+002	7	...........
	576	577	3.39976E+000	-1.50934E-007	0.00000E+000	-5.13139E-007	0.00000E+000	4.25667E-004	-3.27672E+002	7	...........
	577	578	3.39977E+000	-1.50486E-007	0.00000E+000	-5.11615E-007	0.00000E+000	4.27333E-004	-3.27672E+002	7	...........
	578	579	3.39975E+000	-1.49875E-007	0.00000E+000	-5.09537E-007	0.00000E+000	4.24583E-004	-3.27672E+002	7	...........
	579	580	3.39974E+000	-1.49385E-007	0.00000E+000	-5.07870E-007	0.00000E+000	4.23467E-004	-3.27672E+002	7	...........
	580	581	3.39974E+000	-1.49061E-007	0.00000E+000	-5.06769E-007	0.00000E+000	4.23333E-004	-3.27672E+002	7	...........
	581	582	3.39974E+000	-1.50065E-007	0.00000E+000	-5.10181E-007	0.00000E+000	4.23833E-004	-3.27672E+002	7	...........
	582	583	3.39973E+000	-1.50489E-007	0.00000E+000	-5.11621E-007	0.00000E+000	4.27300E-004	-3.27672E+002	7	...........
	583	584	3.39973E+000	-1.50279E-007	0.00000E+000	-5.10908E-007	0.00000E+000	4.25883E-004	-3.27672E+002	7	...........
	584	585	3.39972E+000	-1.50397E-007	0.00000E+000	-5.11310E-007	0.00000E+000	4.27800E-004	-3.27672E+002	7	...........
	585	586	3.39972E+000	-1.50159E-007	0.00000E+000	-5.10500E-007	0.00000E+000	4.24067E-004	-3.27672E+002	7	...........
	586	587	3.39971E+000	-1.49187E-007	0.00000E+000	-5.07193E-007	0.00000E+000	4.25150E-004	-3.27672E+002	7	...........
	587	588	3.39971E+000	-1.50754E-007	0.00000E+000	-5.12520E-007	0.00000E+000	4.24133E-004	-3.27672E+002	7	...........
	588	589	3.39970E+000	-1.50216E-007	0.00000E+000	-5.10689E-007	0.00000E+000	4.26567E-004	-3.27672E+002	7	...........
	589	590	3.39969E+000	-1.49779E-007	0.00000E+000	-5.09202E-007	0.00000E+000	4.25850E-004	-3.27672E+002	7	...........
	590	591	3.39969E+000	-1.50078E-007	0.00000E+000	-5.10218E-007	0.00000E+000	4.25617E-004	-3.27672E+002	7	...........
	591	592	3.39970E+000	-1.50399E-007	0.00000E+000	-5.11313E-007	0.00000E+000	4.28467E-004	-3.27672E+002	7	...........
	592	593	3.39969E+000	-1.50310E-007	0.00000E+000	-5.11007E-007	0.00000E+000	4.26600E-004	-3.27672E+002	7	...........
	593	594	3.39968E+000	-1.51321E-007	0.00000E+000	-5.14445E-007	0.00000E+000	4.30133E-004	-3.27672E+002	7	...........
	594	595	3.39967E+000	-1.50175E-007	0.00000E+000	-5.10545E-007	0.00000E+000	4.28050E-004	-3.27672E+002	7	...........
	595	596	3.39966E+000	-1.49205E-007	0.00000E+000	-5.07246E-007	0.00000E+000	4.27533E-004	-3.27672E+002	7	...........
	596	597	3.39967E+000	-1.49714E-007	0.00000E+000	-5.08978E-007	0.00000E+000	4.24867E-004	-3.27672E+002	7	...........
	597	598	3.39966E+000	-1.49259E-007	0.00000E+000	-5.07431E-007	0.00000E+000	4.26917E-004	-3.27672E+002	7	...........
	598	599	3.39965E+000	-1.48859E-007	0.00000E+000	-5.06070E-007	0.00000E+000	4.28217E-004	-3.27672E+002	7	...........
	599	600	3.39965E+000	-1.49081E-007	0.00000E+000	-5.06825E-007	0.00000E+000	4.24367E-004	-3.27672E+002	7	...........
