EXPLAIN
TAG	PWR800_READVOLTAGE
TITLE	LABEL	PWR Read Voltage	Test Identifier
DATE	LABEL	8.2.2024	Date
TIME	LABEL	2:09:38	Time
NOTES	NOTES	1	Notes...
	
PSTAT	PSTAT	REF600-12055	Potentiostat
CAPACITY	QUANT	1.00000E+000	Capacity (A-hr)
CELLTYPE	SELECTOR	1	Cell Type
WORKINGCONNECTION	SELECTOR	0	Working Connection
MAXTIME	VARIABLEANDUNITS	6.00000E+002	s	6.00000E+002	second(s)	Max Time
SAMPLETIME	QUANT	1.00000E+000	Sample Period (s)
STOPAT1	MULTIPARAM	0	0.00000E+000	Stop At 1	None	N/A
STOPAT2	MULTIPARAM	0	0.00000E+000	Stop At 2	None	N/A
AESBHCSELECTOR	TOGGLE	F	Save Both Half Cells
EOC	QUANT	4.007178	Open Circuit (V)
SEQUENCER	TOGGLE	TRUE	Run as Sequence
PSTATMODEL	IQUANT	4	Pstat Model
PSTATSECTION	LABEL	REF600-12055	Pstat Section
PSTATSERIALNO	LABEL	12055	Pstat Serial Number
CTRLMODE	IQUANT	0	Control Mode
ELECTROMETER	IQUANT	0	RE=0 or CS=1
IESTAB	IQUANT	0	I/E Stability
CASPEED	IQUANT	4	Control Amp Speed
CONVENTION	IQUANT	1	Current Convention
ICHRANGE	IQUANT	2	Ich Range
ICHRANGEMODE	TOGGLE	T	Ich Auto Range
ICHOFFSETENABLE	TOGGLE	F	Ich Offset Enable
ICHOFFSET	QUANT	0	Ich Offset (V)
ICHFILTER	IQUANT	1	Ich Filter
VCHRANGE	IQUANT	3	Vch Range
VCHRANGEMODE	TOGGLE	T	Vch Auto Range
VCHOFFSETENABLE	TOGGLE	F	Vch Offset Enable
VCHOFFSET	QUANT	0	Vch Offset (V)
VCHFILTER	IQUANT	1	Vch Filter
ACHRANGE	IQUANT	2	Ach Range
ACHOFFSETENABLE	TOGGLE	F	Ach Offset Enable
ACHOFFSET	QUANT	0	Ach Offset (V)
ACHFILTER	IQUANT	1	Ach Filter
IERANGELOWERLIMIT	IQUANT	7	I/E Range Lower Limit
IERANGEMODE	TOGGLE	F	I/E AutoRange
IERANGE	IQUANT	11	I/E Range
POSFEEDENABLE	TOGGLE	F	Positive Feedback IR Comp
POSFEEDRESISTANCE	QUANT	0	Positive Feedback Resistance (ohm)
ACHSELECT	IQUANT	4	Ach Select
SENSECABLEID	IQUANT	14	Sense Cable ID
PWRCABLEID	IQUANT	14	Power Cable ID
DCCALDATE	LABEL		DC Calibration Date
ACCALDATE	LABEL		AC Calibration Date
THERMOSELECT	IQUANT	1	Thermo Select
FRAMEWORKVERSION	LABEL	7.10.3	Framework Version
INSTRUMENTVERSION	LABEL	4.91	Instrument Version
COMMVERSION	LABEL	2.24	Communications Version
CPUPLDVERSION	LABEL	0.00	CPU PLD Version
CTRLPLDVERSION	LABEL	0.00	CTRL PLD Version
PSTATPLDVERSION	LABEL	0.00	PSTAT PLD Version
CURVE	TABLE	600
	Pt	T	Vf	Im	Vu	Pwr	Sig	Ach	Temp	IERange	Over
	#	s	V	A	V	W	V	V	deg C	#	bits
	0	1	4.07071E+000	9.98355E-007	0.00000E+000	4.06402E-006	0.00000E+000	8.06700E-004	-3.27672E+002	7	...........
	1	2	4.07041E+000	9.97701E-007	0.00000E+000	4.06105E-006	0.00000E+000	8.05233E-004	-3.27672E+002	7	...........
	2	3	4.07026E+000	9.96666E-007	0.00000E+000	4.05669E-006	0.00000E+000	8.01600E-004	-3.27672E+002	7	...........
	3	4	4.07015E+000	9.96802E-007	0.00000E+000	4.05713E-006	0.00000E+000	7.96350E-004	-3.27672E+002	7	...........
	4	5	4.07008E+000	9.96119E-007	0.00000E+000	4.05428E-006	0.00000E+000	7.96100E-004	-3.27672E+002	7	...........
	5	6	4.06999E+000	9.95921E-007	0.00000E+000	4.05339E-006	0.00000E+000	7.95933E-004	-3.27672E+002	7	...........
	6	7	4.06992E+000	9.95266E-007	0.00000E+000	4.05066E-006	0.00000E+000	7.95283E-004	-3.27672E+002	7	...........
	7	8	4.06983E+000	9.95687E-007	0.00000E+000	4.05228E-006	0.00000E+000	7.95183E-004	-3.27672E+002	7	...........
	8	9	4.06976E+000	9.95700E-007	0.00000E+000	4.05226E-006	0.00000E+000	7.95250E-004	-3.27672E+002	7	...........
	9	10	4.06967E+000	9.95690E-007	0.00000E+000	4.05213E-006	0.00000E+000	7.95467E-004	-3.27672E+002	7	...........
	10	11	4.06959E+000	9.95772E-007	0.00000E+000	4.05238E-006	0.00000E+000	7.98150E-004	-3.27672E+002	7	...........
	11	12	4.06952E+000	9.95965E-007	0.00000E+000	4.05310E-006	0.00000E+000	7.99467E-004	-3.27672E+002	7	...........
	12	13	4.06945E+000	9.94959E-007	0.00000E+000	4.04893E-006	0.00000E+000	8.01083E-004	-3.27672E+002	7	...........
	13	14	4.06938E+000	9.95379E-007	0.00000E+000	4.05058E-006	0.00000E+000	7.96383E-004	-3.27672E+002	7	...........
	14	15	4.06931E+000	9.94970E-007	0.00000E+000	4.04884E-006	0.00000E+000	7.96783E-004	-3.27672E+002	7	...........
	15	16	4.06926E+000	9.95330E-007	0.00000E+000	4.05025E-006	0.00000E+000	7.97233E-004	-3.27672E+002	7	...........
	16	17	4.06921E+000	9.95306E-007	0.00000E+000	4.05011E-006	0.00000E+000	7.96717E-004	-3.27672E+002	7	...........
	17	18	4.06916E+000	9.95405E-007	0.00000E+000	4.05046E-006	0.00000E+000	7.95533E-004	-3.27672E+002	7	...........
	18	19	4.06910E+000	9.95540E-007	0.00000E+000	4.05095E-006	0.00000E+000	7.93033E-004	-3.27672E+002	7	...........
	19	20	4.06905E+000	9.95705E-007	0.00000E+000	4.05157E-006	0.00000E+000	7.94283E-004	-3.27672E+002	7	...........
	20	21	4.06901E+000	9.96911E-007	0.00000E+000	4.05644E-006	0.00000E+000	6.01000E-004	-3.27672E+002	7	...........
	21	22	4.06896E+000	9.96890E-007	0.00000E+000	4.05630E-006	0.00000E+000	5.12500E-004	-3.27672E+002	7	...........
	22	23	4.06890E+000	9.96308E-007	0.00000E+000	4.05388E-006	0.00000E+000	5.09350E-004	-3.27672E+002	7	...........
	23	24	4.06884E+000	9.96132E-007	0.00000E+000	4.05311E-006	0.00000E+000	5.08883E-004	-3.27672E+002	7	...........
	24	25	4.06879E+000	9.95363E-007	0.00000E+000	4.04993E-006	0.00000E+000	5.11667E-004	-3.27672E+002	7	...........
	25	26	4.06873E+000	9.95505E-007	0.00000E+000	4.05044E-006	0.00000E+000	5.08617E-004	-3.27672E+002	7	...........
	26	27	4.06868E+000	9.96084E-007	0.00000E+000	4.05275E-006	0.00000E+000	5.11283E-004	-3.27672E+002	7	...........
	27	28	4.06861E+000	9.95184E-007	0.00000E+000	4.04902E-006	0.00000E+000	5.09433E-004	-3.27672E+002	7	...........
	28	29	4.06856E+000	9.95895E-007	0.00000E+000	4.05186E-006	0.00000E+000	5.13200E-004	-3.27672E+002	7	...........
	29	30	4.06850E+000	9.96054E-007	0.00000E+000	4.05244E-006	0.00000E+000	5.12017E-004	-3.27672E+002	7	...........
	30	31	4.06845E+000	9.96001E-007	0.00000E+000	4.05218E-006	0.00000E+000	5.12600E-004	-3.27672E+002	7	...........
	31	32	4.06839E+000	9.95917E-007	0.00000E+000	4.05178E-006	0.00000E+000	5.14167E-004	-3.27672E+002	7	...........
	32	33	4.06832E+000	9.96534E-007	0.00000E+000	4.05422E-006	0.00000E+000	5.16317E-004	-3.27672E+002	7	...........
	33	34	4.06827E+000	9.96415E-007	0.00000E+000	4.05368E-006	0.00000E+000	5.19433E-004	-3.27672E+002	7	...........
	34	35	4.06820E+000	9.97180E-007	0.00000E+000	4.05673E-006	0.00000E+000	5.19450E-004	-3.27672E+002	7	...........
	35	36	4.06815E+000	9.96895E-007	0.00000E+000	4.05552E-006	0.00000E+000	5.20483E-004	-3.27672E+002	7	...........
	36	37	4.06809E+000	9.95582E-007	0.00000E+000	4.05012E-006	0.00000E+000	5.19283E-004	-3.27672E+002	7	...........
	37	38	4.06805E+000	9.96187E-007	0.00000E+000	4.05253E-006	0.00000E+000	5.21033E-004	-3.27672E+002	7	...........
	38	39	4.06799E+000	9.95305E-007	0.00000E+000	4.04889E-006	0.00000E+000	5.22467E-004	-3.27672E+002	7	...........
	39	40	4.06793E+000	9.95954E-007	0.00000E+000	4.05147E-006	0.00000E+000	5.24117E-004	-3.27672E+002	7	...........
	40	41	4.06789E+000	9.96737E-007	0.00000E+000	4.05461E-006	0.00000E+000	5.23950E-004	-3.27672E+002	7	...........
	41	42	4.06784E+000	9.98076E-007	0.00000E+000	4.06001E-006	0.00000E+000	5.25617E-004	-3.27672E+002	7	...........
	42	43	4.06779E+000	9.97350E-007	0.00000E+000	4.05701E-006	0.00000E+000	5.24100E-004	-3.27672E+002	7	...........
	43	44	4.06773E+000	9.98267E-007	0.00000E+000	4.06068E-006	0.00000E+000	5.23133E-004	-3.27672E+002	7	...........
	44	45	4.06769E+000	9.98107E-007	0.00000E+000	4.05999E-006	0.00000E+000	5.25433E-004	-3.27672E+002	7	...........
	45	46	4.06766E+000	9.97968E-007	0.00000E+000	4.05939E-006	0.00000E+000	5.24967E-004	-3.27672E+002	7	...........
	46	47	4.06762E+000	9.96997E-007	0.00000E+000	4.05541E-006	0.00000E+000	5.24567E-004	-3.27672E+002	7	...........
	47	48	4.06759E+000	9.96744E-007	0.00000E+000	4.05434E-006	0.00000E+000	5.24950E-004	-3.27672E+002	7	...........
	48	49	4.06756E+000	9.96695E-007	0.00000E+000	4.05411E-006	0.00000E+000	5.26067E-004	-3.27672E+002	7	...........
	49	50	4.06752E+000	9.97307E-007	0.00000E+000	4.05656E-006	0.00000E+000	5.22083E-004	-3.27672E+002	7	...........
	50	51	4.06748E+000	9.97166E-007	0.00000E+000	4.05595E-006	0.00000E+000	5.22717E-004	-3.27672E+002	7	...........
	51	52	4.06745E+000	9.96953E-007	0.00000E+000	4.05506E-006	0.00000E+000	5.21017E-004	-3.27672E+002	7	...........
	52	53	4.06742E+000	9.96865E-007	0.00000E+000	4.05467E-006	0.00000E+000	5.20250E-004	-3.27672E+002	7	...........
	53	54	4.06739E+000	9.96954E-007	0.00000E+000	4.05500E-006	0.00000E+000	5.17183E-004	-3.27672E+002	7	...........
	54	55	4.06737E+000	9.97818E-007	0.00000E+000	4.05849E-006	0.00000E+000	5.20267E-004	-3.27672E+002	7	...........
	55	56	4.06733E+000	9.97697E-007	0.00000E+000	4.05796E-006	0.00000E+000	5.16783E-004	-3.27672E+002	7	...........
	56	57	4.06729E+000	9.97345E-007	0.00000E+000	4.05649E-006	0.00000E+000	5.19050E-004	-3.27672E+002	7	...........
	57	58	4.06727E+000	9.97538E-007	0.00000E+000	4.05725E-006	0.00000E+000	5.16867E-004	-3.27672E+002	7	...........
	58	59	4.06723E+000	9.97956E-007	0.00000E+000	4.05891E-006	0.00000E+000	5.16117E-004	-3.27672E+002	7	...........
	59	60	4.06720E+000	9.96965E-007	0.00000E+000	4.05486E-006	0.00000E+000	5.18133E-004	-3.27672E+002	7	...........
	60	61	4.06716E+000	9.97692E-007	0.00000E+000	4.05778E-006	0.00000E+000	5.13283E-004	-3.27672E+002	7	...........
	61	62	4.06713E+000	9.97592E-007	0.00000E+000	4.05734E-006	0.00000E+000	5.11583E-004	-3.27672E+002	7	...........
	62	63	4.06710E+000	9.98091E-007	0.00000E+000	4.05933E-006	0.00000E+000	5.11033E-004	-3.27672E+002	7	...........
	63	64	4.06707E+000	9.98480E-007	0.00000E+000	4.06089E-006	0.00000E+000	5.11233E-004	-3.27672E+002	7	...........
	64	65	4.06703E+000	9.98310E-007	0.00000E+000	4.06016E-006	0.00000E+000	5.13517E-004	-3.27672E+002	7	...........
	65	66	4.06700E+000	9.98181E-007	0.00000E+000	4.05960E-006	0.00000E+000	5.11083E-004	-3.27672E+002	7	...........
	66	67	4.06697E+000	9.97824E-007	0.00000E+000	4.05812E-006	0.00000E+000	5.13317E-004	-3.27672E+002	7	...........
	67	68	4.06693E+000	9.97774E-007	0.00000E+000	4.05788E-006	0.00000E+000	5.12400E-004	-3.27672E+002	7	...........
	68	69	4.06690E+000	9.98025E-007	0.00000E+000	4.05887E-006	0.00000E+000	5.11367E-004	-3.27672E+002	7	...........
	69	70	4.06686E+000	9.97344E-007	0.00000E+000	4.05606E-006	0.00000E+000	5.11450E-004	-3.27672E+002	7	...........
	70	71	4.06683E+000	9.97224E-007	0.00000E+000	4.05554E-006	0.00000E+000	5.09800E-004	-3.27672E+002	7	...........
	71	72	4.06680E+000	9.98238E-007	0.00000E+000	4.05963E-006	0.00000E+000	5.12550E-004	-3.27672E+002	7	...........
	72	73	4.06676E+000	9.97469E-007	0.00000E+000	4.05647E-006	0.00000E+000	5.09233E-004	-3.27672E+002	7	...........
	73	74	4.06673E+000	9.97246E-007	0.00000E+000	4.05553E-006	0.00000E+000	5.09900E-004	-3.27672E+002	7	...........
	74	75	4.06670E+000	9.97780E-007	0.00000E+000	4.05767E-006	0.00000E+000	5.13467E-004	-3.27672E+002	7	...........
	75	76	4.06668E+000	9.97174E-007	0.00000E+000	4.05519E-006	0.00000E+000	5.07217E-004	-3.27672E+002	7	...........
	76	77	4.06664E+000	9.97536E-007	0.00000E+000	4.05662E-006	0.00000E+000	5.09817E-004	-3.27672E+002	7	...........
	77	78	4.06661E+000	9.97946E-007	0.00000E+000	4.05826E-006	0.00000E+000	5.10800E-004	-3.27672E+002	7	...........
	78	79	4.06658E+000	9.98262E-007	0.00000E+000	4.05951E-006	0.00000E+000	5.09867E-004	-3.27672E+002	7	...........
	79	80	4.06654E+000	9.97990E-007	0.00000E+000	4.05837E-006	0.00000E+000	5.12383E-004	-3.27672E+002	7	...........
	80	81	4.06651E+000	9.97603E-007	0.00000E+000	4.05677E-006	0.00000E+000	5.11083E-004	-3.27672E+002	7	...........
	81	82	4.06648E+000	9.97599E-007	0.00000E+000	4.05671E-006	0.00000E+000	5.09733E-004	-3.27672E+002	7	...........
	82	83	4.06645E+000	9.98454E-007	0.00000E+000	4.06017E-006	0.00000E+000	5.11933E-004	-3.27672E+002	7	...........
	83	84	4.06643E+000	9.98501E-007	0.00000E+000	4.06034E-006	0.00000E+000	5.15150E-004	-3.27672E+002	7	...........
	84	85	4.06640E+000	9.98147E-007	0.00000E+000	4.05887E-006	0.00000E+000	5.14050E-004	-3.27672E+002	7	...........
	85	86	4.06637E+000	9.98982E-007	0.00000E+000	4.06223E-006	0.00000E+000	5.13517E-004	-3.27672E+002	7	...........
	86	87	4.06635E+000	9.98241E-007	0.00000E+000	4.05920E-006	0.00000E+000	5.13567E-004	-3.27672E+002	7	...........
	87	88	4.06633E+000	9.99122E-007	0.00000E+000	4.06276E-006	0.00000E+000	5.13633E-004	-3.27672E+002	7	...........
	88	89	4.06629E+000	9.99757E-007	0.00000E+000	4.06531E-006	0.00000E+000	5.20850E-004	-3.27672E+002	7	...........
	89	90	4.06628E+000	9.98987E-007	0.00000E+000	4.06215E-006	0.00000E+000	5.18117E-004	-3.27672E+002	7	...........
	90	91	4.06626E+000	9.98471E-007	0.00000E+000	4.06004E-006	0.00000E+000	5.15167E-004	-3.27672E+002	7	...........
	91	92	4.06623E+000	9.98186E-007	0.00000E+000	4.05885E-006	0.00000E+000	5.17783E-004	-3.27672E+002	7	...........
	92	93	4.06622E+000	9.98526E-007	0.00000E+000	4.06022E-006	0.00000E+000	5.16917E-004	-3.27672E+002	7	...........
	93	94	4.06619E+000	9.97656E-007	0.00000E+000	4.05666E-006	0.00000E+000	5.14350E-004	-3.27672E+002	7	...........
	94	95	4.06617E+000	9.98186E-007	0.00000E+000	4.05880E-006	0.00000E+000	5.16050E-004	-3.27672E+002	7	...........
	95	96	4.06615E+000	9.97245E-007	0.00000E+000	4.05495E-006	0.00000E+000	5.15317E-004	-3.27672E+002	7	...........
	96	97	4.06613E+000	9.98032E-007	0.00000E+000	4.05813E-006	0.00000E+000	5.19783E-004	-3.27672E+002	7	...........
	97	98	4.06611E+000	9.98111E-007	0.00000E+000	4.05842E-006	0.00000E+000	5.15967E-004	-3.27672E+002	7	...........
	98	99	4.06609E+000	9.98322E-007	0.00000E+000	4.05927E-006	0.00000E+000	5.16550E-004	-3.27672E+002	7	...........
	99	100	4.06608E+000	9.98957E-007	0.00000E+000	4.06184E-006	0.00000E+000	5.17583E-004	-3.27672E+002	7	...........
	100	101	4.06605E+000	9.99710E-007	0.00000E+000	4.06488E-006	0.00000E+000	5.17117E-004	-3.27672E+002	7	...........
	101	102	4.06604E+000	9.99004E-007	0.00000E+000	4.06199E-006	0.00000E+000	5.16250E-004	-3.27672E+002	7	...........
	102	103	4.06603E+000	1.00015E-006	0.00000E+000	4.06662E-006	0.00000E+000	5.15033E-004	-3.27672E+002	7	...........
	103	104	4.06602E+000	9.98844E-007	0.00000E+000	4.06132E-006	0.00000E+000	5.19950E-004	-3.27672E+002	7	...........
	104	105	4.06599E+000	9.98646E-007	0.00000E+000	4.06049E-006	0.00000E+000	5.19083E-004	-3.27672E+002	7	...........
	105	106	4.06598E+000	9.98905E-007	0.00000E+000	4.06153E-006	0.00000E+000	5.20117E-004	-3.27672E+002	7	...........
	106	107	4.06595E+000	9.99363E-007	0.00000E+000	4.06336E-006	0.00000E+000	5.20100E-004	-3.27672E+002	7	...........
	107	108	4.06595E+000	9.98871E-007	0.00000E+000	4.06136E-006	0.00000E+000	5.18217E-004	-3.27672E+002	7	...........
	108	109	4.06593E+000	9.98228E-007	0.00000E+000	4.05873E-006	0.00000E+000	5.19450E-004	-3.27672E+002	7	...........
	109	110	4.06592E+000	9.99384E-007	0.00000E+000	4.06341E-006	0.00000E+000	5.18333E-004	-3.27672E+002	7	...........
	110	111	4.06590E+000	9.98444E-007	0.00000E+000	4.05957E-006	0.00000E+000	5.18967E-004	-3.27672E+002	7	...........
	111	112	4.06588E+000	9.98989E-007	0.00000E+000	4.06177E-006	0.00000E+000	5.17883E-004	-3.27672E+002	7	...........
	112	113	4.06587E+000	1.00030E-006	0.00000E+000	4.06710E-006	0.00000E+000	5.17317E-004	-3.27672E+002	7	...........
	113	114	4.06585E+000	9.99710E-007	0.00000E+000	4.06467E-006	0.00000E+000	5.16217E-004	-3.27672E+002	7	...........
	114	115	4.06584E+000	9.98988E-007	0.00000E+000	4.06173E-006	0.00000E+000	5.18300E-004	-3.27672E+002	7	...........
	115	116	4.06583E+000	9.98483E-007	0.00000E+000	4.05966E-006	0.00000E+000	5.16367E-004	-3.27672E+002	7	...........
	116	117	4.06581E+000	9.99320E-007	0.00000E+000	4.06304E-006	0.00000E+000	5.19867E-004	-3.27672E+002	7	...........
	117	118	4.06579E+000	9.99746E-007	0.00000E+000	4.06476E-006	0.00000E+000	5.18233E-004	-3.27672E+002	7	...........
	118	119	4.06577E+000	9.98998E-007	0.00000E+000	4.06170E-006	0.00000E+000	5.19033E-004	-3.27672E+002	7	...........
	119	120	4.06575E+000	9.99704E-007	0.00000E+000	4.06455E-006	0.00000E+000	5.21350E-004	-3.27672E+002	7	...........
	120	121	4.06574E+000	1.00068E-006	0.00000E+000	4.06851E-006	0.00000E+000	5.18683E-004	-3.27672E+002	7	...........
	121	122	4.06572E+000	9.99748E-007	0.00000E+000	4.06469E-006	0.00000E+000	5.22633E-004	-3.27672E+002	7	...........
	122	123	4.06570E+000	9.99949E-007	0.00000E+000	4.06549E-006	0.00000E+000	5.18767E-004	-3.27672E+002	7	...........
	123	124	4.06568E+000	9.99817E-007	0.00000E+000	4.06494E-006	0.00000E+000	5.22733E-004	-3.27672E+002	7	...........
	124	125	4.06566E+000	9.99932E-007	0.00000E+000	4.06538E-006	0.00000E+000	5.21817E-004	-3.27672E+002	7	...........
	125	126	4.06564E+000	1.00000E-006	0.00000E+000	4.06566E-006	0.00000E+000	5.19900E-004	-3.27672E+002	7	...........
	126	127	4.06562E+000	9.98841E-007	0.00000E+000	4.06091E-006	0.00000E+000	5.19417E-004	-3.27672E+002	7	...........
	127	128	4.06561E+000	9.99524E-007	0.00000E+000	4.06367E-006	0.00000E+000	5.17950E-004	-3.27672E+002	7	...........
	128	129	4.06558E+000	9.99579E-007	0.00000E+000	4.06387E-006	0.00000E+000	5.20267E-004	-3.27672E+002	7	...........
	129	130	4.06555E+000	9.99903E-007	0.00000E+000	4.06516E-006	0.00000E+000	5.20067E-004	-3.27672E+002	7	...........
	130	131	4.06554E+000	9.99786E-007	0.00000E+000	4.06467E-006	0.00000E+000	5.18533E-004	-3.27672E+002	7	...........
	131	132	4.06552E+000	1.00040E-006	0.00000E+000	4.06716E-006	0.00000E+000	5.21417E-004	-3.27672E+002	7	...........
	132	133	4.06551E+000	1.00039E-006	0.00000E+000	4.06707E-006	0.00000E+000	5.19917E-004	-3.27672E+002	7	...........
	133	134	4.06548E+000	9.99844E-007	0.00000E+000	4.06485E-006	0.00000E+000	5.21850E-004	-3.27672E+002	7	...........
	134	135	4.06547E+000	9.99966E-007	0.00000E+000	4.06533E-006	0.00000E+000	5.20817E-004	-3.27672E+002	7	...........
	135	136	4.06546E+000	9.99714E-007	0.00000E+000	4.06429E-006	0.00000E+000	5.23000E-004	-3.27672E+002	7	...........
	136	137	4.06542E+000	1.00046E-006	0.00000E+000	4.06729E-006	0.00000E+000	5.21667E-004	-3.27672E+002	7	...........
	137	138	4.06541E+000	9.99690E-007	0.00000E+000	4.06416E-006	0.00000E+000	5.18850E-004	-3.27672E+002	7	...........
	138	139	4.06540E+000	9.99825E-007	0.00000E+000	4.06469E-006	0.00000E+000	5.21117E-004	-3.27672E+002	7	...........
	139	140	4.06536E+000	1.00025E-006	0.00000E+000	4.06639E-006	0.00000E+000	5.21867E-004	-3.27672E+002	7	...........
	140	141	4.06534E+000	9.98891E-007	0.00000E+000	4.06083E-006	0.00000E+000	5.20617E-004	-3.27672E+002	7	...........
	141	142	4.06532E+000	9.99386E-007	0.00000E+000	4.06283E-006	0.00000E+000	5.19600E-004	-3.27672E+002	7	...........
	142	143	4.06531E+000	9.99052E-007	0.00000E+000	4.06146E-006	0.00000E+000	5.20367E-004	-3.27672E+002	7	...........
	143	144	4.06528E+000	9.99722E-007	0.00000E+000	4.06415E-006	0.00000E+000	5.21283E-004	-3.27672E+002	7	...........
	144	145	4.06526E+000	9.99680E-007	0.00000E+000	4.06396E-006	0.00000E+000	5.23783E-004	-3.27672E+002	7	...........
	145	146	4.06524E+000	9.99985E-007	0.00000E+000	4.06518E-006	0.00000E+000	5.22000E-004	-3.27672E+002	7	...........
	146	147	4.06521E+000	1.00059E-006	0.00000E+000	4.06760E-006	0.00000E+000	5.18433E-004	-3.27672E+002	7	...........
	147	148	4.06520E+000	1.00108E-006	0.00000E+000	4.06960E-006	0.00000E+000	5.21267E-004	-3.27672E+002	7	...........
	148	149	4.06519E+000	1.00026E-006	0.00000E+000	4.06624E-006	0.00000E+000	5.19900E-004	-3.27672E+002	7	...........
	149	150	4.06515E+000	1.00002E-006	0.00000E+000	4.06522E-006	0.00000E+000	5.20317E-004	-3.27672E+002	7	...........
	150	151	4.06513E+000	9.99582E-007	0.00000E+000	4.06343E-006	0.00000E+000	5.22867E-004	-3.27672E+002	7	...........
	151	152	4.06510E+000	1.00070E-006	0.00000E+000	4.06795E-006	0.00000E+000	5.21900E-004	-3.27672E+002	7	...........
	152	153	4.06509E+000	1.00078E-006	0.00000E+000	4.06826E-006	0.00000E+000	5.24350E-004	-3.27672E+002	7	...........
	153	154	4.06505E+000	1.00088E-006	0.00000E+000	4.06863E-006	0.00000E+000	5.21983E-004	-3.27672E+002	7	...........
	154	155	4.06504E+000	1.00084E-006	0.00000E+000	4.06844E-006	0.00000E+000	5.21367E-004	-3.27672E+002	7	...........
	155	156	4.06501E+000	1.00072E-006	0.00000E+000	4.06795E-006	0.00000E+000	5.21617E-004	-3.27672E+002	7	...........
	156	157	4.06499E+000	1.00040E-006	0.00000E+000	4.06662E-006	0.00000E+000	5.22983E-004	-3.27672E+002	7	...........
	157	158	4.06497E+000	1.00027E-006	0.00000E+000	4.06606E-006	0.00000E+000	5.23100E-004	-3.27672E+002	7	...........
	158	159	4.06495E+000	1.00041E-006	0.00000E+000	4.06661E-006	0.00000E+000	5.21083E-004	-3.27672E+002	7	...........
	159	160	4.06493E+000	9.99578E-007	0.00000E+000	4.06321E-006	0.00000E+000	5.23233E-004	-3.27672E+002	7	...........
	160	161	4.06489E+000	9.99772E-007	0.00000E+000	4.06396E-006	0.00000E+000	5.22133E-004	-3.27672E+002	7	...........
	161	162	4.06488E+000	9.99869E-007	0.00000E+000	4.06435E-006	0.00000E+000	5.26050E-004	-3.27672E+002	7	...........
	162	163	4.06486E+000	1.00027E-006	0.00000E+000	4.06598E-006	0.00000E+000	5.21100E-004	-3.27672E+002	7	...........
	163	164	4.06483E+000	1.00070E-006	0.00000E+000	4.06766E-006	0.00000E+000	5.22617E-004	-3.27672E+002	7	...........
	164	165	4.06480E+000	9.99916E-007	0.00000E+000	4.06445E-006	0.00000E+000	5.24233E-004	-3.27672E+002	7	...........
	165	166	4.06479E+000	1.00029E-006	0.00000E+000	4.06598E-006	0.00000E+000	5.22383E-004	-3.27672E+002	7	...........
	166	167	4.06476E+000	9.99971E-007	0.00000E+000	4.06464E-006	0.00000E+000	5.24933E-004	-3.27672E+002	7	...........
	167	168	4.06475E+000	9.99632E-007	0.00000E+000	4.06325E-006	0.00000E+000	5.23450E-004	-3.27672E+002	7	...........
	168	169	4.06473E+000	1.00031E-006	0.00000E+000	4.06597E-006	0.00000E+000	5.22083E-004	-3.27672E+002	7	...........
	169	170	4.06470E+000	1.00142E-006	0.00000E+000	4.07046E-006	0.00000E+000	5.23683E-004	-3.27672E+002	7	...........
	170	171	4.06467E+000	1.00187E-006	0.00000E+000	4.07228E-006	0.00000E+000	5.22150E-004	-3.27672E+002	7	...........
	171	172	4.06466E+000	1.00186E-006	0.00000E+000	4.07224E-006	0.00000E+000	5.24717E-004	-3.27672E+002	7	...........
	172	173	4.06462E+000	1.00101E-006	0.00000E+000	4.06872E-006	0.00000E+000	5.25233E-004	-3.27672E+002	7	...........
	173	174	4.06461E+000	1.00140E-006	0.00000E+000	4.07031E-006	0.00000E+000	5.26217E-004	-3.27672E+002	7	...........
	174	175	4.06459E+000	1.00031E-006	0.00000E+000	4.06583E-006	0.00000E+000	5.25967E-004	-3.27672E+002	7	...........
	175	176	4.06457E+000	1.00043E-006	0.00000E+000	4.06632E-006	0.00000E+000	5.22800E-004	-3.27672E+002	7	...........
	176	177	4.06456E+000	9.99593E-007	0.00000E+000	4.06290E-006	0.00000E+000	5.24000E-004	-3.27672E+002	7	...........
	177	178	4.06454E+000	1.00083E-006	0.00000E+000	4.06791E-006	0.00000E+000	5.25317E-004	-3.27672E+002	7	...........
	178	179	4.06452E+000	1.00115E-006	0.00000E+000	4.06921E-006	0.00000E+000	5.25350E-004	-3.27672E+002	7	...........
	179	180	4.06449E+000	1.00094E-006	0.00000E+000	4.06831E-006	0.00000E+000	5.23267E-004	-3.27672E+002	7	...........
	180	181	4.06448E+000	1.00115E-006	0.00000E+000	4.06917E-006	0.00000E+000	5.22017E-004	-3.27672E+002	7	...........
	181	182	4.06446E+000	1.00135E-006	0.00000E+000	4.06995E-006	0.00000E+000	5.24733E-004	-3.27672E+002	7	...........
	182	183	4.06444E+000	1.00008E-006	0.00000E+000	4.06478E-006	0.00000E+000	5.21750E-004	-3.27672E+002	7	...........
	183	184	4.06442E+000	1.00096E-006	0.00000E+000	4.06834E-006	0.00000E+000	5.23483E-004	-3.27672E+002	7	...........
	184	185	4.06439E+000	1.00052E-006	0.00000E+000	4.06650E-006	0.00000E+000	5.22200E-004	-3.27672E+002	7	...........
	185	186	4.06438E+000	1.00026E-006	0.00000E+000	4.06542E-006	0.00000E+000	5.22167E-004	-3.27672E+002	7	...........
	186	187	4.06436E+000	9.99521E-007	0.00000E+000	4.06241E-006	0.00000E+000	5.21917E-004	-3.27672E+002	7	...........
	187	188	4.06434E+000	1.00031E-006	0.00000E+000	4.06559E-006	0.00000E+000	5.21767E-004	-3.27672E+002	7	...........
	188	189	4.06434E+000	1.00024E-006	0.00000E+000	4.06533E-006	0.00000E+000	5.22067E-004	-3.27672E+002	7	...........
	189	190	4.06432E+000	9.99918E-007	0.00000E+000	4.06398E-006	0.00000E+000	5.19567E-004	-3.27672E+002	7	...........
	190	191	4.06429E+000	1.00074E-006	0.00000E+000	4.06731E-006	0.00000E+000	5.22417E-004	-3.27672E+002	7	...........
	191	192	4.06428E+000	1.00088E-006	0.00000E+000	4.06787E-006	0.00000E+000	5.19300E-004	-3.27672E+002	7	...........
	192	193	4.06426E+000	1.00130E-006	0.00000E+000	4.06954E-006	0.00000E+000	5.22733E-004	-3.27672E+002	7	...........
	193	194	4.06425E+000	1.00168E-006	0.00000E+000	4.07106E-006	0.00000E+000	5.21017E-004	-3.27672E+002	7	...........
	194	195	4.06423E+000	1.00085E-006	0.00000E+000	4.06769E-006	0.00000E+000	5.19900E-004	-3.27672E+002	7	...........
	195	196	4.06422E+000	1.00123E-006	0.00000E+000	4.06923E-006	0.00000E+000	5.17433E-004	-3.27672E+002	7	...........
	196	197	4.06420E+000	1.00118E-006	0.00000E+000	4.06900E-006	0.00000E+000	5.21633E-004	-3.27672E+002	7	...........
	197	198	4.06419E+000	1.00103E-006	0.00000E+000	4.06837E-006	0.00000E+000	5.16550E-004	-3.27672E+002	7	...........
	198	199	4.06417E+000	1.00090E-006	0.00000E+000	4.06784E-006	0.00000E+000	5.22567E-004	-3.27672E+002	7	...........
	199	200	4.06416E+000	1.00112E-006	0.00000E+000	4.06870E-006	0.00000E+000	5.18717E-004	-3.27672E+002	7	...........
	200	201	4.06415E+000	1.00110E-006	0.00000E+000	4.06864E-006	0.00000E+000	5.20400E-004	-3.27672E+002	7	...........
	201	202	4.06413E+000	1.00084E-006	0.00000E+000	4.06754E-006	0.00000E+000	5.18983E-004	-3.27672E+002	7	...........
	202	203	4.06412E+000	1.00074E-006	0.00000E+000	4.06713E-006	0.00000E+000	5.16900E-004	-3.27672E+002	7	...........
	203	204	4.06411E+000	1.00121E-006	0.00000E+000	4.06903E-006	0.00000E+000	5.18033E-004	-3.27672E+002	7	...........
	204	205	4.06410E+000	1.00083E-006	0.00000E+000	4.06747E-006	0.00000E+000	5.20233E-004	-3.27672E+002	7	...........
	205	206	4.06408E+000	1.00108E-006	0.00000E+000	4.06849E-006	0.00000E+000	5.15933E-004	-3.27672E+002	7	...........
	206	207	4.06407E+000	1.00089E-006	0.00000E+000	4.06767E-006	0.00000E+000	5.14767E-004	-3.27672E+002	7	...........
	207	208	4.06405E+000	1.00096E-006	0.00000E+000	4.06794E-006	0.00000E+000	5.14217E-004	-3.27672E+002	7	...........
	208	209	4.06405E+000	1.00005E-006	0.00000E+000	4.06426E-006	0.00000E+000	5.15183E-004	-3.27672E+002	7	...........
	209	210	4.06403E+000	1.00095E-006	0.00000E+000	4.06791E-006	0.00000E+000	5.15167E-004	-3.27672E+002	7	...........
	210	211	4.06402E+000	1.00012E-006	0.00000E+000	4.06450E-006	0.00000E+000	5.14483E-004	-3.27672E+002	7	...........
	211	212	4.06401E+000	1.00048E-006	0.00000E+000	4.06595E-006	0.00000E+000	5.15567E-004	-3.27672E+002	7	...........
	212	213	4.06400E+000	1.00035E-006	0.00000E+000	4.06542E-006	0.00000E+000	5.12500E-004	-3.27672E+002	7	...........
	213	214	4.06400E+000	1.00051E-006	0.00000E+000	4.06607E-006	0.00000E+000	5.12183E-004	-3.27672E+002	7	...........
	214	215	4.06399E+000	1.00106E-006	0.00000E+000	4.06830E-006	0.00000E+000	5.16817E-004	-3.27672E+002	7	...........
	215	216	4.06398E+000	1.00150E-006	0.00000E+000	4.07007E-006	0.00000E+000	5.14600E-004	-3.27672E+002	7	...........
	216	217	4.06397E+000	1.00147E-006	0.00000E+000	4.06994E-006	0.00000E+000	5.16883E-004	-3.27672E+002	7	...........
	217	218	4.06396E+000	1.00090E-006	0.00000E+000	4.06763E-006	0.00000E+000	5.14550E-004	-3.27672E+002	7	...........
	218	219	4.06395E+000	1.00102E-006	0.00000E+000	4.06809E-006	0.00000E+000	5.12733E-004	-3.27672E+002	7	...........
	219	220	4.06394E+000	1.00165E-006	0.00000E+000	4.07063E-006	0.00000E+000	5.13583E-004	-3.27672E+002	7	...........
	220	221	4.06393E+000	1.00035E-006	0.00000E+000	4.06537E-006	0.00000E+000	5.14617E-004	-3.27672E+002	7	...........
	221	222	4.06392E+000	1.00155E-006	0.00000E+000	4.07023E-006	0.00000E+000	5.14017E-004	-3.27672E+002	7	...........
	222	223	4.06391E+000	1.00068E-006	0.00000E+000	4.06667E-006	0.00000E+000	5.11267E-004	-3.27672E+002	7	...........
	223	224	4.06391E+000	1.00124E-006	0.00000E+000	4.06894E-006	0.00000E+000	5.13833E-004	-3.27672E+002	7	...........
	224	225	4.06390E+000	1.00094E-006	0.00000E+000	4.06771E-006	0.00000E+000	5.11850E-004	-3.27672E+002	7	...........
	225	226	4.06390E+000	1.00096E-006	0.00000E+000	4.06780E-006	0.00000E+000	5.12450E-004	-3.27672E+002	7	...........
	226	227	4.06389E+000	1.00143E-006	0.00000E+000	4.06970E-006	0.00000E+000	5.09833E-004	-3.27672E+002	7	...........
	227	228	4.06388E+000	1.00130E-006	0.00000E+000	4.06918E-006	0.00000E+000	5.13783E-004	-3.27672E+002	7	...........
	228	229	4.06387E+000	1.00142E-006	0.00000E+000	4.06966E-006	0.00000E+000	5.11433E-004	-3.27672E+002	7	...........
	229	230	4.06386E+000	1.00190E-006	0.00000E+000	4.07158E-006	0.00000E+000	5.12650E-004	-3.27672E+002	7	...........
	230	231	4.06386E+000	1.00166E-006	0.00000E+000	4.07061E-006	0.00000E+000	5.11600E-004	-3.27672E+002	7	...........
	231	232	4.06385E+000	1.00122E-006	0.00000E+000	4.06883E-006	0.00000E+000	5.08017E-004	-3.27672E+002	7	...........
	232	233	4.06384E+000	1.00162E-006	0.00000E+000	4.07042E-006	0.00000E+000	5.11467E-004	-3.27672E+002	7	...........
	233	234	4.06384E+000	1.00203E-006	0.00000E+000	4.07207E-006	0.00000E+000	5.12367E-004	-3.27672E+002	7	...........
	234	235	4.06383E+000	1.00122E-006	0.00000E+000	4.06878E-006	0.00000E+000	5.11350E-004	-3.27672E+002	7	...........
	235	236	4.06383E+000	1.00128E-006	0.00000E+000	4.06904E-006	0.00000E+000	5.09817E-004	-3.27672E+002	7	...........
	236	237	4.06383E+000	1.00158E-006	0.00000E+000	4.07026E-006	0.00000E+000	5.09517E-004	-3.27672E+002	7	...........
	237	238	4.06382E+000	1.00214E-006	0.00000E+000	4.07251E-006	0.00000E+000	5.08233E-004	-3.27672E+002	7	...........
	238	239	4.06381E+000	1.00218E-006	0.00000E+000	4.07266E-006	0.00000E+000	5.08117E-004	-3.27672E+002	7	...........
	239	240	4.06380E+000	1.00252E-006	0.00000E+000	4.07405E-006	0.00000E+000	5.11633E-004	-3.27672E+002	7	...........
	240	241	4.06380E+000	1.00187E-006	0.00000E+000	4.07138E-006	0.00000E+000	5.11183E-004	-3.27672E+002	7	...........
	241	242	4.06379E+000	1.00179E-006	0.00000E+000	4.07107E-006	0.00000E+000	5.12617E-004	-3.27672E+002	7	...........
	242	243	4.06379E+000	1.00192E-006	0.00000E+000	4.07161E-006	0.00000E+000	5.08483E-004	-3.27672E+002	7	...........
	243	244	4.06377E+000	1.00211E-006	0.00000E+000	4.07237E-006	0.00000E+000	5.08900E-004	-3.27672E+002	7	...........
	244	245	4.06377E+000	1.00205E-006	0.00000E+000	4.07208E-006	0.00000E+000	5.14617E-004	-3.27672E+002	7	...........
	245	246	4.06377E+000	1.00174E-006	0.00000E+000	4.07084E-006	0.00000E+000	5.08433E-004	-3.27672E+002	7	...........
	246	247	4.06376E+000	1.00138E-006	0.00000E+000	4.06937E-006	0.00000E+000	5.06683E-004	-3.27672E+002	7	...........
	247	248	4.06375E+000	1.00241E-006	0.00000E+000	4.07356E-006	0.00000E+000	5.10500E-004	-3.27672E+002	7	...........
	248	249	4.06375E+000	1.00232E-006	0.00000E+000	4.07318E-006	0.00000E+000	5.08650E-004	-3.27672E+002	7	...........
	249	250	4.06374E+000	1.00171E-006	0.00000E+000	4.07069E-006	0.00000E+000	5.10133E-004	-3.27672E+002	7	...........
	250	251	4.06374E+000	1.00213E-006	0.00000E+000	4.07240E-006	0.00000E+000	5.11283E-004	-3.27672E+002	7	...........
	251	252	4.06373E+000	1.00172E-006	0.00000E+000	4.07071E-006	0.00000E+000	5.10567E-004	-3.27672E+002	7	...........
	252	253	4.06372E+000	1.00164E-006	0.00000E+000	4.07040E-006	0.00000E+000	5.14183E-004	-3.27672E+002	7	...........
	253	254	4.06372E+000	1.00146E-006	0.00000E+000	4.06964E-006	0.00000E+000	5.10250E-004	-3.27672E+002	7	...........
	254	255	4.06371E+000	1.00156E-006	0.00000E+000	4.07004E-006	0.00000E+000	5.11750E-004	-3.27672E+002	7	...........
	255	256	4.06371E+000	1.00185E-006	0.00000E+000	4.07123E-006	0.00000E+000	5.11600E-004	-3.27672E+002	7	...........
	256	257	4.06370E+000	1.00113E-006	0.00000E+000	4.06830E-006	0.00000E+000	5.10317E-004	-3.27672E+002	7	...........
	257	258	4.06369E+000	1.00180E-006	0.00000E+000	4.07099E-006	0.00000E+000	5.10683E-004	-3.27672E+002	7	...........
	258	259	4.06370E+000	1.00185E-006	0.00000E+000	4.07120E-006	0.00000E+000	5.07367E-004	-3.27672E+002	7	...........
	259	260	4.06369E+000	1.00168E-006	0.00000E+000	4.07050E-006	0.00000E+000	5.13017E-004	-3.27672E+002	7	...........
	260	261	4.06367E+000	1.00259E-006	0.00000E+000	4.07421E-006	0.00000E+000	5.12250E-004	-3.27672E+002	7	...........
	261	262	4.06367E+000	1.00248E-006	0.00000E+000	4.07373E-006	0.00000E+000	5.08483E-004	-3.27672E+002	7	...........
	262	263	4.06366E+000	1.00306E-006	0.00000E+000	4.07611E-006	0.00000E+000	5.07700E-004	-3.27672E+002	7	...........
	263	264	4.06366E+000	1.00232E-006	0.00000E+000	4.07308E-006	0.00000E+000	5.09667E-004	-3.27672E+002	7	...........
	264	265	4.06366E+000	1.00185E-006	0.00000E+000	4.07119E-006	0.00000E+000	5.10733E-004	-3.27672E+002	7	...........
	265	266	4.06365E+000	1.00237E-006	0.00000E+000	4.07330E-006	0.00000E+000	5.08167E-004	-3.27672E+002	7	...........
	266	267	4.06364E+000	1.00101E-006	0.00000E+000	4.06776E-006	0.00000E+000	5.08050E-004	-3.27672E+002	7	...........
	267	268	4.06364E+000	1.00261E-006	0.00000E+000	4.07423E-006	0.00000E+000	5.10167E-004	-3.27672E+002	7	...........
	268	269	4.06364E+000	1.00274E-006	0.00000E+000	4.07477E-006	0.00000E+000	5.10800E-004	-3.27672E+002	7	...........
	269	270	4.06363E+000	1.00265E-006	0.00000E+000	4.07441E-006	0.00000E+000	5.04700E-004	-3.27672E+002	7	...........
	270	271	4.06362E+000	1.00298E-006	0.00000E+000	4.07574E-006	0.00000E+000	5.08583E-004	-3.27672E+002	7	...........
	271	272	4.06361E+000	1.00311E-006	0.00000E+000	4.07625E-006	0.00000E+000	5.07400E-004	-3.27672E+002	7	...........
	272	273	4.06361E+000	1.00235E-006	0.00000E+000	4.07317E-006	0.00000E+000	5.08967E-004	-3.27672E+002	7	...........
	273	274	4.06360E+000	1.00241E-006	0.00000E+000	4.07338E-006	0.00000E+000	5.09083E-004	-3.27672E+002	7	...........
	274	275	4.06360E+000	1.00235E-006	0.00000E+000	4.07317E-006	0.00000E+000	5.09667E-004	-3.27672E+002	7	...........
	275	276	4.06359E+000	1.00244E-006	0.00000E+000	4.07350E-006	0.00000E+000	5.11483E-004	-3.27672E+002	7	...........
	276	277	4.06358E+000	1.00193E-006	0.00000E+000	4.07144E-006	0.00000E+000	5.09933E-004	-3.27672E+002	7	...........
	277	278	4.06357E+000	1.00224E-006	0.00000E+000	4.07267E-006	0.00000E+000	5.07000E-004	-3.27672E+002	7	...........
	278	279	4.06357E+000	1.00187E-006	0.00000E+000	4.07118E-006	0.00000E+000	5.04383E-004	-3.27672E+002	7	...........
	279	280	4.06357E+000	1.00130E-006	0.00000E+000	4.06884E-006	0.00000E+000	5.09483E-004	-3.27672E+002	7	...........
	280	281	4.06356E+000	1.00175E-006	0.00000E+000	4.07068E-006	0.00000E+000	5.10883E-004	-3.27672E+002	7	...........
	281	282	4.06356E+000	1.00116E-006	0.00000E+000	4.06826E-006	0.00000E+000	5.08633E-004	-3.27672E+002	7	...........
	282	283	4.06355E+000	1.00232E-006	0.00000E+000	4.07298E-006	0.00000E+000	5.11533E-004	-3.27672E+002	7	...........
	283	284	4.06355E+000	1.00203E-006	0.00000E+000	4.07181E-006	0.00000E+000	5.11183E-004	-3.27672E+002	7	...........
	284	285	4.06355E+000	1.00224E-006	0.00000E+000	4.07264E-006	0.00000E+000	5.09200E-004	-3.27672E+002	7	...........
	285	286	4.06354E+000	1.00357E-006	0.00000E+000	4.07804E-006	0.00000E+000	5.08933E-004	-3.27672E+002	7	...........
	286	287	4.06353E+000	1.00189E-006	0.00000E+000	4.07119E-006	0.00000E+000	5.10283E-004	-3.27672E+002	7	...........
	287	288	4.06353E+000	1.00217E-006	0.00000E+000	4.07235E-006	0.00000E+000	5.08567E-004	-3.27672E+002	7	...........
	288	289	4.06352E+000	1.00255E-006	0.00000E+000	4.07387E-006	0.00000E+000	5.08950E-004	-3.27672E+002	7	...........
	289	290	4.06352E+000	1.00163E-006	0.00000E+000	4.07013E-006	0.00000E+000	5.11833E-004	-3.27672E+002	7	...........
	290	291	4.06351E+000	1.00239E-006	0.00000E+000	4.07321E-006	0.00000E+000	5.06000E-004	-3.27672E+002	7	...........
	291	292	4.06350E+000	1.00251E-006	0.00000E+000	4.07370E-006	0.00000E+000	5.09500E-004	-3.27672E+002	7	...........
	292	293	4.06350E+000	1.00260E-006	0.00000E+000	4.07408E-006	0.00000E+000	5.08483E-004	-3.27672E+002	7	...........
	293	294	4.06349E+000	1.00159E-006	0.00000E+000	4.06995E-006	0.00000E+000	5.09183E-004	-3.27672E+002	7	...........
	294	295	4.06348E+000	1.00147E-006	0.00000E+000	4.06947E-006	0.00000E+000	5.09367E-004	-3.27672E+002	7	...........
	295	296	4.06349E+000	1.00172E-006	0.00000E+000	4.07048E-006	0.00000E+000	5.11000E-004	-3.27672E+002	7	...........
	296	297	4.06348E+000	1.00234E-006	0.00000E+000	4.07301E-006	0.00000E+000	5.08883E-004	-3.27672E+002	7	...........
	297	298	4.06348E+000	1.00255E-006	0.00000E+000	4.07382E-006	0.00000E+000	5.09583E-004	-3.27672E+002	7	...........
	298	299	4.06347E+000	1.00286E-006	0.00000E+000	4.07508E-006	0.00000E+000	5.08333E-004	-3.27672E+002	7	...........
	299	300	4.06346E+000	1.00161E-006	0.00000E+000	4.06999E-006	0.00000E+000	5.10683E-004	-3.27672E+002	7	...........
	300	301	4.06345E+000	1.00126E-006	0.00000E+000	4.06857E-006	0.00000E+000	5.06517E-004	-3.27672E+002	7	...........
	301	302	4.06344E+000	1.00118E-006	0.00000E+000	4.06825E-006	0.00000E+000	5.09167E-004	-3.27672E+002	7	...........
	302	303	4.06344E+000	1.00086E-006	0.00000E+000	4.06693E-006	0.00000E+000	5.11050E-004	-3.27672E+002	7	...........
	303	304	4.06344E+000	1.00140E-006	0.00000E+000	4.06913E-006	0.00000E+000	5.07067E-004	-3.27672E+002	7	...........
	304	305	4.06343E+000	1.00129E-006	0.00000E+000	4.06868E-006	0.00000E+000	5.08300E-004	-3.27672E+002	7	...........
	305	306	4.06343E+000	1.00160E-006	0.00000E+000	4.06992E-006	0.00000E+000	5.10000E-004	-3.27672E+002	7	...........
	306	307	4.06341E+000	1.00221E-006	0.00000E+000	4.07238E-006	0.00000E+000	5.09050E-004	-3.27672E+002	7	...........
	307	308	4.06341E+000	1.00199E-006	0.00000E+000	4.07148E-006	0.00000E+000	5.09367E-004	-3.27672E+002	7	...........
	308	309	4.06340E+000	1.00306E-006	0.00000E+000	4.07584E-006	0.00000E+000	5.09083E-004	-3.27672E+002	7	...........
	309	310	4.06339E+000	1.00174E-006	0.00000E+000	4.07047E-006	0.00000E+000	5.07300E-004	-3.27672E+002	7	...........
	310	311	4.06338E+000	1.00179E-006	0.00000E+000	4.07067E-006	0.00000E+000	5.08167E-004	-3.27672E+002	7	...........
	311	312	4.06338E+000	1.00174E-006	0.00000E+000	4.07046E-006	0.00000E+000	5.07367E-004	-3.27672E+002	7	...........
	312	313	4.06337E+000	1.00155E-006	0.00000E+000	4.06966E-006	0.00000E+000	5.08800E-004	-3.27672E+002	7	...........
	313	314	4.06336E+000	1.00106E-006	0.00000E+000	4.06768E-006	0.00000E+000	5.09567E-004	-3.27672E+002	7	...........
	314	315	4.06335E+000	1.00261E-006	0.00000E+000	4.07395E-006	0.00000E+000	5.09233E-004	-3.27672E+002	7	...........
	315	316	4.06335E+000	1.00161E-006	0.00000E+000	4.06987E-006	0.00000E+000	5.09550E-004	-3.27672E+002	7	...........
	316	317	4.06334E+000	1.00251E-006	0.00000E+000	4.07353E-006	0.00000E+000	5.10800E-004	-3.27672E+002	7	...........
	317	318	4.06333E+000	1.00200E-006	0.00000E+000	4.07145E-006	0.00000E+000	5.13183E-004	-3.27672E+002	7	...........
	318	319	4.06332E+000	1.00248E-006	0.00000E+000	4.07342E-006	0.00000E+000	5.09483E-004	-3.27672E+002	7	...........
	319	320	4.06332E+000	1.00249E-006	0.00000E+000	4.07342E-006	0.00000E+000	5.09600E-004	-3.27672E+002	7	...........
	320	321	4.06332E+000	1.00215E-006	0.00000E+000	4.07204E-006	0.00000E+000	5.07700E-004	-3.27672E+002	7	...........
	321	322	4.06331E+000	1.00315E-006	0.00000E+000	4.07611E-006	0.00000E+000	5.12733E-004	-3.27672E+002	7	...........
	322	323	4.06331E+000	1.00274E-006	0.00000E+000	4.07445E-006	0.00000E+000	5.05867E-004	-3.27672E+002	7	...........
	323	324	4.06330E+000	1.00174E-006	0.00000E+000	4.07037E-006	0.00000E+000	5.06317E-004	-3.27672E+002	7	...........
	324	325	4.06329E+000	1.00165E-006	0.00000E+000	4.06999E-006	0.00000E+000	5.12217E-004	-3.27672E+002	7	...........
	325	326	4.06329E+000	1.00137E-006	0.00000E+000	4.06884E-006	0.00000E+000	5.11300E-004	-3.27672E+002	7	...........
	326	327	4.06328E+000	1.00175E-006	0.00000E+000	4.07040E-006	0.00000E+000	5.11100E-004	-3.27672E+002	7	...........
	327	328	4.06326E+000	1.00229E-006	0.00000E+000	4.07256E-006	0.00000E+000	5.10733E-004	-3.27672E+002	7	...........
	328	329	4.06326E+000	1.00249E-006	0.00000E+000	4.07336E-006	0.00000E+000	5.12033E-004	-3.27672E+002	7	...........
	329	330	4.06324E+000	1.00228E-006	0.00000E+000	4.07249E-006	0.00000E+000	5.13900E-004	-3.27672E+002	7	...........
	330	331	4.06324E+000	1.00325E-006	0.00000E+000	4.07643E-006	0.00000E+000	5.13417E-004	-3.27672E+002	7	...........
	331	332	4.06323E+000	1.00337E-006	0.00000E+000	4.07693E-006	0.00000E+000	5.09733E-004	-3.27672E+002	7	...........
	332	333	4.06323E+000	1.00271E-006	0.00000E+000	4.07423E-006	0.00000E+000	5.12300E-004	-3.27672E+002	7	...........
	333	334	4.06321E+000	1.00344E-006	0.00000E+000	4.07719E-006	0.00000E+000	5.11367E-004	-3.27672E+002	7	...........
	334	335	4.06321E+000	1.00361E-006	0.00000E+000	4.07786E-006	0.00000E+000	5.10350E-004	-3.27672E+002	7	...........
	335	336	4.06320E+000	1.00265E-006	0.00000E+000	4.07395E-006	0.00000E+000	5.09617E-004	-3.27672E+002	7	...........
	336	337	4.06320E+000	1.00292E-006	0.00000E+000	4.07506E-006	0.00000E+000	5.11317E-004	-3.27672E+002	7	...........
	337	338	4.06319E+000	1.00298E-006	0.00000E+000	4.07530E-006	0.00000E+000	5.10583E-004	-3.27672E+002	7	...........
	338	339	4.06318E+000	1.00254E-006	0.00000E+000	4.07348E-006	0.00000E+000	5.12900E-004	-3.27672E+002	7	...........
	339	340	4.06318E+000	1.00222E-006	0.00000E+000	4.07220E-006	0.00000E+000	5.10183E-004	-3.27672E+002	7	...........
	340	341	4.06316E+000	1.00186E-006	0.00000E+000	4.07070E-006	0.00000E+000	5.06933E-004	-3.27672E+002	7	...........
	341	342	4.06317E+000	1.00152E-006	0.00000E+000	4.06935E-006	0.00000E+000	5.11917E-004	-3.27672E+002	7	...........
	342	343	4.06316E+000	1.00190E-006	0.00000E+000	4.07088E-006	0.00000E+000	5.09750E-004	-3.27672E+002	7	...........
	343	344	4.06316E+000	1.00145E-006	0.00000E+000	4.06904E-006	0.00000E+000	5.08783E-004	-3.27672E+002	7	...........
	344	345	4.06315E+000	1.00170E-006	0.00000E+000	4.07005E-006	0.00000E+000	5.08600E-004	-3.27672E+002	7	...........
	345	346	4.06313E+000	1.00224E-006	0.00000E+000	4.07222E-006	0.00000E+000	5.09250E-004	-3.27672E+002	7	...........
	346	347	4.06313E+000	1.00210E-006	0.00000E+000	4.07167E-006	0.00000E+000	5.10533E-004	-3.27672E+002	7	...........
	347	348	4.06313E+000	1.00279E-006	0.00000E+000	4.07447E-006	0.00000E+000	5.07450E-004	-3.27672E+002	7	...........
	348	349	4.06312E+000	1.00165E-006	0.00000E+000	4.06982E-006	0.00000E+000	5.10200E-004	-3.27672E+002	7	...........
	349	350	4.06312E+000	1.00290E-006	0.00000E+000	4.07488E-006	0.00000E+000	5.09300E-004	-3.27672E+002	7	...........
	350	351	4.06310E+000	1.00370E-006	0.00000E+000	4.07812E-006	0.00000E+000	5.09483E-004	-3.27672E+002	7	...........
	351	352	4.06309E+000	1.00262E-006	0.00000E+000	4.07376E-006	0.00000E+000	5.11767E-004	-3.27672E+002	7	...........
	352	353	4.06309E+000	1.00328E-006	0.00000E+000	4.07639E-006	0.00000E+000	5.09633E-004	-3.27672E+002	7	...........
	353	354	4.06308E+000	1.00391E-006	0.00000E+000	4.07897E-006	0.00000E+000	5.11583E-004	-3.27672E+002	7	...........
	354	355	4.06308E+000	1.00330E-006	0.00000E+000	4.07647E-006	0.00000E+000	5.11867E-004	-3.27672E+002	7	...........
	355	356	4.06307E+000	1.00305E-006	0.00000E+000	4.07545E-006	0.00000E+000	5.07767E-004	-3.27672E+002	7	...........
	356	357	4.06306E+000	1.00305E-006	0.00000E+000	4.07547E-006	0.00000E+000	5.09167E-004	-3.27672E+002	7	...........
	357	358	4.06305E+000	1.00234E-006	0.00000E+000	4.07255E-006	0.00000E+000	5.09700E-004	-3.27672E+002	7	...........
	358	359	4.06305E+000	1.00285E-006	0.00000E+000	4.07464E-006	0.00000E+000	5.08567E-004	-3.27672E+002	7	...........
	359	360	4.06304E+000	1.00318E-006	0.00000E+000	4.07596E-006	0.00000E+000	5.10667E-004	-3.27672E+002	7	...........
	360	361	4.06304E+000	1.00324E-006	0.00000E+000	4.07622E-006	0.00000E+000	5.09600E-004	-3.27672E+002	7	...........
	361	362	4.06302E+000	1.00358E-006	0.00000E+000	4.07756E-006	0.00000E+000	5.12817E-004	-3.27672E+002	7	...........
	362	363	4.06302E+000	1.00363E-006	0.00000E+000	4.07776E-006	0.00000E+000	5.12267E-004	-3.27672E+002	7	...........
	363	364	4.06301E+000	1.00397E-006	0.00000E+000	4.07916E-006	0.00000E+000	5.08183E-004	-3.27672E+002	7	...........
	364	365	4.06301E+000	1.00288E-006	0.00000E+000	4.07473E-006	0.00000E+000	5.08267E-004	-3.27672E+002	7	...........
	365	366	4.06300E+000	1.00257E-006	0.00000E+000	4.07345E-006	0.00000E+000	5.13250E-004	-3.27672E+002	7	...........
	366	367	4.06299E+000	1.00247E-006	0.00000E+000	4.07301E-006	0.00000E+000	5.11533E-004	-3.27672E+002	7	...........
	367	368	4.06299E+000	1.00289E-006	0.00000E+000	4.07474E-006	0.00000E+000	5.10067E-004	-3.27672E+002	7	...........
	368	369	4.06298E+000	1.00314E-006	0.00000E+000	4.07574E-006	0.00000E+000	5.11633E-004	-3.27672E+002	7	...........
	369	370	4.06297E+000	1.00218E-006	0.00000E+000	4.07181E-006	0.00000E+000	5.11150E-004	-3.27672E+002	7	...........
	370	371	4.06297E+000	1.00242E-006	0.00000E+000	4.07280E-006	0.00000E+000	5.09367E-004	-3.27672E+002	7	...........
	371	372	4.06296E+000	1.00285E-006	0.00000E+000	4.07453E-006	0.00000E+000	5.09850E-004	-3.27672E+002	7	...........
	372	373	4.06296E+000	1.00312E-006	0.00000E+000	4.07563E-006	0.00000E+000	5.10433E-004	-3.27672E+002	7	...........
	373	374	4.06295E+000	1.00278E-006	0.00000E+000	4.07426E-006	0.00000E+000	5.11067E-004	-3.27672E+002	7	...........
	374	375	4.06295E+000	1.00318E-006	0.00000E+000	4.07587E-006	0.00000E+000	5.09017E-004	-3.27672E+002	7	...........
	375	376	4.06294E+000	1.00353E-006	0.00000E+000	4.07727E-006	0.00000E+000	5.08233E-004	-3.27672E+002	7	...........
	376	377	4.06293E+000	1.00421E-006	0.00000E+000	4.08002E-006	0.00000E+000	5.08700E-004	-3.27672E+002	7	...........
	377	378	4.06292E+000	1.00318E-006	0.00000E+000	4.07583E-006	0.00000E+000	5.10033E-004	-3.27672E+002	7	...........
	378	379	4.06292E+000	1.00384E-006	0.00000E+000	4.07852E-006	0.00000E+000	5.07417E-004	-3.27672E+002	7	...........
	379	380	4.06291E+000	1.00329E-006	0.00000E+000	4.07627E-006	0.00000E+000	5.09817E-004	-3.27672E+002	7	...........
	380	381	4.06290E+000	1.00308E-006	0.00000E+000	4.07543E-006	0.00000E+000	5.09200E-004	-3.27672E+002	7	...........
	381	382	4.06289E+000	1.00322E-006	0.00000E+000	4.07598E-006	0.00000E+000	5.07850E-004	-3.27672E+002	7	...........
	382	383	4.06290E+000	1.00336E-006	0.00000E+000	4.07655E-006	0.00000E+000	5.08700E-004	-3.27672E+002	7	...........
	383	384	4.06289E+000	1.00307E-006	0.00000E+000	4.07535E-006	0.00000E+000	5.08700E-004	-3.27672E+002	7	...........
	384	385	4.06289E+000	1.00275E-006	0.00000E+000	4.07407E-006	0.00000E+000	5.11200E-004	-3.27672E+002	7	...........
	385	386	4.06288E+000	1.00282E-006	0.00000E+000	4.07433E-006	0.00000E+000	5.06600E-004	-3.27672E+002	7	...........
	386	387	4.06288E+000	1.00289E-006	0.00000E+000	4.07462E-006	0.00000E+000	5.08517E-004	-3.27672E+002	7	...........
	387	388	4.06287E+000	1.00289E-006	0.00000E+000	4.07460E-006	0.00000E+000	5.07717E-004	-3.27672E+002	7	...........
	388	389	4.06286E+000	1.00220E-006	0.00000E+000	4.07181E-006	0.00000E+000	5.10000E-004	-3.27672E+002	7	...........
	389	390	4.06287E+000	1.00201E-006	0.00000E+000	4.07105E-006	0.00000E+000	5.10750E-004	-3.27672E+002	7	...........
	390	391	4.06285E+000	1.00245E-006	0.00000E+000	4.07282E-006	0.00000E+000	5.12267E-004	-3.27672E+002	7	...........
	391	392	4.06285E+000	1.00168E-006	0.00000E+000	4.06968E-006	0.00000E+000	5.12600E-004	-3.27672E+002	7	...........
	392	393	4.06284E+000	1.00199E-006	0.00000E+000	4.07092E-006	0.00000E+000	5.07383E-004	-3.27672E+002	7	...........
	393	394	4.06284E+000	1.00170E-006	0.00000E+000	4.06975E-006	0.00000E+000	5.10550E-004	-3.27672E+002	7	...........
	394	395	4.06284E+000	1.00248E-006	0.00000E+000	4.07292E-006	0.00000E+000	5.09350E-004	-3.27672E+002	7	...........
	395	396	4.06282E+000	1.00175E-006	0.00000E+000	4.06994E-006	0.00000E+000	5.08250E-004	-3.27672E+002	7	...........
	396	397	4.06282E+000	1.00297E-006	0.00000E+000	4.07488E-006	0.00000E+000	5.06700E-004	-3.27672E+002	7	...........
	397	398	4.06283E+000	1.00352E-006	0.00000E+000	4.07711E-006	0.00000E+000	5.09233E-004	-3.27672E+002	7	...........
	398	399	4.06282E+000	1.00317E-006	0.00000E+000	4.07569E-006	0.00000E+000	5.08617E-004	-3.27672E+002	7	...........
	399	400	4.06281E+000	1.00397E-006	0.00000E+000	4.07893E-006	0.00000E+000	5.09667E-004	-3.27672E+002	7	...........
	400	401	4.06281E+000	1.00273E-006	0.00000E+000	4.07391E-006	0.00000E+000	5.06817E-004	-3.27672E+002	7	...........
	401	402	4.06280E+000	1.00278E-006	0.00000E+000	4.07411E-006	0.00000E+000	5.07550E-004	-3.27672E+002	7	...........
	402	403	4.06279E+000	1.00323E-006	0.00000E+000	4.07590E-006	0.00000E+000	5.10467E-004	-3.27672E+002	7	...........
	403	404	4.06279E+000	1.00291E-006	0.00000E+000	4.07463E-006	0.00000E+000	5.08583E-004	-3.27672E+002	7	...........
	404	405	4.06279E+000	1.00311E-006	0.00000E+000	4.07541E-006	0.00000E+000	5.10117E-004	-3.27672E+002	7	...........
	405	406	4.06279E+000	1.00335E-006	0.00000E+000	4.07641E-006	0.00000E+000	5.09100E-004	-3.27672E+002	7	...........
	406	407	4.06278E+000	1.00323E-006	0.00000E+000	4.07590E-006	0.00000E+000	5.10400E-004	-3.27672E+002	7	...........
	407	408	4.06278E+000	1.00334E-006	0.00000E+000	4.07636E-006	0.00000E+000	5.09333E-004	-3.27672E+002	7	...........
	408	409	4.06277E+000	1.00341E-006	0.00000E+000	4.07662E-006	0.00000E+000	5.08650E-004	-3.27672E+002	7	...........
	409	410	4.06276E+000	1.00319E-006	0.00000E+000	4.07574E-006	0.00000E+000	5.10333E-004	-3.27672E+002	7	...........
	410	411	4.06276E+000	1.00304E-006	0.00000E+000	4.07510E-006	0.00000E+000	5.09767E-004	-3.27672E+002	7	...........
	411	412	4.06276E+000	1.00223E-006	0.00000E+000	4.07184E-006	0.00000E+000	5.08450E-004	-3.27672E+002	7	...........
	412	413	4.06274E+000	1.00312E-006	0.00000E+000	4.07542E-006	0.00000E+000	5.08500E-004	-3.27672E+002	7	...........
	413	414	4.06275E+000	1.00291E-006	0.00000E+000	4.07458E-006	0.00000E+000	5.09383E-004	-3.27672E+002	7	...........
	414	415	4.06274E+000	1.00268E-006	0.00000E+000	4.07365E-006	0.00000E+000	5.10383E-004	-3.27672E+002	7	...........
	415	416	4.06273E+000	1.00165E-006	0.00000E+000	4.06943E-006	0.00000E+000	5.07183E-004	-3.27672E+002	7	...........
	416	417	4.06273E+000	1.00149E-006	0.00000E+000	4.06878E-006	0.00000E+000	5.07967E-004	-3.27672E+002	7	...........
	417	418	4.06273E+000	1.00210E-006	0.00000E+000	4.07126E-006	0.00000E+000	5.10017E-004	-3.27672E+002	7	...........
	418	419	4.06272E+000	1.00256E-006	0.00000E+000	4.07311E-006	0.00000E+000	5.09000E-004	-3.27672E+002	7	...........
	419	420	4.06272E+000	1.00205E-006	0.00000E+000	4.07105E-006	0.00000E+000	5.08583E-004	-3.27672E+002	7	...........
	420	421	4.06272E+000	1.00254E-006	0.00000E+000	4.07303E-006	0.00000E+000	5.09917E-004	-3.27672E+002	7	...........
	421	422	4.06271E+000	1.00295E-006	0.00000E+000	4.07469E-006	0.00000E+000	5.05533E-004	-3.27672E+002	7	...........
	422	423	4.06271E+000	1.00330E-006	0.00000E+000	4.07613E-006	0.00000E+000	5.08833E-004	-3.27672E+002	7	...........
	423	424	4.06270E+000	1.00220E-006	0.00000E+000	4.07165E-006	0.00000E+000	5.10850E-004	-3.27672E+002	7	...........
	424	425	4.06270E+000	1.00213E-006	0.00000E+000	4.07137E-006	0.00000E+000	5.08967E-004	-3.27672E+002	7	...........
	425	426	4.06269E+000	1.00239E-006	0.00000E+000	4.07242E-006	0.00000E+000	5.10567E-004	-3.27672E+002	7	...........
	426	427	4.06269E+000	1.00201E-006	0.00000E+000	4.07086E-006	0.00000E+000	5.10750E-004	-3.27672E+002	7	...........
	427	428	4.06269E+000	1.00243E-006	0.00000E+000	4.07255E-006	0.00000E+000	5.06667E-004	-3.27672E+002	7	...........
	428	429	4.06268E+000	1.00253E-006	0.00000E+000	4.07294E-006	0.00000E+000	5.08283E-004	-3.27672E+002	7	...........
	429	430	4.06268E+000	1.00229E-006	0.00000E+000	4.07198E-006	0.00000E+000	5.10167E-004	-3.27672E+002	7	...........
	430	431	4.06267E+000	1.00297E-006	0.00000E+000	4.07473E-006	0.00000E+000	5.10850E-004	-3.27672E+002	7	...........
	431	432	4.06267E+000	1.00314E-006	0.00000E+000	4.07543E-006	0.00000E+000	5.11117E-004	-3.27672E+002	7	...........
	432	433	4.06267E+000	1.00231E-006	0.00000E+000	4.07207E-006	0.00000E+000	5.08033E-004	-3.27672E+002	7	...........
	433	434	4.06266E+000	1.00222E-006	0.00000E+000	4.07170E-006	0.00000E+000	5.09217E-004	-3.27672E+002	7	...........
	434	435	4.06265E+000	1.00282E-006	0.00000E+000	4.07411E-006	0.00000E+000	5.11050E-004	-3.27672E+002	7	...........
	435	436	4.06265E+000	1.00216E-006	0.00000E+000	4.07143E-006	0.00000E+000	5.06717E-004	-3.27672E+002	7	...........
	436	437	4.06264E+000	1.00180E-006	0.00000E+000	4.06995E-006	0.00000E+000	5.07550E-004	-3.27672E+002	7	...........
	437	438	4.06264E+000	1.00203E-006	0.00000E+000	4.07090E-006	0.00000E+000	5.06517E-004	-3.27672E+002	7	...........
	438	439	4.06264E+000	1.00239E-006	0.00000E+000	4.07233E-006	0.00000E+000	5.08717E-004	-3.27672E+002	7	...........
	439	440	4.06263E+000	1.00276E-006	0.00000E+000	4.07383E-006	0.00000E+000	5.10150E-004	-3.27672E+002	7	...........
	440	441	4.06262E+000	1.00245E-006	0.00000E+000	4.07256E-006	0.00000E+000	5.08967E-004	-3.27672E+002	7	...........
	441	442	4.06263E+000	1.00277E-006	0.00000E+000	4.07389E-006	0.00000E+000	5.07167E-004	-3.27672E+002	7	...........
	442	443	4.06262E+000	1.00241E-006	0.00000E+000	4.07242E-006	0.00000E+000	5.08950E-004	-3.27672E+002	7	...........
	443	444	4.06261E+000	1.00159E-006	0.00000E+000	4.06906E-006	0.00000E+000	5.08417E-004	-3.27672E+002	7	...........
	444	445	4.06262E+000	1.00232E-006	0.00000E+000	4.07207E-006	0.00000E+000	5.10750E-004	-3.27672E+002	7	...........
	445	446	4.06261E+000	1.00264E-006	0.00000E+000	4.07332E-006	0.00000E+000	5.10650E-004	-3.27672E+002	7	...........
	446	447	4.06260E+000	1.00161E-006	0.00000E+000	4.06916E-006	0.00000E+000	5.09683E-004	-3.27672E+002	7	...........
	447	448	4.06260E+000	1.00135E-006	0.00000E+000	4.06809E-006	0.00000E+000	5.08550E-004	-3.27672E+002	7	...........
	448	449	4.06260E+000	1.00157E-006	0.00000E+000	4.06898E-006	0.00000E+000	5.08833E-004	-3.27672E+002	7	...........
	449	450	4.06258E+000	1.00196E-006	0.00000E+000	4.07054E-006	0.00000E+000	5.08900E-004	-3.27672E+002	7	...........
	450	451	4.06259E+000	1.00222E-006	0.00000E+000	4.07159E-006	0.00000E+000	5.09750E-004	-3.27672E+002	7	...........
	451	452	4.06258E+000	1.00194E-006	0.00000E+000	4.07045E-006	0.00000E+000	5.08350E-004	-3.27672E+002	7	...........
	452	453	4.06257E+000	1.00191E-006	0.00000E+000	4.07035E-006	0.00000E+000	5.08067E-004	-3.27672E+002	7	...........
	453	454	4.06257E+000	1.00219E-006	0.00000E+000	4.07148E-006	0.00000E+000	5.08417E-004	-3.27672E+002	7	...........
	454	455	4.06256E+000	1.00272E-006	0.00000E+000	4.07361E-006	0.00000E+000	5.10500E-004	-3.27672E+002	7	...........
	455	456	4.06256E+000	1.00258E-006	0.00000E+000	4.07304E-006	0.00000E+000	5.08900E-004	-3.27672E+002	7	...........
	456	457	4.06256E+000	1.00245E-006	0.00000E+000	4.07252E-006	0.00000E+000	5.09667E-004	-3.27672E+002	7	...........
	457	458	4.06255E+000	1.00261E-006	0.00000E+000	4.07313E-006	0.00000E+000	5.10733E-004	-3.27672E+002	7	...........
	458	459	4.06254E+000	1.00226E-006	0.00000E+000	4.07173E-006	0.00000E+000	5.07417E-004	-3.27672E+002	7	...........
	459	460	4.06255E+000	1.00236E-006	0.00000E+000	4.07215E-006	0.00000E+000	5.11767E-004	-3.27672E+002	7	...........
	460	461	4.06254E+000	1.00230E-006	0.00000E+000	4.07190E-006	0.00000E+000	5.11100E-004	-3.27672E+002	7	...........
	461	462	4.06254E+000	1.00235E-006	0.00000E+000	4.07208E-006	0.00000E+000	5.10367E-004	-3.27672E+002	7	...........
	462	463	4.06253E+000	1.00231E-006	0.00000E+000	4.07193E-006	0.00000E+000	5.09100E-004	-3.27672E+002	7	...........
	463	464	4.06252E+000	1.00307E-006	0.00000E+000	4.07500E-006	0.00000E+000	5.07667E-004	-3.27672E+002	7	...........
	464	465	4.06251E+000	1.00253E-006	0.00000E+000	4.07279E-006	0.00000E+000	5.05733E-004	-3.27672E+002	7	...........
	465	466	4.06251E+000	1.00284E-006	0.00000E+000	4.07406E-006	0.00000E+000	5.09833E-004	-3.27672E+002	7	...........
	466	467	4.06251E+000	1.00279E-006	0.00000E+000	4.07383E-006	0.00000E+000	5.10733E-004	-3.27672E+002	7	...........
	467	468	4.06251E+000	1.00258E-006	0.00000E+000	4.07299E-006	0.00000E+000	5.10100E-004	-3.27672E+002	7	...........
	468	469	4.06250E+000	1.00232E-006	0.00000E+000	4.07192E-006	0.00000E+000	5.10900E-004	-3.27672E+002	7	...........
	469	470	4.06249E+000	1.00269E-006	0.00000E+000	4.07342E-006	0.00000E+000	5.09300E-004	-3.27672E+002	7	...........
	470	471	4.06250E+000	1.00141E-006	0.00000E+000	4.06823E-006	0.00000E+000	5.11450E-004	-3.27672E+002	7	...........
	471	472	4.06248E+000	1.00125E-006	0.00000E+000	4.06756E-006	0.00000E+000	5.09417E-004	-3.27672E+002	7	...........
	472	473	4.06248E+000	1.00251E-006	0.00000E+000	4.07270E-006	0.00000E+000	5.10317E-004	-3.27672E+002	7	...........
	473	474	4.06249E+000	1.00183E-006	0.00000E+000	4.06992E-006	0.00000E+000	5.08700E-004	-3.27672E+002	7	...........
	474	475	4.06247E+000	1.00187E-006	0.00000E+000	4.07008E-006	0.00000E+000	5.08750E-004	-3.27672E+002	7	...........
	475	476	4.06248E+000	1.00242E-006	0.00000E+000	4.07230E-006	0.00000E+000	5.09167E-004	-3.27672E+002	7	...........
	476	477	4.06247E+000	1.00175E-006	0.00000E+000	4.06960E-006	0.00000E+000	5.09617E-004	-3.27672E+002	7	...........
	477	478	4.06247E+000	1.00221E-006	0.00000E+000	4.07145E-006	0.00000E+000	5.07483E-004	-3.27672E+002	7	...........
	478	479	4.06246E+000	1.00186E-006	0.00000E+000	4.07002E-006	0.00000E+000	5.11167E-004	-3.27672E+002	7	...........
	479	480	4.06245E+000	1.00203E-006	0.00000E+000	4.07070E-006	0.00000E+000	5.07717E-004	-3.27672E+002	7	...........
	480	481	4.06245E+000	1.00147E-006	0.00000E+000	4.06841E-006	0.00000E+000	5.08800E-004	-3.27672E+002	7	...........
	481	482	4.06245E+000	1.00172E-006	0.00000E+000	4.06945E-006	0.00000E+000	5.08533E-004	-3.27672E+002	7	...........
	482	483	4.06243E+000	1.00212E-006	0.00000E+000	4.07103E-006	0.00000E+000	5.09700E-004	-3.27672E+002	7	...........
	483	484	4.06243E+000	1.00081E-006	0.00000E+000	4.06573E-006	0.00000E+000	5.05333E-004	-3.27672E+002	7	...........
	484	485	4.06242E+000	1.00125E-006	0.00000E+000	4.06751E-006	0.00000E+000	5.10583E-004	-3.27672E+002	7	...........
	485	486	4.06242E+000	1.00171E-006	0.00000E+000	4.06938E-006	0.00000E+000	5.09367E-004	-3.27672E+002	7	...........
	486	487	4.06242E+000	1.00155E-006	0.00000E+000	4.06870E-006	0.00000E+000	5.12067E-004	-3.27672E+002	7	...........
	487	488	4.06241E+000	1.00192E-006	0.00000E+000	4.07023E-006	0.00000E+000	5.07767E-004	-3.27672E+002	7	...........
	488	489	4.06240E+000	1.00203E-006	0.00000E+000	4.07063E-006	0.00000E+000	5.10750E-004	-3.27672E+002	7	...........
	489	490	4.06240E+000	1.00183E-006	0.00000E+000	4.06981E-006	0.00000E+000	5.07367E-004	-3.27672E+002	7	...........
	490	491	4.06240E+000	1.00263E-006	0.00000E+000	4.07307E-006	0.00000E+000	5.09817E-004	-3.27672E+002	7	...........
	491	492	4.06240E+000	1.00158E-006	0.00000E+000	4.06883E-006	0.00000E+000	5.10317E-004	-3.27672E+002	7	...........
	492	493	4.06240E+000	1.00076E-006	0.00000E+000	4.06547E-006	0.00000E+000	5.10750E-004	-3.27672E+002	7	...........
	493	494	4.06239E+000	1.00153E-006	0.00000E+000	4.06861E-006	0.00000E+000	5.08300E-004	-3.27672E+002	7	...........
	494	495	4.06239E+000	1.00110E-006	0.00000E+000	4.06688E-006	0.00000E+000	5.06783E-004	-3.27672E+002	7	...........
	495	496	4.06238E+000	1.00155E-006	0.00000E+000	4.06869E-006	0.00000E+000	5.10300E-004	-3.27672E+002	7	...........
	496	497	4.06238E+000	1.00135E-006	0.00000E+000	4.06786E-006	0.00000E+000	5.11767E-004	-3.27672E+002	7	...........
	497	498	4.06237E+000	1.00157E-006	0.00000E+000	4.06873E-006	0.00000E+000	5.08767E-004	-3.27672E+002	7	...........
	498	499	4.06237E+000	1.00111E-006	0.00000E+000	4.06688E-006	0.00000E+000	5.09933E-004	-3.27672E+002	7	...........
	499	500	4.06236E+000	1.00173E-006	0.00000E+000	4.06937E-006	0.00000E+000	5.08833E-004	-3.27672E+002	7	...........
	500	501	4.06235E+000	1.00192E-006	0.00000E+000	4.07016E-006	0.00000E+000	5.08400E-004	-3.27672E+002	7	...........
	501	502	4.06234E+000	1.00157E-006	0.00000E+000	4.06871E-006	0.00000E+000	5.10900E-004	-3.27672E+002	7	...........
	502	503	4.06235E+000	1.00098E-006	0.00000E+000	4.06633E-006	0.00000E+000	5.08950E-004	-3.27672E+002	7	...........
	503	504	4.06233E+000	1.00199E-006	0.00000E+000	4.07040E-006	0.00000E+000	5.09833E-004	-3.27672E+002	7	...........
	504	505	4.06235E+000	1.00153E-006	0.00000E+000	4.06855E-006	0.00000E+000	5.09300E-004	-3.27672E+002	7	...........
	505	506	4.06233E+000	1.00088E-006	0.00000E+000	4.06592E-006	0.00000E+000	5.11283E-004	-3.27672E+002	7	...........
	506	507	4.06233E+000	1.00089E-006	0.00000E+000	4.06596E-006	0.00000E+000	5.08983E-004	-3.27672E+002	7	...........
	507	508	4.06232E+000	1.00086E-006	0.00000E+000	4.06583E-006	0.00000E+000	5.11083E-004	-3.27672E+002	7	...........
	508	509	4.06231E+000	1.00203E-006	0.00000E+000	4.07055E-006	0.00000E+000	5.09250E-004	-3.27672E+002	7	...........
	509	510	4.06231E+000	1.00132E-006	0.00000E+000	4.06766E-006	0.00000E+000	5.09900E-004	-3.27672E+002	7	...........
	510	511	4.06230E+000	1.00162E-006	0.00000E+000	4.06888E-006	0.00000E+000	5.09733E-004	-3.27672E+002	7	...........
	511	512	4.06230E+000	1.00216E-006	0.00000E+000	4.07109E-006	0.00000E+000	5.09333E-004	-3.27672E+002	7	...........
	512	513	4.06230E+000	1.00295E-006	0.00000E+000	4.07427E-006	0.00000E+000	5.09500E-004	-3.27672E+002	7	...........
	513	514	4.06229E+000	1.00280E-006	0.00000E+000	4.07368E-006	0.00000E+000	5.11933E-004	-3.27672E+002	7	...........
	514	515	4.06229E+000	1.00102E-006	0.00000E+000	4.06645E-006	0.00000E+000	5.10033E-004	-3.27672E+002	7	...........
	515	516	4.06228E+000	1.00145E-006	0.00000E+000	4.06818E-006	0.00000E+000	5.11050E-004	-3.27672E+002	7	...........
	516	517	4.06227E+000	1.00144E-006	0.00000E+000	4.06811E-006	0.00000E+000	5.11700E-004	-3.27672E+002	7	...........
	517	518	4.06227E+000	1.00078E-006	0.00000E+000	4.06543E-006	0.00000E+000	5.10483E-004	-3.27672E+002	7	...........
	518	519	4.06226E+000	1.00091E-006	0.00000E+000	4.06597E-006	0.00000E+000	5.10283E-004	-3.27672E+002	7	...........
	519	520	4.06226E+000	1.00137E-006	0.00000E+000	4.06781E-006	0.00000E+000	5.10617E-004	-3.27672E+002	7	...........
	520	521	4.06224E+000	1.00122E-006	0.00000E+000	4.06721E-006	0.00000E+000	5.13083E-004	-3.27672E+002	7	...........
	521	522	4.06224E+000	1.00049E-006	0.00000E+000	4.06423E-006	0.00000E+000	5.11317E-004	-3.27672E+002	7	...........
	522	523	4.06224E+000	1.00134E-006	0.00000E+000	4.06769E-006	0.00000E+000	5.11850E-004	-3.27672E+002	7	...........
	523	524	4.06223E+000	1.00127E-006	0.00000E+000	4.06740E-006	0.00000E+000	5.09750E-004	-3.27672E+002	7	...........
	524	525	4.06223E+000	1.00187E-006	0.00000E+000	4.06983E-006	0.00000E+000	5.09200E-004	-3.27672E+002	7	...........
	525	526	4.06223E+000	1.00026E-006	0.00000E+000	4.06327E-006	0.00000E+000	5.11933E-004	-3.27672E+002	7	...........
	526	527	4.06222E+000	1.00064E-006	0.00000E+000	4.06484E-006	0.00000E+000	5.10850E-004	-3.27672E+002	7	...........
	527	528	4.06222E+000	1.00123E-006	0.00000E+000	4.06720E-006	0.00000E+000	5.13850E-004	-3.27672E+002	7	...........
	528	529	4.06220E+000	9.99887E-007	0.00000E+000	4.06174E-006	0.00000E+000	5.15367E-004	-3.27672E+002	7	...........
	529	530	4.06220E+000	9.99968E-007	0.00000E+000	4.06207E-006	0.00000E+000	5.10267E-004	-3.27672E+002	7	...........
	530	531	4.06220E+000	1.00080E-006	0.00000E+000	4.06546E-006	0.00000E+000	5.10600E-004	-3.27672E+002	7	...........
	531	532	4.06219E+000	1.00155E-006	0.00000E+000	4.06848E-006	0.00000E+000	5.11583E-004	-3.27672E+002	7	...........
	532	533	4.06219E+000	1.00152E-006	0.00000E+000	4.06835E-006	0.00000E+000	5.13667E-004	-3.27672E+002	7	...........
	533	534	4.06218E+000	1.00174E-006	0.00000E+000	4.06926E-006	0.00000E+000	5.13950E-004	-3.27672E+002	7	...........
	534	535	4.06218E+000	1.00206E-006	0.00000E+000	4.07055E-006	0.00000E+000	5.12667E-004	-3.27672E+002	7	...........
	535	536	4.06217E+000	1.00309E-006	0.00000E+000	4.07473E-006	0.00000E+000	5.13183E-004	-3.27672E+002	7	...........
	536	537	4.06216E+000	1.00264E-006	0.00000E+000	4.07288E-006	0.00000E+000	5.10033E-004	-3.27672E+002	7	...........
	537	538	4.06217E+000	1.00192E-006	0.00000E+000	4.06998E-006	0.00000E+000	5.13650E-004	-3.27672E+002	7	...........
	538	539	4.06215E+000	1.00118E-006	0.00000E+000	4.06694E-006	0.00000E+000	5.12367E-004	-3.27672E+002	7	...........
	539	540	4.06214E+000	1.00097E-006	0.00000E+000	4.06607E-006	0.00000E+000	5.12967E-004	-3.27672E+002	7	...........
	540	541	4.06215E+000	1.00136E-006	0.00000E+000	4.06767E-006	0.00000E+000	5.13467E-004	-3.27672E+002	7	...........
	541	542	4.06214E+000	1.00115E-006	0.00000E+000	4.06680E-006	0.00000E+000	5.13850E-004	-3.27672E+002	7	...........
	542	543	4.06214E+000	1.00145E-006	0.00000E+000	4.06802E-006	0.00000E+000	5.12017E-004	-3.27672E+002	7	...........
	543	544	4.06213E+000	1.00144E-006	0.00000E+000	4.06799E-006	0.00000E+000	5.13183E-004	-3.27672E+002	7	...........
	544	545	4.06212E+000	1.00142E-006	0.00000E+000	4.06790E-006	0.00000E+000	5.10467E-004	-3.27672E+002	7	...........
	545	546	4.06212E+000	1.00192E-006	0.00000E+000	4.06992E-006	0.00000E+000	5.11567E-004	-3.27672E+002	7	...........
	546	547	4.06212E+000	1.00204E-006	0.00000E+000	4.07041E-006	0.00000E+000	5.11667E-004	-3.27672E+002	7	...........
	547	548	4.06211E+000	1.00219E-006	0.00000E+000	4.07101E-006	0.00000E+000	5.13800E-004	-3.27672E+002	7	...........
	548	549	4.06212E+000	1.00170E-006	0.00000E+000	4.06903E-006	0.00000E+000	5.13300E-004	-3.27672E+002	7	...........
	549	550	4.06210E+000	1.00108E-006	0.00000E+000	4.06648E-006	0.00000E+000	5.15467E-004	-3.27672E+002	7	...........
	550	551	4.06211E+000	1.00112E-006	0.00000E+000	4.06664E-006	0.00000E+000	5.15183E-004	-3.27672E+002	7	...........
	551	552	4.06210E+000	1.00145E-006	0.00000E+000	4.06800E-006	0.00000E+000	5.16950E-004	-3.27672E+002	7	...........
	552	553	4.06208E+000	1.00073E-006	0.00000E+000	4.06504E-006	0.00000E+000	5.12583E-004	-3.27672E+002	7	...........
	553	554	4.06207E+000	1.00033E-006	0.00000E+000	4.06342E-006	0.00000E+000	5.11250E-004	-3.27672E+002	7	...........
	554	555	4.06208E+000	1.00139E-006	0.00000E+000	4.06771E-006	0.00000E+000	5.13467E-004	-3.27672E+002	7	...........
	555	556	4.06208E+000	1.00064E-006	0.00000E+000	4.06468E-006	0.00000E+000	5.15200E-004	-3.27672E+002	7	...........
	556	557	4.06207E+000	1.00153E-006	0.00000E+000	4.06827E-006	0.00000E+000	5.15133E-004	-3.27672E+002	7	...........
	557	558	4.06207E+000	1.00186E-006	0.00000E+000	4.06963E-006	0.00000E+000	5.12533E-004	-3.27672E+002	7	...........
	558	559	4.06205E+000	1.00159E-006	0.00000E+000	4.06849E-006	0.00000E+000	5.13983E-004	-3.27672E+002	7	...........
	559	560	4.06205E+000	1.00162E-006	0.00000E+000	4.06865E-006	0.00000E+000	5.12983E-004	-3.27672E+002	7	...........
	560	561	4.06205E+000	1.00049E-006	0.00000E+000	4.06403E-006	0.00000E+000	5.14700E-004	-3.27672E+002	7	...........
	561	562	4.06204E+000	1.00022E-006	0.00000E+000	4.06294E-006	0.00000E+000	5.11133E-004	-3.27672E+002	7	...........
	562	563	4.06204E+000	1.00096E-006	0.00000E+000	4.06592E-006	0.00000E+000	5.14283E-004	-3.27672E+002	7	...........
	563	564	4.06203E+000	1.00048E-006	0.00000E+000	4.06397E-006	0.00000E+000	5.12917E-004	-3.27672E+002	7	...........
	564	565	4.06203E+000	1.00089E-006	0.00000E+000	4.06564E-006	0.00000E+000	5.12683E-004	-3.27672E+002	7	...........
	565	566	4.06202E+000	1.00055E-006	0.00000E+000	4.06424E-006	0.00000E+000	5.13817E-004	-3.27672E+002	7	...........
	566	567	4.06202E+000	1.00090E-006	0.00000E+000	4.06567E-006	0.00000E+000	5.13500E-004	-3.27672E+002	7	...........
	567	568	4.06201E+000	1.00105E-006	0.00000E+000	4.06629E-006	0.00000E+000	5.14800E-004	-3.27672E+002	7	...........
	568	569	4.06201E+000	1.00128E-006	0.00000E+000	4.06723E-006	0.00000E+000	5.11850E-004	-3.27672E+002	7	...........
	569	570	4.06201E+000	1.00129E-006	0.00000E+000	4.06724E-006	0.00000E+000	5.13350E-004	-3.27672E+002	7	...........
	570	571	4.06199E+000	1.00131E-006	0.00000E+000	4.06733E-006	0.00000E+000	5.16767E-004	-3.27672E+002	7	...........
	571	572	4.06200E+000	1.00069E-006	0.00000E+000	4.06478E-006	0.00000E+000	5.14900E-004	-3.27672E+002	7	...........
	572	573	4.06199E+000	1.00126E-006	0.00000E+000	4.06712E-006	0.00000E+000	5.14183E-004	-3.27672E+002	7	...........
	573	574	4.06197E+000	1.00163E-006	0.00000E+000	4.06860E-006	0.00000E+000	5.15917E-004	-3.27672E+002	7	...........
	574	575	4.06197E+000	1.00118E-006	0.00000E+000	4.06677E-006	0.00000E+000	5.14617E-004	-3.27672E+002	7	...........
	575	576	4.06196E+000	1.00093E-006	0.00000E+000	4.06573E-006	0.00000E+000	5.16517E-004	-3.27672E+002	7	...........
	576	577	4.06196E+000	1.00131E-006	0.00000E+000	4.06727E-006	0.00000E+000	5.15783E-004	-3.27672E+002	7	...........
	577	578	4.06195E+000	1.00113E-006	0.00000E+000	4.06654E-006	0.00000E+000	5.15033E-004	-3.27672E+002	7	...........
	578	579	4.06196E+000	1.00022E-006	0.00000E+000	4.06286E-006	0.00000E+000	5.15283E-004	-3.27672E+002	7	...........
	579	580	4.06196E+000	1.00048E-006	0.00000E+000	4.06389E-006	0.00000E+000	5.15300E-004	-3.27672E+002	7	...........
	580	581	4.06195E+000	1.00155E-006	0.00000E+000	4.06825E-006	0.00000E+000	5.15950E-004	-3.27672E+002	7	...........
	581	582	4.06195E+000	1.00156E-006	0.00000E+000	4.06826E-006	0.00000E+000	5.16600E-004	-3.27672E+002	7	...........
	582	583	4.06194E+000	1.00191E-006	0.00000E+000	4.06970E-006	0.00000E+000	5.13617E-004	-3.27672E+002	7	...........
	583	584	4.06193E+000	1.00151E-006	0.00000E+000	4.06807E-006	0.00000E+000	5.16533E-004	-3.27672E+002	7	...........
	584	585	4.06194E+000	1.00169E-006	0.00000E+000	4.06879E-006	0.00000E+000	5.16233E-004	-3.27672E+002	7	...........
	585	586	4.06193E+000	1.00130E-006	0.00000E+000	4.06721E-006	0.00000E+000	5.15817E-004	-3.27672E+002	7	...........
	586	587	4.06193E+000	1.00091E-006	0.00000E+000	4.06564E-006	0.00000E+000	5.15950E-004	-3.27672E+002	7	...........
	587	588	4.06192E+000	1.00115E-006	0.00000E+000	4.06657E-006	0.00000E+000	5.15617E-004	-3.27672E+002	7	...........
	588	589	4.06191E+000	1.00150E-006	0.00000E+000	4.06801E-006	0.00000E+000	5.16350E-004	-3.27672E+002	7	...........
	589	590	4.06190E+000	1.00112E-006	0.00000E+000	4.06646E-006	0.00000E+000	5.13933E-004	-3.27672E+002	7	...........
	590	591	4.06190E+000	1.00125E-006	0.00000E+000	4.06698E-006	0.00000E+000	5.16067E-004	-3.27672E+002	7	...........
	591	592	4.06189E+000	1.00243E-006	0.00000E+000	4.07178E-006	0.00000E+000	5.16350E-004	-3.27672E+002	7	...........
	592	593	4.06188E+000	1.00157E-006	0.00000E+000	4.06824E-006	0.00000E+000	5.16150E-004	-3.27672E+002	7	...........
	593	594	4.06189E+000	1.00067E-006	0.00000E+000	4.06461E-006	0.00000E+000	5.18167E-004	-3.27672E+002	7	...........
	594	595	4.06188E+000	1.00103E-006	0.00000E+000	4.06608E-006	0.00000E+000	5.15767E-004	-3.27672E+002	7	...........
	595	596	4.06187E+000	1.00218E-006	0.00000E+000	4.07071E-006	0.00000E+000	5.17117E-004	-3.27672E+002	7	...........
	596	597	4.06187E+000	1.00124E-006	0.00000E+000	4.06689E-006	0.00000E+000	5.15667E-004	-3.27672E+002	7	...........
	597	598	4.06185E+000	1.00205E-006	0.00000E+000	4.07018E-006	0.00000E+000	5.15517E-004	-3.27672E+002	7	...........
	598	599	4.06185E+000	1.00160E-006	0.00000E+000	4.06834E-006	0.00000E+000	5.15267E-004	-3.27672E+002	7	...........
	599	600	4.06184E+000	1.00150E-006	0.00000E+000	4.06794E-006	0.00000E+000	5.14833E-004	-3.27672E+002	7	...........
