EXPLAIN
TAG	PWR800_READVOLTAGE
TITLE	LABEL	PWR Read Voltage	Test Identifier
DATE	LABEL	3.2.2024	Date
TIME	LABEL	8:40:46	Time
NOTES	NOTES	1	Notes...
	
PSTAT	PSTAT	REF600-12055	Potentiostat
CAPACITY	QUANT	1.00000E+000	Capacity (A-hr)
CELLTYPE	SELECTOR	1	Cell Type
WORKINGCONNECTION	SELECTOR	0	Working Connection
MAXTIME	VARIABLEANDUNITS	6.00000E+002	s	6.00000E+002	second(s)	Max Time
SAMPLETIME	QUANT	1.00000E+000	Sample Period (s)
STOPAT1	MULTIPARAM	0	0.00000E+000	Stop At 1	None	N/A
STOPAT2	MULTIPARAM	0	0.00000E+000	Stop At 2	None	N/A
AESBHCSELECTOR	TOGGLE	F	Save Both Half Cells
EOC	QUANT	4.033575	Open Circuit (V)
SEQUENCER	TOGGLE	TRUE	Run as Sequence
PSTATMODEL	IQUANT	4	Pstat Model
PSTATSECTION	LABEL	REF600-12055	Pstat Section
PSTATSERIALNO	LABEL	12055	Pstat Serial Number
CTRLMODE	IQUANT	0	Control Mode
ELECTROMETER	IQUANT	0	RE=0 or CS=1
IESTAB	IQUANT	0	I/E Stability
CASPEED	IQUANT	4	Control Amp Speed
CONVENTION	IQUANT	1	Current Convention
ICHRANGE	IQUANT	2	Ich Range
ICHRANGEMODE	TOGGLE	T	Ich Auto Range
ICHOFFSETENABLE	TOGGLE	F	Ich Offset Enable
ICHOFFSET	QUANT	0	Ich Offset (V)
ICHFILTER	IQUANT	1	Ich Filter
VCHRANGE	IQUANT	3	Vch Range
VCHRANGEMODE	TOGGLE	T	Vch Auto Range
VCHOFFSETENABLE	TOGGLE	F	Vch Offset Enable
VCHOFFSET	QUANT	0	Vch Offset (V)
VCHFILTER	IQUANT	1	Vch Filter
ACHRANGE	IQUANT	2	Ach Range
ACHOFFSETENABLE	TOGGLE	F	Ach Offset Enable
ACHOFFSET	QUANT	0	Ach Offset (V)
ACHFILTER	IQUANT	1	Ach Filter
IERANGELOWERLIMIT	IQUANT	7	I/E Range Lower Limit
IERANGEMODE	TOGGLE	F	I/E AutoRange
IERANGE	IQUANT	11	I/E Range
POSFEEDENABLE	TOGGLE	F	Positive Feedback IR Comp
POSFEEDRESISTANCE	QUANT	0	Positive Feedback Resistance (ohm)
ACHSELECT	IQUANT	4	Ach Select
SENSECABLEID	IQUANT	14	Sense Cable ID
PWRCABLEID	IQUANT	14	Power Cable ID
DCCALDATE	LABEL		DC Calibration Date
ACCALDATE	LABEL		AC Calibration Date
THERMOSELECT	IQUANT	1	Thermo Select
FRAMEWORKVERSION	LABEL	7.10.3	Framework Version
INSTRUMENTVERSION	LABEL	4.91	Instrument Version
COMMVERSION	LABEL	2.24	Communications Version
CPUPLDVERSION	LABEL	0.00	CPU PLD Version
CTRLPLDVERSION	LABEL	0.00	CTRL PLD Version
PSTATPLDVERSION	LABEL	0.00	PSTAT PLD Version
CURVE	TABLE	600
	Pt	T	Vf	Im	Vu	Pwr	Sig	Ach	Temp	IERange	Over
	#	s	V	A	V	W	V	V	deg C	#	bits
	0	1	3.92709E+000	8.26635E-007	0.00000E+000	3.24627E-006	0.00000E+000	7.49017E-004	-3.27672E+002	7	...........
	1	2	3.92742E+000	8.27976E-007	0.00000E+000	3.25181E-006	0.00000E+000	7.35650E-004	-3.27672E+002	7	...........
	2	3	3.92767E+000	8.28554E-007	0.00000E+000	3.25429E-006	0.00000E+000	7.32567E-004	-3.27672E+002	7	...........
	3	4	3.92785E+000	8.28664E-007	0.00000E+000	3.25487E-006	0.00000E+000	7.32517E-004	-3.27672E+002	7	...........
	4	5	3.92802E+000	8.28731E-007	0.00000E+000	3.25528E-006	0.00000E+000	7.32750E-004	-3.27672E+002	7	...........
	5	6	3.92816E+000	8.29570E-007	0.00000E+000	3.25868E-006	0.00000E+000	7.39617E-004	-3.27672E+002	7	...........
	6	7	3.92829E+000	8.29612E-007	0.00000E+000	3.25896E-006	0.00000E+000	7.41317E-004	-3.27672E+002	7	...........
	7	8	3.92842E+000	8.29530E-007	0.00000E+000	3.25874E-006	0.00000E+000	7.42450E-004	-3.27672E+002	7	...........
	8	9	3.92853E+000	8.29740E-007	0.00000E+000	3.25966E-006	0.00000E+000	7.43100E-004	-3.27672E+002	7	...........
	9	10	3.92864E+000	8.29740E-007	0.00000E+000	3.25975E-006	0.00000E+000	7.46383E-004	-3.27672E+002	7	...........
	10	11	3.92875E+000	8.29901E-007	0.00000E+000	3.26048E-006	0.00000E+000	7.45817E-004	-3.27672E+002	7	...........
	11	12	3.92886E+000	8.30668E-007	0.00000E+000	3.26358E-006	0.00000E+000	7.43467E-004	-3.27672E+002	7	...........
	12	13	3.92896E+000	8.30879E-007	0.00000E+000	3.26449E-006	0.00000E+000	7.44583E-004	-3.27672E+002	7	...........
	13	14	3.92904E+000	8.30800E-007	0.00000E+000	3.26425E-006	0.00000E+000	7.42017E-004	-3.27672E+002	7	...........
	14	15	3.92913E+000	8.32080E-007	0.00000E+000	3.26935E-006	0.00000E+000	7.41467E-004	-3.27672E+002	7	...........
	15	16	3.92921E+000	8.31562E-007	0.00000E+000	3.26738E-006	0.00000E+000	7.38733E-004	-3.27672E+002	7	...........
	16	17	3.92929E+000	8.31307E-007	0.00000E+000	3.26645E-006	0.00000E+000	7.39950E-004	-3.27672E+002	7	...........
	17	18	3.92937E+000	8.31729E-007	0.00000E+000	3.26817E-006	0.00000E+000	7.42900E-004	-3.27672E+002	7	...........
	18	19	3.92944E+000	8.32075E-007	0.00000E+000	3.26959E-006	0.00000E+000	7.43450E-004	-3.27672E+002	7	...........
	19	20	3.92951E+000	8.32240E-007	0.00000E+000	3.27029E-006	0.00000E+000	7.43817E-004	-3.27672E+002	7	...........
	20	21	3.92957E+000	8.32879E-007	0.00000E+000	3.27286E-006	0.00000E+000	5.48533E-004	-3.27672E+002	7	...........
	21	22	3.92964E+000	8.33058E-007	0.00000E+000	3.27362E-006	0.00000E+000	4.60900E-004	-3.27672E+002	7	...........
	22	23	3.92972E+000	8.33084E-007	0.00000E+000	3.27379E-006	0.00000E+000	4.63117E-004	-3.27672E+002	7	...........
	23	24	3.92980E+000	8.33256E-007	0.00000E+000	3.27453E-006	0.00000E+000	4.66983E-004	-3.27672E+002	7	...........
	24	25	3.92989E+000	8.32911E-007	0.00000E+000	3.27324E-006	0.00000E+000	4.71367E-004	-3.27672E+002	7	...........
	25	26	3.92996E+000	8.33805E-007	0.00000E+000	3.27682E-006	0.00000E+000	4.74317E-004	-3.27672E+002	7	...........
	26	27	3.93004E+000	8.33796E-007	0.00000E+000	3.27685E-006	0.00000E+000	4.74617E-004	-3.27672E+002	7	...........
	27	28	3.93011E+000	8.33677E-007	0.00000E+000	3.27645E-006	0.00000E+000	4.79017E-004	-3.27672E+002	7	...........
	28	29	3.93020E+000	8.34188E-007	0.00000E+000	3.27852E-006	0.00000E+000	4.78750E-004	-3.27672E+002	7	...........
	29	30	3.93027E+000	8.34507E-007	0.00000E+000	3.27984E-006	0.00000E+000	4.82450E-004	-3.27672E+002	7	...........
	30	31	3.93034E+000	8.34757E-007	0.00000E+000	3.28088E-006	0.00000E+000	4.83850E-004	-3.27672E+002	7	...........
	31	32	3.93042E+000	8.35475E-007	0.00000E+000	3.28377E-006	0.00000E+000	4.85950E-004	-3.27672E+002	7	...........
	32	33	3.93048E+000	8.35700E-007	0.00000E+000	3.28470E-006	0.00000E+000	4.83283E-004	-3.27672E+002	7	...........
	33	34	3.93055E+000	8.35360E-007	0.00000E+000	3.28343E-006	0.00000E+000	4.83783E-004	-3.27672E+002	7	...........
	34	35	3.93061E+000	8.35523E-007	0.00000E+000	3.28412E-006	0.00000E+000	4.84967E-004	-3.27672E+002	7	...........
	35	36	3.93066E+000	8.35407E-007	0.00000E+000	3.28370E-006	0.00000E+000	4.84883E-004	-3.27672E+002	7	...........
	36	37	3.93072E+000	8.35488E-007	0.00000E+000	3.28407E-006	0.00000E+000	4.81500E-004	-3.27672E+002	7	...........
	37	38	3.93079E+000	8.36105E-007	0.00000E+000	3.28655E-006	0.00000E+000	4.83067E-004	-3.27672E+002	7	...........
	38	39	3.93084E+000	8.35867E-007	0.00000E+000	3.28566E-006	0.00000E+000	4.82700E-004	-3.27672E+002	7	...........
	39	40	3.93090E+000	8.36066E-007	0.00000E+000	3.28649E-006	0.00000E+000	4.81033E-004	-3.27672E+002	7	...........
	40	41	3.93095E+000	8.36126E-007	0.00000E+000	3.28677E-006	0.00000E+000	4.79950E-004	-3.27672E+002	7	...........
	41	42	3.93100E+000	8.36313E-007	0.00000E+000	3.28755E-006	0.00000E+000	4.79400E-004	-3.27672E+002	7	...........
	42	43	3.93107E+000	8.35951E-007	0.00000E+000	3.28618E-006	0.00000E+000	4.77717E-004	-3.27672E+002	7	...........
	43	44	3.93111E+000	8.36470E-007	0.00000E+000	3.28826E-006	0.00000E+000	4.76350E-004	-3.27672E+002	7	...........
	44	45	3.93116E+000	8.36289E-007	0.00000E+000	3.28759E-006	0.00000E+000	4.75517E-004	-3.27672E+002	7	...........
	45	46	3.93122E+000	8.36588E-007	0.00000E+000	3.28881E-006	0.00000E+000	4.77550E-004	-3.27672E+002	7	...........
	46	47	3.93127E+000	8.36697E-007	0.00000E+000	3.28928E-006	0.00000E+000	4.76250E-004	-3.27672E+002	7	...........
	47	48	3.93131E+000	8.36979E-007	0.00000E+000	3.29042E-006	0.00000E+000	4.72350E-004	-3.27672E+002	7	...........
	48	49	3.93136E+000	8.37088E-007	0.00000E+000	3.29089E-006	0.00000E+000	4.71233E-004	-3.27672E+002	7	...........
	49	50	3.93139E+000	8.37653E-007	0.00000E+000	3.29314E-006	0.00000E+000	4.68433E-004	-3.27672E+002	7	...........
	50	51	3.93144E+000	8.36558E-007	0.00000E+000	3.28888E-006	0.00000E+000	4.68233E-004	-3.27672E+002	7	...........
	51	52	3.93149E+000	8.37675E-007	0.00000E+000	3.29331E-006	0.00000E+000	4.69817E-004	-3.27672E+002	7	...........
	52	53	3.93152E+000	8.37363E-007	0.00000E+000	3.29211E-006	0.00000E+000	4.63783E-004	-3.27672E+002	7	...........
	53	54	3.93157E+000	8.37393E-007	0.00000E+000	3.29226E-006	0.00000E+000	4.66400E-004	-3.27672E+002	7	...........
	54	55	3.93161E+000	8.37350E-007	0.00000E+000	3.29213E-006	0.00000E+000	4.64717E-004	-3.27672E+002	7	...........
	55	56	3.93164E+000	8.37394E-007	0.00000E+000	3.29233E-006	0.00000E+000	4.64217E-004	-3.27672E+002	7	...........
	56	57	3.93168E+000	8.37727E-007	0.00000E+000	3.29367E-006	0.00000E+000	4.64867E-004	-3.27672E+002	7	...........
	57	58	3.93172E+000	8.38054E-007	0.00000E+000	3.29499E-006	0.00000E+000	4.61667E-004	-3.27672E+002	7	...........
	58	59	3.93175E+000	8.38722E-007	0.00000E+000	3.29765E-006	0.00000E+000	4.61767E-004	-3.27672E+002	7	...........
	59	60	3.93179E+000	8.38230E-007	0.00000E+000	3.29574E-006	0.00000E+000	4.59217E-004	-3.27672E+002	7	...........
	60	61	3.93182E+000	8.38328E-007	0.00000E+000	3.29616E-006	0.00000E+000	4.63567E-004	-3.27672E+002	7	...........
	61	62	3.93186E+000	8.38525E-007	0.00000E+000	3.29696E-006	0.00000E+000	4.63483E-004	-3.27672E+002	7	...........
	62	63	3.93190E+000	8.37952E-007	0.00000E+000	3.29474E-006	0.00000E+000	4.62150E-004	-3.27672E+002	7	...........
	63	64	3.93194E+000	8.37873E-007	0.00000E+000	3.29446E-006	0.00000E+000	4.62267E-004	-3.27672E+002	7	...........
	64	65	3.93197E+000	8.38633E-007	0.00000E+000	3.29748E-006	0.00000E+000	4.61767E-004	-3.27672E+002	7	...........
	65	66	3.93200E+000	8.38906E-007	0.00000E+000	3.29858E-006	0.00000E+000	4.59100E-004	-3.27672E+002	7	...........
	66	67	3.93203E+000	8.39162E-007	0.00000E+000	3.29962E-006	0.00000E+000	4.59133E-004	-3.27672E+002	7	...........
	67	68	3.93207E+000	8.38453E-007	0.00000E+000	3.29686E-006	0.00000E+000	4.56600E-004	-3.27672E+002	7	...........
	68	69	3.93210E+000	8.38313E-007	0.00000E+000	3.29633E-006	0.00000E+000	4.60617E-004	-3.27672E+002	7	...........
	69	70	3.93214E+000	8.38740E-007	0.00000E+000	3.29804E-006	0.00000E+000	4.58667E-004	-3.27672E+002	7	...........
	70	71	3.93217E+000	8.38816E-007	0.00000E+000	3.29837E-006	0.00000E+000	4.59100E-004	-3.27672E+002	7	...........
	71	72	3.93221E+000	8.39241E-007	0.00000E+000	3.30007E-006	0.00000E+000	4.58667E-004	-3.27672E+002	7	...........
	72	73	3.93224E+000	8.39477E-007	0.00000E+000	3.30103E-006	0.00000E+000	4.54517E-004	-3.27672E+002	7	...........
	73	74	3.93227E+000	8.39628E-007	0.00000E+000	3.30164E-006	0.00000E+000	4.53933E-004	-3.27672E+002	7	...........
	74	75	3.93230E+000	8.39712E-007	0.00000E+000	3.30200E-006	0.00000E+000	4.54967E-004	-3.27672E+002	7	...........
	75	76	3.93233E+000	8.39309E-007	0.00000E+000	3.30044E-006	0.00000E+000	4.55567E-004	-3.27672E+002	7	...........
	76	77	3.93235E+000	8.39712E-007	0.00000E+000	3.30204E-006	0.00000E+000	4.57117E-004	-3.27672E+002	7	...........
	77	78	3.93239E+000	8.39459E-007	0.00000E+000	3.30108E-006	0.00000E+000	4.54267E-004	-3.27672E+002	7	...........
	78	79	3.93242E+000	8.38943E-007	0.00000E+000	3.29908E-006	0.00000E+000	4.54950E-004	-3.27672E+002	7	...........
	79	80	3.93245E+000	8.38745E-007	0.00000E+000	3.29832E-006	0.00000E+000	4.54917E-004	-3.27672E+002	7	...........
	80	81	3.93247E+000	8.39062E-007	0.00000E+000	3.29959E-006	0.00000E+000	4.52683E-004	-3.27672E+002	7	...........
	81	82	3.93251E+000	8.39217E-007	0.00000E+000	3.30023E-006	0.00000E+000	4.54583E-004	-3.27672E+002	7	...........
	82	83	3.93254E+000	8.39348E-007	0.00000E+000	3.30077E-006	0.00000E+000	4.57433E-004	-3.27672E+002	7	...........
	83	84	3.93257E+000	8.41017E-007	0.00000E+000	3.30735E-006	0.00000E+000	4.56600E-004	-3.27672E+002	7	...........
	84	85	3.93259E+000	8.40572E-007	0.00000E+000	3.30562E-006	0.00000E+000	4.53450E-004	-3.27672E+002	7	...........
	85	86	3.93262E+000	8.39784E-007	0.00000E+000	3.30255E-006	0.00000E+000	4.54200E-004	-3.27672E+002	7	...........
	86	87	3.93265E+000	8.39377E-007	0.00000E+000	3.30097E-006	0.00000E+000	4.54733E-004	-3.27672E+002	7	...........
	87	88	3.93267E+000	8.39522E-007	0.00000E+000	3.30156E-006	0.00000E+000	4.53350E-004	-3.27672E+002	7	...........
	88	89	3.93269E+000	8.39989E-007	0.00000E+000	3.30342E-006	0.00000E+000	4.57217E-004	-3.27672E+002	7	...........
	89	90	3.93272E+000	8.40045E-007	0.00000E+000	3.30366E-006	0.00000E+000	4.56317E-004	-3.27672E+002	7	...........
	90	91	3.93275E+000	8.40334E-007	0.00000E+000	3.30482E-006	0.00000E+000	4.56633E-004	-3.27672E+002	7	...........
	91	92	3.93277E+000	8.40235E-007	0.00000E+000	3.30445E-006	0.00000E+000	4.56367E-004	-3.27672E+002	7	...........
	92	93	3.93279E+000	8.40489E-007	0.00000E+000	3.30547E-006	0.00000E+000	4.58500E-004	-3.27672E+002	7	...........
	93	94	3.93282E+000	8.39540E-007	0.00000E+000	3.30176E-006	0.00000E+000	4.57533E-004	-3.27672E+002	7	...........
	94	95	3.93284E+000	8.39872E-007	0.00000E+000	3.30308E-006	0.00000E+000	4.59100E-004	-3.27672E+002	7	...........
	95	96	3.93287E+000	8.40503E-007	0.00000E+000	3.30559E-006	0.00000E+000	4.61400E-004	-3.27672E+002	7	...........
	96	97	3.93289E+000	8.40560E-007	0.00000E+000	3.30583E-006	0.00000E+000	4.59917E-004	-3.27672E+002	7	...........
	97	98	3.93291E+000	8.40614E-007	0.00000E+000	3.30606E-006	0.00000E+000	4.64567E-004	-3.27672E+002	7	...........
	98	99	3.93293E+000	8.40271E-007	0.00000E+000	3.30473E-006	0.00000E+000	4.62617E-004	-3.27672E+002	7	...........
	99	100	3.93296E+000	8.40592E-007	0.00000E+000	3.30601E-006	0.00000E+000	4.61383E-004	-3.27672E+002	7	...........
	100	101	3.93299E+000	8.41495E-007	0.00000E+000	3.30959E-006	0.00000E+000	4.62433E-004	-3.27672E+002	7	...........
	101	102	3.93300E+000	8.41664E-007	0.00000E+000	3.31026E-006	0.00000E+000	4.64933E-004	-3.27672E+002	7	...........
	102	103	3.93301E+000	8.40829E-007	0.00000E+000	3.30699E-006	0.00000E+000	4.67567E-004	-3.27672E+002	7	...........
	103	104	3.93305E+000	8.41610E-007	0.00000E+000	3.31009E-006	0.00000E+000	4.63750E-004	-3.27672E+002	7	...........
	104	105	3.93306E+000	8.41264E-007	0.00000E+000	3.30875E-006	0.00000E+000	4.68167E-004	-3.27672E+002	7	...........
	105	106	3.93308E+000	8.41470E-007	0.00000E+000	3.30957E-006	0.00000E+000	4.68600E-004	-3.27672E+002	7	...........
	106	107	3.93310E+000	8.41200E-007	0.00000E+000	3.30852E-006	0.00000E+000	4.70500E-004	-3.27672E+002	7	...........
	107	108	3.93312E+000	8.41847E-007	0.00000E+000	3.31109E-006	0.00000E+000	4.69567E-004	-3.27672E+002	7	...........
	108	109	3.93314E+000	8.41886E-007	0.00000E+000	3.31126E-006	0.00000E+000	4.70233E-004	-3.27672E+002	7	...........
	109	110	3.93316E+000	8.41686E-007	0.00000E+000	3.31049E-006	0.00000E+000	4.71567E-004	-3.27672E+002	7	...........
	110	111	3.93318E+000	8.42131E-007	0.00000E+000	3.31225E-006	0.00000E+000	4.69600E-004	-3.27672E+002	7	...........
	111	112	3.93320E+000	8.41468E-007	0.00000E+000	3.30966E-006	0.00000E+000	4.73150E-004	-3.27672E+002	7	...........
	112	113	3.93322E+000	8.41982E-007	0.00000E+000	3.31170E-006	0.00000E+000	4.71250E-004	-3.27672E+002	7	...........
	113	114	3.93323E+000	8.42465E-007	0.00000E+000	3.31361E-006	0.00000E+000	4.70283E-004	-3.27672E+002	7	...........
	114	115	3.93326E+000	8.43102E-007	0.00000E+000	3.31614E-006	0.00000E+000	4.70850E-004	-3.27672E+002	7	...........
	115	116	3.93327E+000	8.43105E-007	0.00000E+000	3.31616E-006	0.00000E+000	4.75783E-004	-3.27672E+002	7	...........
	116	117	3.93329E+000	8.43429E-007	0.00000E+000	3.31745E-006	0.00000E+000	4.75367E-004	-3.27672E+002	7	...........
	117	118	3.93331E+000	8.43354E-007	0.00000E+000	3.31717E-006	0.00000E+000	4.74483E-004	-3.27672E+002	7	...........
	118	119	3.93333E+000	8.43928E-007	0.00000E+000	3.31944E-006	0.00000E+000	4.75283E-004	-3.27672E+002	7	...........
	119	120	3.93335E+000	8.43436E-007	0.00000E+000	3.31753E-006	0.00000E+000	4.73000E-004	-3.27672E+002	7	...........
	120	121	3.93337E+000	8.43120E-007	0.00000E+000	3.31630E-006	0.00000E+000	4.72550E-004	-3.27672E+002	7	...........
	121	122	3.93339E+000	8.42928E-007	0.00000E+000	3.31556E-006	0.00000E+000	4.73217E-004	-3.27672E+002	7	...........
	122	123	3.93340E+000	8.43271E-007	0.00000E+000	3.31692E-006	0.00000E+000	4.73067E-004	-3.27672E+002	7	...........
	123	124	3.93342E+000	8.43307E-007	0.00000E+000	3.31708E-006	0.00000E+000	4.73633E-004	-3.27672E+002	7	...........
	124	125	3.93344E+000	8.43735E-007	0.00000E+000	3.31878E-006	0.00000E+000	4.73400E-004	-3.27672E+002	7	...........
	125	126	3.93345E+000	8.44195E-007	0.00000E+000	3.32060E-006	0.00000E+000	4.75383E-004	-3.27672E+002	7	...........
	126	127	3.93347E+000	8.44297E-007	0.00000E+000	3.32101E-006	0.00000E+000	4.76500E-004	-3.27672E+002	7	...........
	127	128	3.93349E+000	8.43958E-007	0.00000E+000	3.31970E-006	0.00000E+000	4.76517E-004	-3.27672E+002	7	...........
	128	129	3.93350E+000	8.43946E-007	0.00000E+000	3.31966E-006	0.00000E+000	4.73717E-004	-3.27672E+002	7	...........
	129	130	3.93352E+000	8.43984E-007	0.00000E+000	3.31983E-006	0.00000E+000	4.71733E-004	-3.27672E+002	7	...........
	130	131	3.93354E+000	8.43913E-007	0.00000E+000	3.31957E-006	0.00000E+000	4.74817E-004	-3.27672E+002	7	...........
	131	132	3.93355E+000	8.44078E-007	0.00000E+000	3.32022E-006	0.00000E+000	4.76133E-004	-3.27672E+002	7	...........
	132	133	3.93357E+000	8.44233E-007	0.00000E+000	3.32085E-006	0.00000E+000	4.74900E-004	-3.27672E+002	7	...........
	133	134	3.93358E+000	8.44510E-007	0.00000E+000	3.32195E-006	0.00000E+000	4.72417E-004	-3.27672E+002	7	...........
	134	135	3.93360E+000	8.44276E-007	0.00000E+000	3.32104E-006	0.00000E+000	4.73600E-004	-3.27672E+002	7	...........
	135	136	3.93361E+000	8.44838E-007	0.00000E+000	3.32326E-006	0.00000E+000	4.72850E-004	-3.27672E+002	7	...........
	136	137	3.93363E+000	8.45431E-007	0.00000E+000	3.32561E-006	0.00000E+000	4.72333E-004	-3.27672E+002	7	...........
	137	138	3.93364E+000	8.44365E-007	0.00000E+000	3.32143E-006	0.00000E+000	4.72033E-004	-3.27672E+002	7	...........
	138	139	3.93366E+000	8.44261E-007	0.00000E+000	3.32104E-006	0.00000E+000	4.71550E-004	-3.27672E+002	7	...........
	139	140	3.93367E+000	8.44206E-007	0.00000E+000	3.32083E-006	0.00000E+000	4.72833E-004	-3.27672E+002	7	...........
	140	141	3.93369E+000	8.44395E-007	0.00000E+000	3.32159E-006	0.00000E+000	4.70483E-004	-3.27672E+002	7	...........
	141	142	3.93370E+000	8.44982E-007	0.00000E+000	3.32390E-006	0.00000E+000	4.71000E-004	-3.27672E+002	7	...........
	142	143	3.93372E+000	8.44340E-007	0.00000E+000	3.32140E-006	0.00000E+000	4.73067E-004	-3.27672E+002	7	...........
	143	144	3.93374E+000	8.44721E-007	0.00000E+000	3.32292E-006	0.00000E+000	4.70300E-004	-3.27672E+002	7	...........
	144	145	3.93375E+000	8.45305E-007	0.00000E+000	3.32522E-006	0.00000E+000	4.68967E-004	-3.27672E+002	7	...........
	145	146	3.93376E+000	8.45270E-007	0.00000E+000	3.32509E-006	0.00000E+000	4.71617E-004	-3.27672E+002	7	...........
	146	147	3.93378E+000	8.44827E-007	0.00000E+000	3.32336E-006	0.00000E+000	4.71683E-004	-3.27672E+002	7	...........
	147	148	3.93379E+000	8.44635E-007	0.00000E+000	3.32261E-006	0.00000E+000	4.73317E-004	-3.27672E+002	7	...........
	148	149	3.93380E+000	8.44356E-007	0.00000E+000	3.32153E-006	0.00000E+000	4.71067E-004	-3.27672E+002	7	...........
	149	150	3.93381E+000	8.44677E-007	0.00000E+000	3.32280E-006	0.00000E+000	4.69783E-004	-3.27672E+002	7	...........
	150	151	3.93383E+000	8.44199E-007	0.00000E+000	3.32093E-006	0.00000E+000	4.68400E-004	-3.27672E+002	7	...........
	151	152	3.93384E+000	8.44555E-007	0.00000E+000	3.32234E-006	0.00000E+000	4.69983E-004	-3.27672E+002	7	...........
	152	153	3.93386E+000	8.44558E-007	0.00000E+000	3.32237E-006	0.00000E+000	4.69067E-004	-3.27672E+002	7	...........
	153	154	3.93387E+000	8.45173E-007	0.00000E+000	3.32480E-006	0.00000E+000	4.69383E-004	-3.27672E+002	7	...........
	154	155	3.93388E+000	8.44534E-007	0.00000E+000	3.32230E-006	0.00000E+000	4.67450E-004	-3.27672E+002	7	...........
	155	156	3.93389E+000	8.45113E-007	0.00000E+000	3.32459E-006	0.00000E+000	4.68900E-004	-3.27672E+002	7	...........
	156	157	3.93390E+000	8.45334E-007	0.00000E+000	3.32546E-006	0.00000E+000	4.66650E-004	-3.27672E+002	7	...........
	157	158	3.93392E+000	8.44810E-007	0.00000E+000	3.32341E-006	0.00000E+000	4.66483E-004	-3.27672E+002	7	...........
	158	159	3.93393E+000	8.44603E-007	0.00000E+000	3.32261E-006	0.00000E+000	4.66533E-004	-3.27672E+002	7	...........
	159	160	3.93394E+000	8.45093E-007	0.00000E+000	3.32455E-006	0.00000E+000	4.67100E-004	-3.27672E+002	7	...........
	160	161	3.93395E+000	8.45215E-007	0.00000E+000	3.32503E-006	0.00000E+000	4.68667E-004	-3.27672E+002	7	...........
	161	162	3.93395E+000	8.44967E-007	0.00000E+000	3.32406E-006	0.00000E+000	4.68900E-004	-3.27672E+002	7	...........
	162	163	3.93397E+000	8.44932E-007	0.00000E+000	3.32394E-006	0.00000E+000	4.68533E-004	-3.27672E+002	7	...........
	163	164	3.93399E+000	8.44214E-007	0.00000E+000	3.32113E-006	0.00000E+000	4.68450E-004	-3.27672E+002	7	...........
	164	165	3.93400E+000	8.45216E-007	0.00000E+000	3.32508E-006	0.00000E+000	4.66117E-004	-3.27672E+002	7	...........
	165	166	3.93401E+000	8.45250E-007	0.00000E+000	3.32522E-006	0.00000E+000	4.64650E-004	-3.27672E+002	7	...........
	166	167	3.93402E+000	8.44676E-007	0.00000E+000	3.32297E-006	0.00000E+000	4.66933E-004	-3.27672E+002	7	...........
	167	168	3.93403E+000	8.45494E-007	0.00000E+000	3.32620E-006	0.00000E+000	4.68000E-004	-3.27672E+002	7	...........
	168	169	3.93405E+000	8.44897E-007	0.00000E+000	3.32387E-006	0.00000E+000	4.62717E-004	-3.27672E+002	7	...........
	169	170	3.93406E+000	8.46410E-007	0.00000E+000	3.32983E-006	0.00000E+000	4.67067E-004	-3.27672E+002	7	...........
	170	171	3.93407E+000	8.46163E-007	0.00000E+000	3.32887E-006	0.00000E+000	4.67250E-004	-3.27672E+002	7	...........
	171	172	3.93408E+000	8.45475E-007	0.00000E+000	3.32617E-006	0.00000E+000	4.64800E-004	-3.27672E+002	7	...........
	172	173	3.93410E+000	8.45692E-007	0.00000E+000	3.32703E-006	0.00000E+000	4.63883E-004	-3.27672E+002	7	...........
	173	174	3.93410E+000	8.45846E-007	0.00000E+000	3.32764E-006	0.00000E+000	4.63467E-004	-3.27672E+002	7	...........
	174	175	3.93412E+000	8.45210E-007	0.00000E+000	3.32516E-006	0.00000E+000	4.63317E-004	-3.27672E+002	7	...........
	175	176	3.93413E+000	8.45940E-007	0.00000E+000	3.32804E-006	0.00000E+000	4.64617E-004	-3.27672E+002	7	...........
	176	177	3.93415E+000	8.45885E-007	0.00000E+000	3.32784E-006	0.00000E+000	4.63917E-004	-3.27672E+002	7	...........
	177	178	3.93416E+000	8.45849E-007	0.00000E+000	3.32770E-006	0.00000E+000	4.66033E-004	-3.27672E+002	7	...........
	178	179	3.93416E+000	8.45875E-007	0.00000E+000	3.32781E-006	0.00000E+000	4.66617E-004	-3.27672E+002	7	...........
	179	180	3.93418E+000	8.46199E-007	0.00000E+000	3.32910E-006	0.00000E+000	4.65567E-004	-3.27672E+002	7	...........
	180	181	3.93419E+000	8.46487E-007	0.00000E+000	3.33024E-006	0.00000E+000	4.62900E-004	-3.27672E+002	7	...........
	181	182	3.93420E+000	8.46172E-007	0.00000E+000	3.32901E-006	0.00000E+000	4.65617E-004	-3.27672E+002	7	...........
	182	183	3.93421E+000	8.46568E-007	0.00000E+000	3.33058E-006	0.00000E+000	4.63067E-004	-3.27672E+002	7	...........
	183	184	3.93421E+000	8.45702E-007	0.00000E+000	3.32717E-006	0.00000E+000	4.62817E-004	-3.27672E+002	7	...........
	184	185	3.93423E+000	8.46672E-007	0.00000E+000	3.33100E-006	0.00000E+000	4.64017E-004	-3.27672E+002	7	...........
	185	186	3.93424E+000	8.46610E-007	0.00000E+000	3.33077E-006	0.00000E+000	4.63900E-004	-3.27672E+002	7	...........
	186	187	3.93425E+000	8.46768E-007	0.00000E+000	3.33140E-006	0.00000E+000	4.64283E-004	-3.27672E+002	7	...........
	187	188	3.93426E+000	8.47306E-007	0.00000E+000	3.33352E-006	0.00000E+000	4.64950E-004	-3.27672E+002	7	...........
	188	189	3.93427E+000	8.47122E-007	0.00000E+000	3.33280E-006	0.00000E+000	4.64183E-004	-3.27672E+002	7	...........
	189	190	3.93428E+000	8.46800E-007	0.00000E+000	3.33155E-006	0.00000E+000	4.63267E-004	-3.27672E+002	7	...........
	190	191	3.93428E+000	8.46297E-007	0.00000E+000	3.32956E-006	0.00000E+000	4.62317E-004	-3.27672E+002	7	...........
	191	192	3.93429E+000	8.46240E-007	0.00000E+000	3.32936E-006	0.00000E+000	4.61383E-004	-3.27672E+002	7	...........
	192	193	3.93430E+000	8.46759E-007	0.00000E+000	3.33141E-006	0.00000E+000	4.60617E-004	-3.27672E+002	7	...........
	193	194	3.93431E+000	8.46974E-007	0.00000E+000	3.33226E-006	0.00000E+000	4.63133E-004	-3.27672E+002	7	...........
	194	195	3.93432E+000	8.46726E-007	0.00000E+000	3.33129E-006	0.00000E+000	4.63383E-004	-3.27672E+002	7	...........
	195	196	3.93433E+000	8.47014E-007	0.00000E+000	3.33244E-006	0.00000E+000	4.62017E-004	-3.27672E+002	7	...........
	196	197	3.93434E+000	8.47033E-007	0.00000E+000	3.33251E-006	0.00000E+000	4.60717E-004	-3.27672E+002	7	...........
	197	198	3.93434E+000	8.47061E-007	0.00000E+000	3.33263E-006	0.00000E+000	4.60650E-004	-3.27672E+002	7	...........
	198	199	3.93435E+000	8.47143E-007	0.00000E+000	3.33296E-006	0.00000E+000	4.64033E-004	-3.27672E+002	7	...........
	199	200	3.93436E+000	8.47598E-007	0.00000E+000	3.33476E-006	0.00000E+000	4.62717E-004	-3.27672E+002	7	...........
	200	201	3.93437E+000	8.46760E-007	0.00000E+000	3.33147E-006	0.00000E+000	4.61317E-004	-3.27672E+002	7	...........
	201	202	3.93437E+000	8.46544E-007	0.00000E+000	3.33062E-006	0.00000E+000	4.59200E-004	-3.27672E+002	7	...........
	202	203	3.93439E+000	8.46284E-007	0.00000E+000	3.32961E-006	0.00000E+000	4.60900E-004	-3.27672E+002	7	...........
	203	204	3.93440E+000	8.46518E-007	0.00000E+000	3.33054E-006	0.00000E+000	4.61350E-004	-3.27672E+002	7	...........
	204	205	3.93440E+000	8.47043E-007	0.00000E+000	3.33261E-006	0.00000E+000	4.61933E-004	-3.27672E+002	7	...........
	205	206	3.93441E+000	8.47618E-007	0.00000E+000	3.33487E-006	0.00000E+000	4.59183E-004	-3.27672E+002	7	...........
	206	207	3.93441E+000	8.47101E-007	0.00000E+000	3.33285E-006	0.00000E+000	4.59883E-004	-3.27672E+002	7	...........
	207	208	3.93443E+000	8.46944E-007	0.00000E+000	3.33224E-006	0.00000E+000	4.58567E-004	-3.27672E+002	7	...........
	208	209	3.93443E+000	8.47219E-007	0.00000E+000	3.33332E-006	0.00000E+000	4.58483E-004	-3.27672E+002	7	...........
	209	210	3.93444E+000	8.47081E-007	0.00000E+000	3.33279E-006	0.00000E+000	4.59567E-004	-3.27672E+002	7	...........
	210	211	3.93445E+000	8.47876E-007	0.00000E+000	3.33593E-006	0.00000E+000	4.59483E-004	-3.27672E+002	7	...........
	211	212	3.93446E+000	8.47737E-007	0.00000E+000	3.33538E-006	0.00000E+000	4.61417E-004	-3.27672E+002	7	...........
	212	213	3.93447E+000	8.47516E-007	0.00000E+000	3.33453E-006	0.00000E+000	4.60700E-004	-3.27672E+002	7	...........
	213	214	3.93447E+000	8.47370E-007	0.00000E+000	3.33396E-006	0.00000E+000	4.58417E-004	-3.27672E+002	7	...........
	214	215	3.93449E+000	8.47557E-007	0.00000E+000	3.33470E-006	0.00000E+000	4.57133E-004	-3.27672E+002	7	...........
	215	216	3.93450E+000	8.47554E-007	0.00000E+000	3.33470E-006	0.00000E+000	4.58183E-004	-3.27672E+002	7	...........
	216	217	3.93450E+000	8.47507E-007	0.00000E+000	3.33452E-006	0.00000E+000	4.58533E-004	-3.27672E+002	7	...........
	217	218	3.93450E+000	8.46794E-007	0.00000E+000	3.33172E-006	0.00000E+000	4.57783E-004	-3.27672E+002	7	...........
	218	219	3.93452E+000	8.47669E-007	0.00000E+000	3.33517E-006	0.00000E+000	4.57883E-004	-3.27672E+002	7	...........
	219	220	3.93453E+000	8.48314E-007	0.00000E+000	3.33771E-006	0.00000E+000	4.58967E-004	-3.27672E+002	7	...........
	220	221	3.93454E+000	8.48131E-007	0.00000E+000	3.33700E-006	0.00000E+000	4.62167E-004	-3.27672E+002	7	...........
	221	222	3.93453E+000	8.48492E-007	0.00000E+000	3.33842E-006	0.00000E+000	4.58233E-004	-3.27672E+002	7	...........
	222	223	3.93454E+000	8.48785E-007	0.00000E+000	3.33958E-006	0.00000E+000	4.58983E-004	-3.27672E+002	7	...........
	223	224	3.93455E+000	8.48218E-007	0.00000E+000	3.33736E-006	0.00000E+000	4.58683E-004	-3.27672E+002	7	...........
	224	225	3.93456E+000	8.48647E-007	0.00000E+000	3.33905E-006	0.00000E+000	4.58017E-004	-3.27672E+002	7	...........
	225	226	3.93457E+000	8.48619E-007	0.00000E+000	3.33895E-006	0.00000E+000	4.60117E-004	-3.27672E+002	7	...........
	226	227	3.93457E+000	8.48104E-007	0.00000E+000	3.33692E-006	0.00000E+000	4.60067E-004	-3.27672E+002	7	...........
	227	228	3.93458E+000	8.48110E-007	0.00000E+000	3.33696E-006	0.00000E+000	4.60917E-004	-3.27672E+002	7	...........
	228	229	3.93458E+000	8.48349E-007	0.00000E+000	3.33790E-006	0.00000E+000	4.58367E-004	-3.27672E+002	7	...........
	229	230	3.93460E+000	8.48208E-007	0.00000E+000	3.33736E-006	0.00000E+000	4.59050E-004	-3.27672E+002	7	...........
	230	231	3.93460E+000	8.48109E-007	0.00000E+000	3.33697E-006	0.00000E+000	4.55817E-004	-3.27672E+002	7	...........
	231	232	3.93461E+000	8.48569E-007	0.00000E+000	3.33879E-006	0.00000E+000	4.54917E-004	-3.27672E+002	7	...........
	232	233	3.93462E+000	8.47578E-007	0.00000E+000	3.33489E-006	0.00000E+000	4.55967E-004	-3.27672E+002	7	...........
	233	234	3.93462E+000	8.48048E-007	0.00000E+000	3.33674E-006	0.00000E+000	4.56383E-004	-3.27672E+002	7	...........
	234	235	3.93463E+000	8.47864E-007	0.00000E+000	3.33603E-006	0.00000E+000	4.57617E-004	-3.27672E+002	7	...........
	235	236	3.93463E+000	8.47424E-007	0.00000E+000	3.33430E-006	0.00000E+000	4.55483E-004	-3.27672E+002	7	...........
	236	237	3.93464E+000	8.47462E-007	0.00000E+000	3.33446E-006	0.00000E+000	4.60150E-004	-3.27672E+002	7	...........
	237	238	3.93464E+000	8.48535E-007	0.00000E+000	3.33868E-006	0.00000E+000	4.59467E-004	-3.27672E+002	7	...........
	238	239	3.93465E+000	8.48553E-007	0.00000E+000	3.33876E-006	0.00000E+000	4.58783E-004	-3.27672E+002	7	...........
	239	240	3.93465E+000	8.49195E-007	0.00000E+000	3.34129E-006	0.00000E+000	4.53500E-004	-3.27672E+002	7	...........
	240	241	3.93467E+000	8.48542E-007	0.00000E+000	3.33873E-006	0.00000E+000	4.55717E-004	-3.27672E+002	7	...........
	241	242	3.93467E+000	8.48390E-007	0.00000E+000	3.33813E-006	0.00000E+000	4.56933E-004	-3.27672E+002	7	...........
	242	243	3.93467E+000	8.49398E-007	0.00000E+000	3.34210E-006	0.00000E+000	4.56750E-004	-3.27672E+002	7	...........
	243	244	3.93469E+000	8.48985E-007	0.00000E+000	3.34049E-006	0.00000E+000	4.56617E-004	-3.27672E+002	7	...........
	244	245	3.93468E+000	8.49193E-007	0.00000E+000	3.34130E-006	0.00000E+000	4.54683E-004	-3.27672E+002	7	...........
	245	246	3.93469E+000	8.49080E-007	0.00000E+000	3.34087E-006	0.00000E+000	4.56983E-004	-3.27672E+002	7	...........
	246	247	3.93470E+000	8.49415E-007	0.00000E+000	3.34219E-006	0.00000E+000	4.53050E-004	-3.27672E+002	7	...........
	247	248	3.93469E+000	8.49069E-007	0.00000E+000	3.34083E-006	0.00000E+000	4.54117E-004	-3.27672E+002	7	...........
	248	249	3.93471E+000	8.48622E-007	0.00000E+000	3.33908E-006	0.00000E+000	4.55517E-004	-3.27672E+002	7	...........
	249	250	3.93471E+000	8.49085E-007	0.00000E+000	3.34090E-006	0.00000E+000	4.54433E-004	-3.27672E+002	7	...........
	250	251	3.93472E+000	8.48976E-007	0.00000E+000	3.34048E-006	0.00000E+000	4.56133E-004	-3.27672E+002	7	...........
	251	252	3.93473E+000	8.48990E-007	0.00000E+000	3.34054E-006	0.00000E+000	4.54183E-004	-3.27672E+002	7	...........
	252	253	3.93473E+000	8.48806E-007	0.00000E+000	3.33982E-006	0.00000E+000	4.54050E-004	-3.27672E+002	7	...........
	253	254	3.93474E+000	8.48564E-007	0.00000E+000	3.33888E-006	0.00000E+000	4.54617E-004	-3.27672E+002	7	...........
	254	255	3.93474E+000	8.48999E-007	0.00000E+000	3.34059E-006	0.00000E+000	4.53317E-004	-3.27672E+002	7	...........
	255	256	3.93475E+000	8.47681E-007	0.00000E+000	3.33541E-006	0.00000E+000	4.53617E-004	-3.27672E+002	7	...........
	256	257	3.93476E+000	8.50587E-007	0.00000E+000	3.34685E-006	0.00000E+000	4.53900E-004	-3.27672E+002	7	...........
	257	258	3.93475E+000	8.49866E-007	0.00000E+000	3.34401E-006	0.00000E+000	4.53483E-004	-3.27672E+002	7	...........
	258	259	3.93476E+000	8.48697E-007	0.00000E+000	3.33942E-006	0.00000E+000	4.52767E-004	-3.27672E+002	7	...........
	259	260	3.93477E+000	8.49205E-007	0.00000E+000	3.34142E-006	0.00000E+000	4.53300E-004	-3.27672E+002	7	...........
	260	261	3.93477E+000	8.48992E-007	0.00000E+000	3.34059E-006	0.00000E+000	4.53783E-004	-3.27672E+002	7	...........
	261	262	3.93479E+000	8.49331E-007	0.00000E+000	3.34194E-006	0.00000E+000	4.52267E-004	-3.27672E+002	7	...........
	262	263	3.93478E+000	8.48985E-007	0.00000E+000	3.34057E-006	0.00000E+000	4.52250E-004	-3.27672E+002	7	...........
	263	264	3.93479E+000	8.49507E-007	0.00000E+000	3.34263E-006	0.00000E+000	4.53333E-004	-3.27672E+002	7	...........
	264	265	3.93480E+000	8.49331E-007	0.00000E+000	3.34195E-006	0.00000E+000	4.55550E-004	-3.27672E+002	7	...........
	265	266	3.93481E+000	8.49826E-007	0.00000E+000	3.34390E-006	0.00000E+000	4.51733E-004	-3.27672E+002	7	...........
	266	267	3.93482E+000	8.50303E-007	0.00000E+000	3.34579E-006	0.00000E+000	4.54417E-004	-3.27672E+002	7	...........
	267	268	3.93482E+000	8.49561E-007	0.00000E+000	3.34287E-006	0.00000E+000	4.51533E-004	-3.27672E+002	7	...........
	268	269	3.93483E+000	8.49484E-007	0.00000E+000	3.34257E-006	0.00000E+000	4.50950E-004	-3.27672E+002	7	...........
	269	270	3.93484E+000	8.49275E-007	0.00000E+000	3.34176E-006	0.00000E+000	4.52033E-004	-3.27672E+002	7	...........
	270	271	3.93484E+000	8.49463E-007	0.00000E+000	3.34250E-006	0.00000E+000	4.52317E-004	-3.27672E+002	7	...........
	271	272	3.93484E+000	8.50088E-007	0.00000E+000	3.34496E-006	0.00000E+000	4.52400E-004	-3.27672E+002	7	...........
	272	273	3.93485E+000	8.49591E-007	0.00000E+000	3.34301E-006	0.00000E+000	4.49783E-004	-3.27672E+002	7	...........
	273	274	3.93485E+000	8.49547E-007	0.00000E+000	3.34284E-006	0.00000E+000	4.50517E-004	-3.27672E+002	7	...........
	274	275	3.93487E+000	8.50678E-007	0.00000E+000	3.34731E-006	0.00000E+000	4.50217E-004	-3.27672E+002	7	...........
	275	276	3.93487E+000	8.49451E-007	0.00000E+000	3.34248E-006	0.00000E+000	4.54233E-004	-3.27672E+002	7	...........
	276	277	3.93488E+000	8.49903E-007	0.00000E+000	3.34426E-006	0.00000E+000	4.54517E-004	-3.27672E+002	7	...........
	277	278	3.93487E+000	8.49851E-007	0.00000E+000	3.34406E-006	0.00000E+000	4.52550E-004	-3.27672E+002	7	...........
	278	279	3.93489E+000	8.49484E-007	0.00000E+000	3.34262E-006	0.00000E+000	4.51483E-004	-3.27672E+002	7	...........
	279	280	3.93488E+000	8.50312E-007	0.00000E+000	3.34588E-006	0.00000E+000	4.49717E-004	-3.27672E+002	7	...........
	280	281	3.93490E+000	8.50097E-007	0.00000E+000	3.34504E-006	0.00000E+000	4.55017E-004	-3.27672E+002	7	...........
	281	282	3.93490E+000	8.50608E-007	0.00000E+000	3.34706E-006	0.00000E+000	4.52350E-004	-3.27672E+002	7	...........
	282	283	3.93490E+000	8.50140E-007	0.00000E+000	3.34522E-006	0.00000E+000	4.52617E-004	-3.27672E+002	7	...........
	283	284	3.93492E+000	8.50475E-007	0.00000E+000	3.34655E-006	0.00000E+000	4.50883E-004	-3.27672E+002	7	...........
	284	285	3.93491E+000	8.50185E-007	0.00000E+000	3.34541E-006	0.00000E+000	4.51617E-004	-3.27672E+002	7	...........
	285	286	3.93493E+000	8.49946E-007	0.00000E+000	3.34447E-006	0.00000E+000	4.52267E-004	-3.27672E+002	7	...........
	286	287	3.93493E+000	8.49627E-007	0.00000E+000	3.34323E-006	0.00000E+000	4.54317E-004	-3.27672E+002	7	...........
	287	288	3.93493E+000	8.49359E-007	0.00000E+000	3.34217E-006	0.00000E+000	4.51533E-004	-3.27672E+002	7	...........
	288	289	3.93494E+000	8.50182E-007	0.00000E+000	3.34541E-006	0.00000E+000	4.52867E-004	-3.27672E+002	7	...........
	289	290	3.93495E+000	8.50665E-007	0.00000E+000	3.34732E-006	0.00000E+000	4.51467E-004	-3.27672E+002	7	...........
	290	291	3.93494E+000	8.49939E-007	0.00000E+000	3.34446E-006	0.00000E+000	4.50567E-004	-3.27672E+002	7	...........
	291	292	3.93495E+000	8.51139E-007	0.00000E+000	3.34919E-006	0.00000E+000	4.51850E-004	-3.27672E+002	7	...........
	292	293	3.93495E+000	8.51247E-007	0.00000E+000	3.34962E-006	0.00000E+000	4.52767E-004	-3.27672E+002	7	...........
	293	294	3.93496E+000	8.50918E-007	0.00000E+000	3.34833E-006	0.00000E+000	4.50650E-004	-3.27672E+002	7	...........
	294	295	3.93497E+000	8.50732E-007	0.00000E+000	3.34761E-006	0.00000E+000	4.49983E-004	-3.27672E+002	7	...........
	295	296	3.93498E+000	8.50627E-007	0.00000E+000	3.34720E-006	0.00000E+000	4.48550E-004	-3.27672E+002	7	...........
	296	297	3.93498E+000	8.50638E-007	0.00000E+000	3.34724E-006	0.00000E+000	4.50983E-004	-3.27672E+002	7	...........
	297	298	3.93498E+000	8.50836E-007	0.00000E+000	3.34802E-006	0.00000E+000	4.50867E-004	-3.27672E+002	7	...........
	298	299	3.93499E+000	8.50534E-007	0.00000E+000	3.34684E-006	0.00000E+000	4.49600E-004	-3.27672E+002	7	...........
	299	300	3.93500E+000	8.50257E-007	0.00000E+000	3.34576E-006	0.00000E+000	4.48933E-004	-3.27672E+002	7	...........
	300	301	3.93500E+000	8.50599E-007	0.00000E+000	3.34711E-006	0.00000E+000	4.52500E-004	-3.27672E+002	7	...........
	301	302	3.93500E+000	8.50182E-007	0.00000E+000	3.34546E-006	0.00000E+000	4.50883E-004	-3.27672E+002	7	...........
	302	303	3.93500E+000	8.50768E-007	0.00000E+000	3.34777E-006	0.00000E+000	4.49850E-004	-3.27672E+002	7	...........
	303	304	3.93500E+000	8.51223E-007	0.00000E+000	3.34957E-006	0.00000E+000	4.53800E-004	-3.27672E+002	7	...........
	304	305	3.93501E+000	8.50143E-007	0.00000E+000	3.34532E-006	0.00000E+000	4.52717E-004	-3.27672E+002	7	...........
	305	306	3.93501E+000	8.50562E-007	0.00000E+000	3.34697E-006	0.00000E+000	4.50600E-004	-3.27672E+002	7	...........
	306	307	3.93501E+000	8.50587E-007	0.00000E+000	3.34707E-006	0.00000E+000	4.52667E-004	-3.27672E+002	7	...........
	307	308	3.93503E+000	8.50577E-007	0.00000E+000	3.34704E-006	0.00000E+000	4.50617E-004	-3.27672E+002	7	...........
	308	309	3.93502E+000	8.50445E-007	0.00000E+000	3.34652E-006	0.00000E+000	4.51167E-004	-3.27672E+002	7	...........
	309	310	3.93502E+000	8.51504E-007	0.00000E+000	3.35069E-006	0.00000E+000	4.50683E-004	-3.27672E+002	7	...........
	310	311	3.93503E+000	8.50883E-007	0.00000E+000	3.34825E-006	0.00000E+000	4.54100E-004	-3.27672E+002	7	...........
	311	312	3.93504E+000	8.50654E-007	0.00000E+000	3.34735E-006	0.00000E+000	4.53767E-004	-3.27672E+002	7	...........
	312	313	3.93505E+000	8.50502E-007	0.00000E+000	3.34676E-006	0.00000E+000	4.51033E-004	-3.27672E+002	7	...........
	313	314	3.93505E+000	8.50105E-007	0.00000E+000	3.34520E-006	0.00000E+000	4.49133E-004	-3.27672E+002	7	...........
	314	315	3.93505E+000	8.50988E-007	0.00000E+000	3.34868E-006	0.00000E+000	4.50850E-004	-3.27672E+002	7	...........
	315	316	3.93506E+000	8.51092E-007	0.00000E+000	3.34909E-006	0.00000E+000	4.48550E-004	-3.27672E+002	7	...........
	316	317	3.93506E+000	8.51154E-007	0.00000E+000	3.34934E-006	0.00000E+000	4.49983E-004	-3.27672E+002	7	...........
	317	318	3.93507E+000	8.50930E-007	0.00000E+000	3.34847E-006	0.00000E+000	4.50283E-004	-3.27672E+002	7	...........
	318	319	3.93507E+000	8.51018E-007	0.00000E+000	3.34882E-006	0.00000E+000	4.51950E-004	-3.27672E+002	7	...........
	319	320	3.93507E+000	8.50839E-007	0.00000E+000	3.34811E-006	0.00000E+000	4.53250E-004	-3.27672E+002	7	...........
	320	321	3.93508E+000	8.50642E-007	0.00000E+000	3.34734E-006	0.00000E+000	4.52783E-004	-3.27672E+002	7	...........
	321	322	3.93508E+000	8.50771E-007	0.00000E+000	3.34786E-006	0.00000E+000	4.49883E-004	-3.27672E+002	7	...........
	322	323	3.93509E+000	8.50127E-007	0.00000E+000	3.34533E-006	0.00000E+000	4.48950E-004	-3.27672E+002	7	...........
	323	324	3.93510E+000	8.50364E-007	0.00000E+000	3.34627E-006	0.00000E+000	4.51600E-004	-3.27672E+002	7	...........
	324	325	3.93510E+000	8.50304E-007	0.00000E+000	3.34603E-006	0.00000E+000	4.50283E-004	-3.27672E+002	7	...........
	325	326	3.93510E+000	8.50365E-007	0.00000E+000	3.34627E-006	0.00000E+000	4.53467E-004	-3.27672E+002	7	...........
	326	327	3.93511E+000	8.50351E-007	0.00000E+000	3.34623E-006	0.00000E+000	4.52517E-004	-3.27672E+002	7	...........
	327	328	3.93511E+000	8.51413E-007	0.00000E+000	3.35041E-006	0.00000E+000	4.52267E-004	-3.27672E+002	7	...........
	328	329	3.93512E+000	8.50402E-007	0.00000E+000	3.34643E-006	0.00000E+000	4.50817E-004	-3.27672E+002	7	...........
	329	330	3.93512E+000	8.50196E-007	0.00000E+000	3.34562E-006	0.00000E+000	4.53267E-004	-3.27672E+002	7	...........
	330	331	3.93512E+000	8.50554E-007	0.00000E+000	3.34703E-006	0.00000E+000	4.51533E-004	-3.27672E+002	7	...........
	331	332	3.93513E+000	8.50212E-007	0.00000E+000	3.34569E-006	0.00000E+000	4.54250E-004	-3.27672E+002	7	...........
	332	333	3.93514E+000	8.50851E-007	0.00000E+000	3.34822E-006	0.00000E+000	4.50000E-004	-3.27672E+002	7	...........
	333	334	3.93514E+000	8.50963E-007	0.00000E+000	3.34866E-006	0.00000E+000	4.52783E-004	-3.27672E+002	7	...........
	334	335	3.93516E+000	8.50706E-007	0.00000E+000	3.34766E-006	0.00000E+000	4.50983E-004	-3.27672E+002	7	...........
	335	336	3.93516E+000	8.50769E-007	0.00000E+000	3.34791E-006	0.00000E+000	4.51500E-004	-3.27672E+002	7	...........
	336	337	3.93515E+000	8.50578E-007	0.00000E+000	3.34715E-006	0.00000E+000	4.53067E-004	-3.27672E+002	7	...........
	337	338	3.93516E+000	8.50241E-007	0.00000E+000	3.34583E-006	0.00000E+000	4.52600E-004	-3.27672E+002	7	...........
	338	339	3.93516E+000	8.50328E-007	0.00000E+000	3.34618E-006	0.00000E+000	4.53483E-004	-3.27672E+002	7	...........
	339	340	3.93517E+000	8.50340E-007	0.00000E+000	3.34623E-006	0.00000E+000	4.49850E-004	-3.27672E+002	7	...........
	340	341	3.93518E+000	8.50569E-007	0.00000E+000	3.34714E-006	0.00000E+000	4.49283E-004	-3.27672E+002	7	...........
	341	342	3.93518E+000	8.50348E-007	0.00000E+000	3.34627E-006	0.00000E+000	4.48767E-004	-3.27672E+002	7	...........
	342	343	3.93520E+000	8.51346E-007	0.00000E+000	3.35021E-006	0.00000E+000	4.51333E-004	-3.27672E+002	7	...........
	343	344	3.93519E+000	8.51165E-007	0.00000E+000	3.34950E-006	0.00000E+000	4.51450E-004	-3.27672E+002	7	...........
	344	345	3.93520E+000	8.51621E-007	0.00000E+000	3.35130E-006	0.00000E+000	4.48183E-004	-3.27672E+002	7	...........
	345	346	3.93519E+000	8.51722E-007	0.00000E+000	3.35169E-006	0.00000E+000	4.50167E-004	-3.27672E+002	7	...........
	346	347	3.93520E+000	8.51398E-007	0.00000E+000	3.35042E-006	0.00000E+000	4.51917E-004	-3.27672E+002	7	...........
	347	348	3.93520E+000	8.51055E-007	0.00000E+000	3.34907E-006	0.00000E+000	4.49900E-004	-3.27672E+002	7	...........
	348	349	3.93521E+000	8.51587E-007	0.00000E+000	3.35117E-006	0.00000E+000	4.50800E-004	-3.27672E+002	7	...........
	349	350	3.93521E+000	8.51318E-007	0.00000E+000	3.35012E-006	0.00000E+000	4.50167E-004	-3.27672E+002	7	...........
	350	351	3.93522E+000	8.52020E-007	0.00000E+000	3.35288E-006	0.00000E+000	4.50567E-004	-3.27672E+002	7	...........
	351	352	3.93523E+000	8.51221E-007	0.00000E+000	3.34975E-006	0.00000E+000	4.49517E-004	-3.27672E+002	7	...........
	352	353	3.93522E+000	8.51406E-007	0.00000E+000	3.35047E-006	0.00000E+000	4.52117E-004	-3.27672E+002	7	...........
	353	354	3.93523E+000	8.51090E-007	0.00000E+000	3.34924E-006	0.00000E+000	4.52967E-004	-3.27672E+002	7	...........
	354	355	3.93523E+000	8.51586E-007	0.00000E+000	3.35118E-006	0.00000E+000	4.50017E-004	-3.27672E+002	7	...........
	355	356	3.93522E+000	8.51352E-007	0.00000E+000	3.35026E-006	0.00000E+000	4.49850E-004	-3.27672E+002	7	...........
	356	357	3.93523E+000	8.50601E-007	0.00000E+000	3.34731E-006	0.00000E+000	4.51550E-004	-3.27672E+002	7	...........
	357	358	3.93525E+000	8.50869E-007	0.00000E+000	3.34838E-006	0.00000E+000	4.50733E-004	-3.27672E+002	7	...........
	358	359	3.93524E+000	8.51106E-007	0.00000E+000	3.34931E-006	0.00000E+000	4.50150E-004	-3.27672E+002	7	...........
	359	360	3.93524E+000	8.51129E-007	0.00000E+000	3.34940E-006	0.00000E+000	4.51367E-004	-3.27672E+002	7	...........
	360	361	3.93525E+000	8.51745E-007	0.00000E+000	3.35183E-006	0.00000E+000	4.51067E-004	-3.27672E+002	7	...........
	361	362	3.93526E+000	8.52021E-007	0.00000E+000	3.35292E-006	0.00000E+000	4.52567E-004	-3.27672E+002	7	...........
	362	363	3.93526E+000	8.52491E-007	0.00000E+000	3.35477E-006	0.00000E+000	4.49650E-004	-3.27672E+002	7	...........
	363	364	3.93527E+000	8.52363E-007	0.00000E+000	3.35428E-006	0.00000E+000	4.52333E-004	-3.27672E+002	7	...........
	364	365	3.93527E+000	8.51331E-007	0.00000E+000	3.35022E-006	0.00000E+000	4.51333E-004	-3.27672E+002	7	...........
	365	366	3.93527E+000	8.51612E-007	0.00000E+000	3.35132E-006	0.00000E+000	4.51317E-004	-3.27672E+002	7	...........
	366	367	3.93528E+000	8.51519E-007	0.00000E+000	3.35096E-006	0.00000E+000	4.48633E-004	-3.27672E+002	7	...........
	367	368	3.93528E+000	8.52499E-007	0.00000E+000	3.35483E-006	0.00000E+000	4.52017E-004	-3.27672E+002	7	...........
	368	369	3.93528E+000	8.52126E-007	0.00000E+000	3.35335E-006	0.00000E+000	4.48217E-004	-3.27672E+002	7	...........
	369	370	3.93529E+000	8.52407E-007	0.00000E+000	3.35446E-006	0.00000E+000	4.46950E-004	-3.27672E+002	7	...........
	370	371	3.93528E+000	8.51823E-007	0.00000E+000	3.35216E-006	0.00000E+000	4.47883E-004	-3.27672E+002	7	...........
	371	372	3.93529E+000	8.51990E-007	0.00000E+000	3.35283E-006	0.00000E+000	4.50483E-004	-3.27672E+002	7	...........
	372	373	3.93529E+000	8.51869E-007	0.00000E+000	3.35236E-006	0.00000E+000	4.46433E-004	-3.27672E+002	7	...........
	373	374	3.93531E+000	8.52610E-007	0.00000E+000	3.35528E-006	0.00000E+000	4.47650E-004	-3.27672E+002	7	...........
	374	375	3.93530E+000	8.52370E-007	0.00000E+000	3.35433E-006	0.00000E+000	4.45300E-004	-3.27672E+002	7	...........
	375	376	3.93531E+000	8.51530E-007	0.00000E+000	3.35103E-006	0.00000E+000	4.48450E-004	-3.27672E+002	7	...........
	376	377	3.93531E+000	8.52409E-007	0.00000E+000	3.35449E-006	0.00000E+000	4.48250E-004	-3.27672E+002	7	...........
	377	378	3.93532E+000	8.52301E-007	0.00000E+000	3.35408E-006	0.00000E+000	4.47600E-004	-3.27672E+002	7	...........
	378	379	3.93532E+000	8.52668E-007	0.00000E+000	3.35552E-006	0.00000E+000	4.44183E-004	-3.27672E+002	7	...........
	379	380	3.93532E+000	8.53709E-007	0.00000E+000	3.35961E-006	0.00000E+000	4.45450E-004	-3.27672E+002	7	...........
	380	381	3.93532E+000	8.52920E-007	0.00000E+000	3.35651E-006	0.00000E+000	4.45300E-004	-3.27672E+002	7	...........
	381	382	3.93533E+000	8.52577E-007	0.00000E+000	3.35517E-006	0.00000E+000	4.48717E-004	-3.27672E+002	7	...........
	382	383	3.93533E+000	8.52597E-007	0.00000E+000	3.35525E-006	0.00000E+000	4.45917E-004	-3.27672E+002	7	...........
	383	384	3.93533E+000	8.52452E-007	0.00000E+000	3.35468E-006	0.00000E+000	4.46150E-004	-3.27672E+002	7	...........
	384	385	3.93534E+000	8.52806E-007	0.00000E+000	3.35608E-006	0.00000E+000	4.44967E-004	-3.27672E+002	7	...........
	385	386	3.93534E+000	8.52208E-007	0.00000E+000	3.35373E-006	0.00000E+000	4.51267E-004	-3.27672E+002	7	...........
	386	387	3.93534E+000	8.52115E-007	0.00000E+000	3.35336E-006	0.00000E+000	4.43667E-004	-3.27672E+002	7	...........
	387	388	3.93534E+000	8.51899E-007	0.00000E+000	3.35251E-006	0.00000E+000	4.46433E-004	-3.27672E+002	7	...........
	388	389	3.93535E+000	8.51813E-007	0.00000E+000	3.35218E-006	0.00000E+000	4.47333E-004	-3.27672E+002	7	...........
	389	390	3.93535E+000	8.52016E-007	0.00000E+000	3.35298E-006	0.00000E+000	4.48833E-004	-3.27672E+002	7	...........
	390	391	3.93536E+000	8.51769E-007	0.00000E+000	3.35201E-006	0.00000E+000	4.47850E-004	-3.27672E+002	7	...........
	391	392	3.93535E+000	8.52330E-007	0.00000E+000	3.35422E-006	0.00000E+000	4.46850E-004	-3.27672E+002	7	...........
	392	393	3.93536E+000	8.51441E-007	0.00000E+000	3.35072E-006	0.00000E+000	4.51433E-004	-3.27672E+002	7	...........
	393	394	3.93537E+000	8.52363E-007	0.00000E+000	3.35436E-006	0.00000E+000	4.49600E-004	-3.27672E+002	7	...........
	394	395	3.93537E+000	8.52045E-007	0.00000E+000	3.35311E-006	0.00000E+000	4.50033E-004	-3.27672E+002	7	...........
	395	396	3.93538E+000	8.52292E-007	0.00000E+000	3.35409E-006	0.00000E+000	4.47617E-004	-3.27672E+002	7	...........
	396	397	3.93537E+000	8.53556E-007	0.00000E+000	3.35906E-006	0.00000E+000	4.46683E-004	-3.27672E+002	7	...........
	397	398	3.93538E+000	8.52737E-007	0.00000E+000	3.35584E-006	0.00000E+000	4.48650E-004	-3.27672E+002	7	...........
	398	399	3.93538E+000	8.52588E-007	0.00000E+000	3.35526E-006	0.00000E+000	4.47750E-004	-3.27672E+002	7	...........
	399	400	3.93538E+000	8.53136E-007	0.00000E+000	3.35741E-006	0.00000E+000	4.48733E-004	-3.27672E+002	7	...........
	400	401	3.93539E+000	8.53113E-007	0.00000E+000	3.35733E-006	0.00000E+000	4.48800E-004	-3.27672E+002	7	...........
	401	402	3.93539E+000	8.52861E-007	0.00000E+000	3.35634E-006	0.00000E+000	4.47100E-004	-3.27672E+002	7	...........
	402	403	3.93538E+000	8.53715E-007	0.00000E+000	3.35970E-006	0.00000E+000	4.48317E-004	-3.27672E+002	7	...........
	403	404	3.93539E+000	8.54267E-007	0.00000E+000	3.36188E-006	0.00000E+000	4.48833E-004	-3.27672E+002	7	...........
	404	405	3.93540E+000	8.53425E-007	0.00000E+000	3.35857E-006	0.00000E+000	4.50483E-004	-3.27672E+002	7	...........
	405	406	3.93540E+000	8.52548E-007	0.00000E+000	3.35511E-006	0.00000E+000	4.49067E-004	-3.27672E+002	7	...........
	406	407	3.93540E+000	8.52905E-007	0.00000E+000	3.35652E-006	0.00000E+000	4.46567E-004	-3.27672E+002	7	...........
	407	408	3.93541E+000	8.52584E-007	0.00000E+000	3.35526E-006	0.00000E+000	4.48367E-004	-3.27672E+002	7	...........
	408	409	3.93541E+000	8.53335E-007	0.00000E+000	3.35822E-006	0.00000E+000	4.47300E-004	-3.27672E+002	7	...........
	409	410	3.93541E+000	8.52961E-007	0.00000E+000	3.35675E-006	0.00000E+000	4.50733E-004	-3.27672E+002	7	...........
	410	411	3.93541E+000	8.52960E-007	0.00000E+000	3.35675E-006	0.00000E+000	4.47117E-004	-3.27672E+002	7	...........
	411	412	3.93541E+000	8.52969E-007	0.00000E+000	3.35679E-006	0.00000E+000	4.47900E-004	-3.27672E+002	7	...........
	412	413	3.93542E+000	8.52266E-007	0.00000E+000	3.35403E-006	0.00000E+000	4.46900E-004	-3.27672E+002	7	...........
	413	414	3.93542E+000	8.53396E-007	0.00000E+000	3.35848E-006	0.00000E+000	4.49600E-004	-3.27672E+002	7	...........
	414	415	3.93543E+000	8.54098E-007	0.00000E+000	3.36125E-006	0.00000E+000	4.48800E-004	-3.27672E+002	7	...........
	415	416	3.93543E+000	8.53682E-007	0.00000E+000	3.35961E-006	0.00000E+000	4.49800E-004	-3.27672E+002	7	...........
	416	417	3.93544E+000	8.53060E-007	0.00000E+000	3.35716E-006	0.00000E+000	4.51233E-004	-3.27672E+002	7	...........
	417	418	3.93544E+000	8.52983E-007	0.00000E+000	3.35687E-006	0.00000E+000	4.46500E-004	-3.27672E+002	7	...........
	418	419	3.93544E+000	8.52912E-007	0.00000E+000	3.35658E-006	0.00000E+000	4.46200E-004	-3.27672E+002	7	...........
	419	420	3.93544E+000	8.52920E-007	0.00000E+000	3.35661E-006	0.00000E+000	4.50050E-004	-3.27672E+002	7	...........
	420	421	3.93544E+000	8.53063E-007	0.00000E+000	3.35718E-006	0.00000E+000	4.48067E-004	-3.27672E+002	7	...........
	421	422	3.93545E+000	8.53837E-007	0.00000E+000	3.36023E-006	0.00000E+000	4.46650E-004	-3.27672E+002	7	...........
	422	423	3.93544E+000	8.53824E-007	0.00000E+000	3.36018E-006	0.00000E+000	4.50717E-004	-3.27672E+002	7	...........
	423	424	3.93546E+000	8.53867E-007	0.00000E+000	3.36036E-006	0.00000E+000	4.48050E-004	-3.27672E+002	7	...........
	424	425	3.93545E+000	8.53887E-007	0.00000E+000	3.36043E-006	0.00000E+000	4.48567E-004	-3.27672E+002	7	...........
	425	426	3.93545E+000	8.53105E-007	0.00000E+000	3.35735E-006	0.00000E+000	4.47300E-004	-3.27672E+002	7	...........
	426	427	3.93546E+000	8.53386E-007	0.00000E+000	3.35847E-006	0.00000E+000	4.46717E-004	-3.27672E+002	7	...........
	427	428	3.93546E+000	8.53238E-007	0.00000E+000	3.35789E-006	0.00000E+000	4.49867E-004	-3.27672E+002	7	...........
	428	429	3.93546E+000	8.53394E-007	0.00000E+000	3.35849E-006	0.00000E+000	4.48150E-004	-3.27672E+002	7	...........
	429	430	3.93547E+000	8.53841E-007	0.00000E+000	3.36026E-006	0.00000E+000	4.48350E-004	-3.27672E+002	7	...........
	430	431	3.93546E+000	8.53565E-007	0.00000E+000	3.35917E-006	0.00000E+000	4.48367E-004	-3.27672E+002	7	...........
	431	432	3.93547E+000	8.53682E-007	0.00000E+000	3.35964E-006	0.00000E+000	4.44583E-004	-3.27672E+002	7	...........
	432	433	3.93548E+000	8.54995E-007	0.00000E+000	3.36482E-006	0.00000E+000	4.50867E-004	-3.27672E+002	7	...........
	433	434	3.93548E+000	8.54529E-007	0.00000E+000	3.36299E-006	0.00000E+000	4.46700E-004	-3.27672E+002	7	...........
	434	435	3.93548E+000	8.54005E-007	0.00000E+000	3.36092E-006	0.00000E+000	4.48150E-004	-3.27672E+002	7	...........
	435	436	3.93548E+000	8.53843E-007	0.00000E+000	3.36028E-006	0.00000E+000	4.49817E-004	-3.27672E+002	7	...........
	436	437	3.93549E+000	8.53883E-007	0.00000E+000	3.36045E-006	0.00000E+000	4.48233E-004	-3.27672E+002	7	...........
	437	438	3.93549E+000	8.54172E-007	0.00000E+000	3.36159E-006	0.00000E+000	4.47250E-004	-3.27672E+002	7	...........
	438	439	3.93550E+000	8.54187E-007	0.00000E+000	3.36165E-006	0.00000E+000	4.48933E-004	-3.27672E+002	7	...........
	439	440	3.93550E+000	8.54405E-007	0.00000E+000	3.36251E-006	0.00000E+000	4.45350E-004	-3.27672E+002	7	...........
	440	441	3.93549E+000	8.55110E-007	0.00000E+000	3.36528E-006	0.00000E+000	4.47133E-004	-3.27672E+002	7	...........
	441	442	3.93550E+000	8.54372E-007	0.00000E+000	3.36238E-006	0.00000E+000	4.46817E-004	-3.27672E+002	7	...........
	442	443	3.93550E+000	8.54156E-007	0.00000E+000	3.36153E-006	0.00000E+000	4.49867E-004	-3.27672E+002	7	...........
	443	444	3.93551E+000	8.53913E-007	0.00000E+000	3.36058E-006	0.00000E+000	4.49033E-004	-3.27672E+002	7	...........
	444	445	3.93551E+000	8.53716E-007	0.00000E+000	3.35981E-006	0.00000E+000	4.50167E-004	-3.27672E+002	7	...........
	445	446	3.93551E+000	8.54043E-007	0.00000E+000	3.36110E-006	0.00000E+000	4.49333E-004	-3.27672E+002	7	...........
	446	447	3.93551E+000	8.53964E-007	0.00000E+000	3.36078E-006	0.00000E+000	4.50333E-004	-3.27672E+002	7	...........
	447	448	3.93552E+000	8.52899E-007	0.00000E+000	3.35660E-006	0.00000E+000	4.49067E-004	-3.27672E+002	7	...........
	448	449	3.93551E+000	8.54439E-007	0.00000E+000	3.36266E-006	0.00000E+000	4.49100E-004	-3.27672E+002	7	...........
	449	450	3.93551E+000	8.55057E-007	0.00000E+000	3.36508E-006	0.00000E+000	4.46933E-004	-3.27672E+002	7	...........
	450	451	3.93551E+000	8.54027E-007	0.00000E+000	3.36104E-006	0.00000E+000	4.49550E-004	-3.27672E+002	7	...........
	451	452	3.93552E+000	8.53838E-007	0.00000E+000	3.36030E-006	0.00000E+000	4.49867E-004	-3.27672E+002	7	...........
	452	453	3.93552E+000	8.54486E-007	0.00000E+000	3.36285E-006	0.00000E+000	4.48683E-004	-3.27672E+002	7	...........
	453	454	3.93552E+000	8.54370E-007	0.00000E+000	3.36239E-006	0.00000E+000	4.47667E-004	-3.27672E+002	7	...........
	454	455	3.93553E+000	8.55159E-007	0.00000E+000	3.36550E-006	0.00000E+000	4.45533E-004	-3.27672E+002	7	...........
	455	456	3.93553E+000	8.54407E-007	0.00000E+000	3.36254E-006	0.00000E+000	4.46317E-004	-3.27672E+002	7	...........
	456	457	3.93553E+000	8.54587E-007	0.00000E+000	3.36325E-006	0.00000E+000	4.48600E-004	-3.27672E+002	7	...........
	457	458	3.93553E+000	8.54826E-007	0.00000E+000	3.36419E-006	0.00000E+000	4.46700E-004	-3.27672E+002	7	...........
	458	459	3.93554E+000	8.55051E-007	0.00000E+000	3.36509E-006	0.00000E+000	4.49533E-004	-3.27672E+002	7	...........
	459	460	3.93553E+000	8.54697E-007	0.00000E+000	3.36369E-006	0.00000E+000	4.48583E-004	-3.27672E+002	7	...........
	460	461	3.93555E+000	8.55078E-007	0.00000E+000	3.36520E-006	0.00000E+000	4.48467E-004	-3.27672E+002	7	...........
	461	462	3.93555E+000	8.54160E-007	0.00000E+000	3.36159E-006	0.00000E+000	4.48200E-004	-3.27672E+002	7	...........
	462	463	3.93554E+000	8.54201E-007	0.00000E+000	3.36175E-006	0.00000E+000	4.45983E-004	-3.27672E+002	7	...........
	463	464	3.93554E+000	8.54056E-007	0.00000E+000	3.36117E-006	0.00000E+000	4.47950E-004	-3.27672E+002	7	...........
	464	465	3.93555E+000	8.54053E-007	0.00000E+000	3.36117E-006	0.00000E+000	4.49183E-004	-3.27672E+002	7	...........
	465	466	3.93555E+000	8.53970E-007	0.00000E+000	3.36084E-006	0.00000E+000	4.48033E-004	-3.27672E+002	7	...........
	466	467	3.93555E+000	8.54786E-007	0.00000E+000	3.36405E-006	0.00000E+000	4.46000E-004	-3.27672E+002	7	...........
	467	468	3.93557E+000	8.54830E-007	0.00000E+000	3.36424E-006	0.00000E+000	4.48517E-004	-3.27672E+002	7	...........
	468	469	3.93556E+000	8.54362E-007	0.00000E+000	3.36240E-006	0.00000E+000	4.49533E-004	-3.27672E+002	7	...........
	469	470	3.93557E+000	8.54223E-007	0.00000E+000	3.36185E-006	0.00000E+000	4.49467E-004	-3.27672E+002	7	...........
	470	471	3.93557E+000	8.54916E-007	0.00000E+000	3.36458E-006	0.00000E+000	4.47950E-004	-3.27672E+002	7	...........
	471	472	3.93558E+000	8.54075E-007	0.00000E+000	3.36128E-006	0.00000E+000	4.48550E-004	-3.27672E+002	7	...........
	472	473	3.93557E+000	8.54428E-007	0.00000E+000	3.36266E-006	0.00000E+000	4.46167E-004	-3.27672E+002	7	...........
	473	474	3.93558E+000	8.54610E-007	0.00000E+000	3.36338E-006	0.00000E+000	4.50300E-004	-3.27672E+002	7	...........
	474	475	3.93558E+000	8.54678E-007	0.00000E+000	3.36365E-006	0.00000E+000	4.48100E-004	-3.27672E+002	7	...........
	475	476	3.93559E+000	8.54104E-007	0.00000E+000	3.36140E-006	0.00000E+000	4.48733E-004	-3.27672E+002	7	...........
	476	477	3.93559E+000	8.54455E-007	0.00000E+000	3.36278E-006	0.00000E+000	4.47667E-004	-3.27672E+002	7	...........
	477	478	3.93558E+000	8.54383E-007	0.00000E+000	3.36249E-006	0.00000E+000	4.48283E-004	-3.27672E+002	7	...........
	478	479	3.93559E+000	8.54492E-007	0.00000E+000	3.36293E-006	0.00000E+000	4.48733E-004	-3.27672E+002	7	...........
	479	480	3.93559E+000	8.53578E-007	0.00000E+000	3.35934E-006	0.00000E+000	4.50033E-004	-3.27672E+002	7	...........
	480	481	3.93560E+000	8.53572E-007	0.00000E+000	3.35932E-006	0.00000E+000	4.48050E-004	-3.27672E+002	7	...........
	481	482	3.93560E+000	8.53580E-007	0.00000E+000	3.35935E-006	0.00000E+000	4.48800E-004	-3.27672E+002	7	...........
	482	483	3.93560E+000	8.53554E-007	0.00000E+000	3.35925E-006	0.00000E+000	4.49633E-004	-3.27672E+002	7	...........
	483	484	3.93561E+000	8.54243E-007	0.00000E+000	3.36197E-006	0.00000E+000	4.48200E-004	-3.27672E+002	7	...........
	484	485	3.93561E+000	8.54891E-007	0.00000E+000	3.36452E-006	0.00000E+000	4.46817E-004	-3.27672E+002	7	...........
	485	486	3.93561E+000	8.54083E-007	0.00000E+000	3.36134E-006	0.00000E+000	4.50533E-004	-3.27672E+002	7	...........
	486	487	3.93561E+000	8.54503E-007	0.00000E+000	3.36299E-006	0.00000E+000	4.50833E-004	-3.27672E+002	7	...........
	487	488	3.93561E+000	8.53553E-007	0.00000E+000	3.35925E-006	0.00000E+000	4.48600E-004	-3.27672E+002	7	...........
	488	489	3.93561E+000	8.53702E-007	0.00000E+000	3.35984E-006	0.00000E+000	4.50133E-004	-3.27672E+002	7	...........
	489	490	3.93562E+000	8.53906E-007	0.00000E+000	3.36065E-006	0.00000E+000	4.49317E-004	-3.27672E+002	7	...........
	490	491	3.93562E+000	8.54319E-007	0.00000E+000	3.36227E-006	0.00000E+000	4.48667E-004	-3.27672E+002	7	...........
	491	492	3.93562E+000	8.54899E-007	0.00000E+000	3.36456E-006	0.00000E+000	4.50467E-004	-3.27672E+002	7	...........
	492	493	3.93562E+000	8.54575E-007	0.00000E+000	3.36328E-006	0.00000E+000	4.48517E-004	-3.27672E+002	7	...........
	493	494	3.93563E+000	8.54006E-007	0.00000E+000	3.36105E-006	0.00000E+000	4.48283E-004	-3.27672E+002	7	...........
	494	495	3.93563E+000	8.54419E-007	0.00000E+000	3.36267E-006	0.00000E+000	4.49367E-004	-3.27672E+002	7	...........
	495	496	3.93563E+000	8.54122E-007	0.00000E+000	3.36151E-006	0.00000E+000	4.49333E-004	-3.27672E+002	7	...........
	496	497	3.93563E+000	8.54114E-007	0.00000E+000	3.36147E-006	0.00000E+000	4.50350E-004	-3.27672E+002	7	...........
	497	498	3.93563E+000	8.54088E-007	0.00000E+000	3.36137E-006	0.00000E+000	4.49667E-004	-3.27672E+002	7	...........
	498	499	3.93563E+000	8.54446E-007	0.00000E+000	3.36279E-006	0.00000E+000	4.50733E-004	-3.27672E+002	7	...........
	499	500	3.93564E+000	8.54346E-007	0.00000E+000	3.36239E-006	0.00000E+000	4.50317E-004	-3.27672E+002	7	...........
	500	501	3.93564E+000	8.54853E-007	0.00000E+000	3.36440E-006	0.00000E+000	4.51083E-004	-3.27672E+002	7	...........
	501	502	3.93564E+000	8.55314E-007	0.00000E+000	3.36621E-006	0.00000E+000	4.49583E-004	-3.27672E+002	7	...........
	502	503	3.93564E+000	8.54607E-007	0.00000E+000	3.36343E-006	0.00000E+000	4.49417E-004	-3.27672E+002	7	...........
	503	504	3.93565E+000	8.54831E-007	0.00000E+000	3.36432E-006	0.00000E+000	4.52050E-004	-3.27672E+002	7	...........
	504	505	3.93565E+000	8.54497E-007	0.00000E+000	3.36300E-006	0.00000E+000	4.49350E-004	-3.27672E+002	7	...........
	505	506	3.93566E+000	8.54126E-007	0.00000E+000	3.36155E-006	0.00000E+000	4.49183E-004	-3.27672E+002	7	...........
	506	507	3.93565E+000	8.54277E-007	0.00000E+000	3.36213E-006	0.00000E+000	4.49700E-004	-3.27672E+002	7	...........
	507	508	3.93565E+000	8.54151E-007	0.00000E+000	3.36164E-006	0.00000E+000	4.46967E-004	-3.27672E+002	7	...........
	508	509	3.93565E+000	8.53630E-007	0.00000E+000	3.35959E-006	0.00000E+000	4.50533E-004	-3.27672E+002	7	...........
	509	510	3.93566E+000	8.54131E-007	0.00000E+000	3.36156E-006	0.00000E+000	4.51050E-004	-3.27672E+002	7	...........
	510	511	3.93566E+000	8.54070E-007	0.00000E+000	3.36133E-006	0.00000E+000	4.47683E-004	-3.27672E+002	7	...........
	511	512	3.93566E+000	8.53754E-007	0.00000E+000	3.36009E-006	0.00000E+000	4.50217E-004	-3.27672E+002	7	...........
	512	513	3.93567E+000	8.53948E-007	0.00000E+000	3.36085E-006	0.00000E+000	4.49500E-004	-3.27672E+002	7	...........
	513	514	3.93567E+000	8.53410E-007	0.00000E+000	3.35874E-006	0.00000E+000	4.48017E-004	-3.27672E+002	7	...........
	514	515	3.93567E+000	8.53738E-007	0.00000E+000	3.36003E-006	0.00000E+000	4.48783E-004	-3.27672E+002	7	...........
	515	516	3.93568E+000	8.53790E-007	0.00000E+000	3.36024E-006	0.00000E+000	4.49483E-004	-3.27672E+002	7	...........
	516	517	3.93568E+000	8.53789E-007	0.00000E+000	3.36024E-006	0.00000E+000	4.50767E-004	-3.27672E+002	7	...........
	517	518	3.93568E+000	8.54347E-007	0.00000E+000	3.36244E-006	0.00000E+000	4.49050E-004	-3.27672E+002	7	...........
	518	519	3.93568E+000	8.55214E-007	0.00000E+000	3.36585E-006	0.00000E+000	4.50983E-004	-3.27672E+002	7	...........
	519	520	3.93569E+000	8.55222E-007	0.00000E+000	3.36589E-006	0.00000E+000	4.51900E-004	-3.27672E+002	7	...........
	520	521	3.93569E+000	8.54842E-007	0.00000E+000	3.36439E-006	0.00000E+000	4.50250E-004	-3.27672E+002	7	...........
	521	522	3.93568E+000	8.54442E-007	0.00000E+000	3.36281E-006	0.00000E+000	4.50833E-004	-3.27672E+002	7	...........
	522	523	3.93568E+000	8.54004E-007	0.00000E+000	3.36109E-006	0.00000E+000	4.47850E-004	-3.27672E+002	7	...........
	523	524	3.93569E+000	8.55015E-007	0.00000E+000	3.36507E-006	0.00000E+000	4.48683E-004	-3.27672E+002	7	...........
	524	525	3.93569E+000	8.55389E-007	0.00000E+000	3.36654E-006	0.00000E+000	4.47767E-004	-3.27672E+002	7	...........
	525	526	3.93569E+000	8.55501E-007	0.00000E+000	3.36699E-006	0.00000E+000	4.50867E-004	-3.27672E+002	7	...........
	526	527	3.93569E+000	8.54851E-007	0.00000E+000	3.36443E-006	0.00000E+000	4.49067E-004	-3.27672E+002	7	...........
	527	528	3.93570E+000	8.55099E-007	0.00000E+000	3.36541E-006	0.00000E+000	4.50767E-004	-3.27672E+002	7	...........
	528	529	3.93570E+000	8.54631E-007	0.00000E+000	3.36357E-006	0.00000E+000	4.50533E-004	-3.27672E+002	7	...........
	529	530	3.93570E+000	8.54453E-007	0.00000E+000	3.36287E-006	0.00000E+000	4.50933E-004	-3.27672E+002	7	...........
	530	531	3.93570E+000	8.55459E-007	0.00000E+000	3.36683E-006	0.00000E+000	4.50983E-004	-3.27672E+002	7	...........
	531	532	3.93571E+000	8.54902E-007	0.00000E+000	3.36464E-006	0.00000E+000	4.49417E-004	-3.27672E+002	7	...........
	532	533	3.93570E+000	8.54801E-007	0.00000E+000	3.36424E-006	0.00000E+000	4.52617E-004	-3.27672E+002	7	...........
	533	534	3.93571E+000	8.54836E-007	0.00000E+000	3.36439E-006	0.00000E+000	4.49167E-004	-3.27672E+002	7	...........
	534	535	3.93571E+000	8.54930E-007	0.00000E+000	3.36476E-006	0.00000E+000	4.50417E-004	-3.27672E+002	7	...........
	535	536	3.93571E+000	8.55937E-007	0.00000E+000	3.36872E-006	0.00000E+000	4.50367E-004	-3.27672E+002	7	...........
	536	537	3.93572E+000	8.55527E-007	0.00000E+000	3.36711E-006	0.00000E+000	4.49283E-004	-3.27672E+002	7	...........
	537	538	3.93571E+000	8.55386E-007	0.00000E+000	3.36655E-006	0.00000E+000	4.51617E-004	-3.27672E+002	7	...........
	538	539	3.93572E+000	8.55325E-007	0.00000E+000	3.36632E-006	0.00000E+000	4.50550E-004	-3.27672E+002	7	...........
	539	540	3.93572E+000	8.55376E-007	0.00000E+000	3.36652E-006	0.00000E+000	4.48300E-004	-3.27672E+002	7	...........
	540	541	3.93572E+000	8.54988E-007	0.00000E+000	3.36500E-006	0.00000E+000	4.51400E-004	-3.27672E+002	7	...........
	541	542	3.93572E+000	8.55411E-007	0.00000E+000	3.36666E-006	0.00000E+000	4.49217E-004	-3.27672E+002	7	...........
	542	543	3.93571E+000	8.55451E-007	0.00000E+000	3.36681E-006	0.00000E+000	4.51750E-004	-3.27672E+002	7	...........
	543	544	3.93572E+000	8.54987E-007	0.00000E+000	3.36499E-006	0.00000E+000	4.53067E-004	-3.27672E+002	7	...........
	544	545	3.93572E+000	8.55534E-007	0.00000E+000	3.36714E-006	0.00000E+000	4.50083E-004	-3.27672E+002	7	...........
	545	546	3.93573E+000	8.55094E-007	0.00000E+000	3.36542E-006	0.00000E+000	4.50067E-004	-3.27672E+002	7	...........
	546	547	3.93573E+000	8.55398E-007	0.00000E+000	3.36661E-006	0.00000E+000	4.48417E-004	-3.27672E+002	7	...........
	547	548	3.93573E+000	8.55287E-007	0.00000E+000	3.36618E-006	0.00000E+000	4.50733E-004	-3.27672E+002	7	...........
	548	549	3.93573E+000	8.55081E-007	0.00000E+000	3.36537E-006	0.00000E+000	4.49467E-004	-3.27672E+002	7	...........
	549	550	3.93573E+000	8.54752E-007	0.00000E+000	3.36407E-006	0.00000E+000	4.52383E-004	-3.27672E+002	7	...........
	550	551	3.93574E+000	8.55522E-007	0.00000E+000	3.36711E-006	0.00000E+000	4.52833E-004	-3.27672E+002	7	...........
	551	552	3.93574E+000	8.54788E-007	0.00000E+000	3.36422E-006	0.00000E+000	4.50367E-004	-3.27672E+002	7	...........
	552	553	3.93574E+000	8.55159E-007	0.00000E+000	3.36568E-006	0.00000E+000	4.53933E-004	-3.27672E+002	7	...........
	553	554	3.93574E+000	8.55917E-007	0.00000E+000	3.36867E-006	0.00000E+000	4.53200E-004	-3.27672E+002	7	...........
	554	555	3.93575E+000	8.55174E-007	0.00000E+000	3.36575E-006	0.00000E+000	4.50100E-004	-3.27672E+002	7	...........
	555	556	3.93575E+000	8.55684E-007	0.00000E+000	3.36776E-006	0.00000E+000	4.50950E-004	-3.27672E+002	7	...........
	556	557	3.93575E+000	8.55271E-007	0.00000E+000	3.36613E-006	0.00000E+000	4.50200E-004	-3.27672E+002	7	...........
	557	558	3.93575E+000	8.54747E-007	0.00000E+000	3.36407E-006	0.00000E+000	4.51267E-004	-3.27672E+002	7	...........
	558	559	3.93575E+000	8.54625E-007	0.00000E+000	3.36359E-006	0.00000E+000	4.48483E-004	-3.27672E+002	7	...........
	559	560	3.93576E+000	8.55480E-007	0.00000E+000	3.36697E-006	0.00000E+000	4.51533E-004	-3.27672E+002	7	...........
	560	561	3.93576E+000	8.55014E-007	0.00000E+000	3.36513E-006	0.00000E+000	4.51550E-004	-3.27672E+002	7	...........
	561	562	3.93576E+000	8.55066E-007	0.00000E+000	3.36533E-006	0.00000E+000	4.50867E-004	-3.27672E+002	7	...........
	562	563	3.93576E+000	8.54944E-007	0.00000E+000	3.36485E-006	0.00000E+000	4.52667E-004	-3.27672E+002	7	...........
	563	564	3.93576E+000	8.55107E-007	0.00000E+000	3.36549E-006	0.00000E+000	4.55583E-004	-3.27672E+002	7	...........
	564	565	3.93576E+000	8.54415E-007	0.00000E+000	3.36277E-006	0.00000E+000	4.55333E-004	-3.27672E+002	7	...........
	565	566	3.93577E+000	8.54577E-007	0.00000E+000	3.36342E-006	0.00000E+000	4.53300E-004	-3.27672E+002	7	...........
	566	567	3.93577E+000	8.54888E-007	0.00000E+000	3.36464E-006	0.00000E+000	4.52567E-004	-3.27672E+002	7	...........
	567	568	3.93577E+000	8.55048E-007	0.00000E+000	3.36527E-006	0.00000E+000	4.52317E-004	-3.27672E+002	7	...........
	568	569	3.93577E+000	8.55456E-007	0.00000E+000	3.36688E-006	0.00000E+000	4.51467E-004	-3.27672E+002	7	...........
	569	570	3.93577E+000	8.55346E-007	0.00000E+000	3.36645E-006	0.00000E+000	4.52083E-004	-3.27672E+002	7	...........
	570	571	3.93578E+000	8.55855E-007	0.00000E+000	3.36846E-006	0.00000E+000	4.53850E-004	-3.27672E+002	7	...........
	571	572	3.93577E+000	8.55457E-007	0.00000E+000	3.36688E-006	0.00000E+000	4.51000E-004	-3.27672E+002	7	...........
	572	573	3.93578E+000	8.55618E-007	0.00000E+000	3.36752E-006	0.00000E+000	4.52800E-004	-3.27672E+002	7	...........
	573	574	3.93577E+000	8.56265E-007	0.00000E+000	3.37006E-006	0.00000E+000	4.51450E-004	-3.27672E+002	7	...........
	574	575	3.93578E+000	8.55954E-007	0.00000E+000	3.36885E-006	0.00000E+000	4.48883E-004	-3.27672E+002	7	...........
	575	576	3.93578E+000	8.55778E-007	0.00000E+000	3.36816E-006	0.00000E+000	4.48783E-004	-3.27672E+002	7	...........
	576	577	3.93578E+000	8.56483E-007	0.00000E+000	3.37093E-006	0.00000E+000	4.50467E-004	-3.27672E+002	7	...........
	577	578	3.93579E+000	8.55692E-007	0.00000E+000	3.36783E-006	0.00000E+000	4.53300E-004	-3.27672E+002	7	...........
	578	579	3.93579E+000	8.56608E-007	0.00000E+000	3.37143E-006	0.00000E+000	4.51483E-004	-3.27672E+002	7	...........
	579	580	3.93579E+000	8.55388E-007	0.00000E+000	3.36663E-006	0.00000E+000	4.48917E-004	-3.27672E+002	7	...........
	580	581	3.93579E+000	8.56173E-007	0.00000E+000	3.36971E-006	0.00000E+000	4.52517E-004	-3.27672E+002	7	...........
	581	582	3.93579E+000	8.56400E-007	0.00000E+000	3.37061E-006	0.00000E+000	4.51633E-004	-3.27672E+002	7	...........
	582	583	3.93579E+000	8.55977E-007	0.00000E+000	3.36895E-006	0.00000E+000	4.54450E-004	-3.27672E+002	7	...........
	583	584	3.93579E+000	8.55511E-007	0.00000E+000	3.36711E-006	0.00000E+000	4.50467E-004	-3.27672E+002	7	...........
	584	585	3.93579E+000	8.56013E-007	0.00000E+000	3.36909E-006	0.00000E+000	4.55767E-004	-3.27672E+002	7	...........
	585	586	3.93579E+000	8.56243E-007	0.00000E+000	3.37000E-006	0.00000E+000	4.53517E-004	-3.27672E+002	7	...........
	586	587	3.93580E+000	8.56248E-007	0.00000E+000	3.37002E-006	0.00000E+000	4.53400E-004	-3.27672E+002	7	...........
	587	588	3.93580E+000	8.56611E-007	0.00000E+000	3.37145E-006	0.00000E+000	4.48250E-004	-3.27672E+002	7	...........
	588	589	3.93580E+000	8.56335E-007	0.00000E+000	3.37037E-006	0.00000E+000	4.52050E-004	-3.27672E+002	7	...........
	589	590	3.93581E+000	8.56359E-007	0.00000E+000	3.37046E-006	0.00000E+000	4.52833E-004	-3.27672E+002	7	...........
	590	591	3.93580E+000	8.55936E-007	0.00000E+000	3.36879E-006	0.00000E+000	4.49267E-004	-3.27672E+002	7	...........
	591	592	3.93581E+000	8.55952E-007	0.00000E+000	3.36887E-006	0.00000E+000	4.51683E-004	-3.27672E+002	7	...........
	592	593	3.93581E+000	8.56039E-007	0.00000E+000	3.36921E-006	0.00000E+000	4.54100E-004	-3.27672E+002	7	...........
	593	594	3.93582E+000	8.56247E-007	0.00000E+000	3.37003E-006	0.00000E+000	4.49667E-004	-3.27672E+002	7	...........
	594	595	3.93581E+000	8.55893E-007	0.00000E+000	3.36864E-006	0.00000E+000	4.51417E-004	-3.27672E+002	7	...........
	595	596	3.93581E+000	8.56379E-007	0.00000E+000	3.37054E-006	0.00000E+000	4.52350E-004	-3.27672E+002	7	...........
	596	597	3.93581E+000	8.55935E-007	0.00000E+000	3.36880E-006	0.00000E+000	4.47917E-004	-3.27672E+002	7	...........
	597	598	3.93582E+000	8.56326E-007	0.00000E+000	3.37034E-006	0.00000E+000	4.48483E-004	-3.27672E+002	7	...........
	598	599	3.93582E+000	8.56907E-007	0.00000E+000	3.37263E-006	0.00000E+000	4.49000E-004	-3.27672E+002	7	...........
	599	600	3.93582E+000	8.56017E-007	0.00000E+000	3.36913E-006	0.00000E+000	4.51250E-004	-3.27672E+002	7	...........
