EXPLAIN
TAG	PWR800_READVOLTAGE
TITLE	LABEL	PWR Read Voltage	Test Identifier
DATE	LABEL	3.2.2024	Date
TIME	LABEL	15:31:46	Time
NOTES	NOTES	1	Notes...
	
PSTAT	PSTAT	REF600-12055	Potentiostat
CAPACITY	QUANT	1.00000E+000	Capacity (A-hr)
CELLTYPE	SELECTOR	1	Cell Type
WORKINGCONNECTION	SELECTOR	0	Working Connection
MAXTIME	VARIABLEANDUNITS	6.00000E+002	s	6.00000E+002	second(s)	Max Time
SAMPLETIME	QUANT	1.00000E+000	Sample Period (s)
STOPAT1	MULTIPARAM	0	0.00000E+000	Stop At 1	None	N/A
STOPAT2	MULTIPARAM	0	0.00000E+000	Stop At 2	None	N/A
AESBHCSELECTOR	TOGGLE	F	Save Both Half Cells
EOC	QUANT	3.602609	Open Circuit (V)
SEQUENCER	TOGGLE	TRUE	Run as Sequence
PSTATMODEL	IQUANT	4	Pstat Model
PSTATSECTION	LABEL	REF600-12055	Pstat Section
PSTATSERIALNO	LABEL	12055	Pstat Serial Number
CTRLMODE	IQUANT	0	Control Mode
ELECTROMETER	IQUANT	0	RE=0 or CS=1
IESTAB	IQUANT	0	I/E Stability
CASPEED	IQUANT	4	Control Amp Speed
CONVENTION	IQUANT	1	Current Convention
ICHRANGE	IQUANT	2	Ich Range
ICHRANGEMODE	TOGGLE	T	Ich Auto Range
ICHOFFSETENABLE	TOGGLE	F	Ich Offset Enable
ICHOFFSET	QUANT	0	Ich Offset (V)
ICHFILTER	IQUANT	1	Ich Filter
VCHRANGE	IQUANT	3	Vch Range
VCHRANGEMODE	TOGGLE	T	Vch Auto Range
VCHOFFSETENABLE	TOGGLE	F	Vch Offset Enable
VCHOFFSET	QUANT	0	Vch Offset (V)
VCHFILTER	IQUANT	1	Vch Filter
ACHRANGE	IQUANT	2	Ach Range
ACHOFFSETENABLE	TOGGLE	F	Ach Offset Enable
ACHOFFSET	QUANT	0	Ach Offset (V)
ACHFILTER	IQUANT	1	Ach Filter
IERANGELOWERLIMIT	IQUANT	7	I/E Range Lower Limit
IERANGEMODE	TOGGLE	F	I/E AutoRange
IERANGE	IQUANT	11	I/E Range
POSFEEDENABLE	TOGGLE	F	Positive Feedback IR Comp
POSFEEDRESISTANCE	QUANT	0	Positive Feedback Resistance (ohm)
ACHSELECT	IQUANT	4	Ach Select
SENSECABLEID	IQUANT	14	Sense Cable ID
PWRCABLEID	IQUANT	14	Power Cable ID
DCCALDATE	LABEL		DC Calibration Date
ACCALDATE	LABEL		AC Calibration Date
THERMOSELECT	IQUANT	1	Thermo Select
FRAMEWORKVERSION	LABEL	7.10.3	Framework Version
INSTRUMENTVERSION	LABEL	4.91	Instrument Version
COMMVERSION	LABEL	2.24	Communications Version
CPUPLDVERSION	LABEL	0.00	CPU PLD Version
CTRLPLDVERSION	LABEL	0.00	CTRL PLD Version
PSTATPLDVERSION	LABEL	0.00	PSTAT PLD Version
CURVE	TABLE	600
	Pt	T	Vf	Im	Vu	Pwr	Sig	Ach	Temp	IERange	Over
	#	s	V	A	V	W	V	V	deg C	#	bits
	0	1	3.52283E+000	8.28394E-007	0.00000E+000	2.91829E-006	0.00000E+000	7.66133E-004	-3.27672E+002	7	...........
	1	2	3.52306E+000	8.29504E-007	0.00000E+000	2.92239E-006	0.00000E+000	7.62683E-004	-3.27672E+002	7	...........
	2	3	3.52321E+000	8.30088E-007	0.00000E+000	2.92458E-006	0.00000E+000	7.65933E-004	-3.27672E+002	7	...........
	3	4	3.52334E+000	8.30247E-007	0.00000E+000	2.92524E-006	0.00000E+000	7.65833E-004	-3.27672E+002	7	...........
	4	5	3.52345E+000	8.30292E-007	0.00000E+000	2.92549E-006	0.00000E+000	7.65400E-004	-3.27672E+002	7	...........
	5	6	3.52355E+000	8.29793E-007	0.00000E+000	2.92381E-006	0.00000E+000	7.67233E-004	-3.27672E+002	7	...........
	6	7	3.52365E+000	8.30481E-007	0.00000E+000	2.92632E-006	0.00000E+000	7.69783E-004	-3.27672E+002	7	...........
	7	8	3.52374E+000	8.30352E-007	0.00000E+000	2.92594E-006	0.00000E+000	7.67700E-004	-3.27672E+002	7	...........
	8	9	3.52383E+000	8.30667E-007	0.00000E+000	2.92713E-006	0.00000E+000	7.66817E-004	-3.27672E+002	7	...........
	9	10	3.52391E+000	8.31512E-007	0.00000E+000	2.93018E-006	0.00000E+000	7.65050E-004	-3.27672E+002	7	...........
	10	11	3.52400E+000	8.31669E-007	0.00000E+000	2.93080E-006	0.00000E+000	7.62417E-004	-3.27672E+002	7	...........
	11	12	3.52407E+000	8.31593E-007	0.00000E+000	2.93060E-006	0.00000E+000	7.62900E-004	-3.27672E+002	7	...........
	12	13	3.52415E+000	8.31987E-007	0.00000E+000	2.93204E-006	0.00000E+000	7.59600E-004	-3.27672E+002	7	...........
	13	14	3.52421E+000	8.31648E-007	0.00000E+000	2.93091E-006	0.00000E+000	7.56900E-004	-3.27672E+002	7	...........
	14	15	3.52429E+000	8.32213E-007	0.00000E+000	2.93296E-006	0.00000E+000	7.53567E-004	-3.27672E+002	7	...........
	15	16	3.52435E+000	8.32841E-007	0.00000E+000	2.93522E-006	0.00000E+000	7.50000E-004	-3.27672E+002	7	...........
	16	17	3.52441E+000	8.33776E-007	0.00000E+000	2.93857E-006	0.00000E+000	7.51550E-004	-3.27672E+002	7	...........
	17	18	3.52447E+000	8.33255E-007	0.00000E+000	2.93678E-006	0.00000E+000	7.50617E-004	-3.27672E+002	7	...........
	18	19	3.52453E+000	8.33697E-007	0.00000E+000	2.93839E-006	0.00000E+000	7.48850E-004	-3.27672E+002	7	...........
	19	20	3.52459E+000	8.34005E-007	0.00000E+000	2.93953E-006	0.00000E+000	7.49483E-004	-3.27672E+002	7	...........
	20	21	3.52465E+000	8.34285E-007	0.00000E+000	2.94056E-006	0.00000E+000	5.65283E-004	-3.27672E+002	7	...........
	21	22	3.52470E+000	8.34069E-007	0.00000E+000	2.93985E-006	0.00000E+000	4.77617E-004	-3.27672E+002	7	...........
	22	23	3.52476E+000	8.34470E-007	0.00000E+000	2.94131E-006	0.00000E+000	4.73167E-004	-3.27672E+002	7	...........
	23	24	3.52481E+000	8.34598E-007	0.00000E+000	2.94180E-006	0.00000E+000	4.75400E-004	-3.27672E+002	7	...........
	24	25	3.52486E+000	8.35086E-007	0.00000E+000	2.94356E-006	0.00000E+000	4.71733E-004	-3.27672E+002	7	...........
	25	26	3.52491E+000	8.34827E-007	0.00000E+000	2.94269E-006	0.00000E+000	4.72900E-004	-3.27672E+002	7	...........
	26	27	3.52496E+000	8.35084E-007	0.00000E+000	2.94364E-006	0.00000E+000	4.73717E-004	-3.27672E+002	7	...........
	27	28	3.52501E+000	8.35668E-007	0.00000E+000	2.94574E-006	0.00000E+000	4.73250E-004	-3.27672E+002	7	...........
	28	29	3.52506E+000	8.35758E-007	0.00000E+000	2.94610E-006	0.00000E+000	4.70000E-004	-3.27672E+002	7	...........
	29	30	3.52511E+000	8.35875E-007	0.00000E+000	2.94655E-006	0.00000E+000	4.72917E-004	-3.27672E+002	7	...........
	30	31	3.52515E+000	8.35489E-007	0.00000E+000	2.94522E-006	0.00000E+000	4.71150E-004	-3.27672E+002	7	...........
	31	32	3.52519E+000	8.35426E-007	0.00000E+000	2.94504E-006	0.00000E+000	4.69917E-004	-3.27672E+002	7	...........
	32	33	3.52523E+000	8.36057E-007	0.00000E+000	2.94729E-006	0.00000E+000	4.69433E-004	-3.27672E+002	7	...........
	33	34	3.52528E+000	8.36236E-007	0.00000E+000	2.94796E-006	0.00000E+000	4.64583E-004	-3.27672E+002	7	...........
	34	35	3.52532E+000	8.36187E-007	0.00000E+000	2.94782E-006	0.00000E+000	4.69117E-004	-3.27672E+002	7	...........
	35	36	3.52535E+000	8.36248E-007	0.00000E+000	2.94807E-006	0.00000E+000	4.66733E-004	-3.27672E+002	7	...........
	36	37	3.52540E+000	8.36194E-007	0.00000E+000	2.94792E-006	0.00000E+000	4.67800E-004	-3.27672E+002	7	...........
	37	38	3.52545E+000	8.36665E-007	0.00000E+000	2.94962E-006	0.00000E+000	4.68483E-004	-3.27672E+002	7	...........
	38	39	3.52548E+000	8.36846E-007	0.00000E+000	2.95028E-006	0.00000E+000	4.66250E-004	-3.27672E+002	7	...........
	39	40	3.52553E+000	8.36726E-007	0.00000E+000	2.94990E-006	0.00000E+000	4.67033E-004	-3.27672E+002	7	...........
	40	41	3.52556E+000	8.36167E-007	0.00000E+000	2.94796E-006	0.00000E+000	4.68567E-004	-3.27672E+002	7	...........
	41	42	3.52560E+000	8.36575E-007	0.00000E+000	2.94943E-006	0.00000E+000	4.65967E-004	-3.27672E+002	7	...........
	42	43	3.52563E+000	8.36714E-007	0.00000E+000	2.94995E-006	0.00000E+000	4.65983E-004	-3.27672E+002	7	...........
	43	44	3.52567E+000	8.37569E-007	0.00000E+000	2.95299E-006	0.00000E+000	4.67167E-004	-3.27672E+002	7	...........
	44	45	3.52571E+000	8.38370E-007	0.00000E+000	2.95585E-006	0.00000E+000	4.64917E-004	-3.27672E+002	7	...........
	45	46	3.52573E+000	8.37746E-007	0.00000E+000	2.95367E-006	0.00000E+000	4.64067E-004	-3.27672E+002	7	...........
	46	47	3.52577E+000	8.37659E-007	0.00000E+000	2.95339E-006	0.00000E+000	4.63733E-004	-3.27672E+002	7	...........
	47	48	3.52580E+000	8.37833E-007	0.00000E+000	2.95403E-006	0.00000E+000	4.65000E-004	-3.27672E+002	7	...........
	48	49	3.52583E+000	8.37605E-007	0.00000E+000	2.95325E-006	0.00000E+000	4.63950E-004	-3.27672E+002	7	...........
	49	50	3.52586E+000	8.37636E-007	0.00000E+000	2.95339E-006	0.00000E+000	4.63283E-004	-3.27672E+002	7	...........
	50	51	3.52589E+000	8.38180E-007	0.00000E+000	2.95533E-006	0.00000E+000	4.65867E-004	-3.27672E+002	7	...........
	51	52	3.52592E+000	8.38156E-007	0.00000E+000	2.95527E-006	0.00000E+000	4.61483E-004	-3.27672E+002	7	...........
	52	53	3.52595E+000	8.38739E-007	0.00000E+000	2.95735E-006	0.00000E+000	4.62917E-004	-3.27672E+002	7	...........
	53	54	3.52598E+000	8.39072E-007	0.00000E+000	2.95855E-006	0.00000E+000	4.61883E-004	-3.27672E+002	7	...........
	54	55	3.52600E+000	8.37896E-007	0.00000E+000	2.95442E-006	0.00000E+000	4.60550E-004	-3.27672E+002	7	...........
	55	56	3.52603E+000	8.39050E-007	0.00000E+000	2.95852E-006	0.00000E+000	4.62150E-004	-3.27672E+002	7	...........
	56	57	3.52607E+000	8.39018E-007	0.00000E+000	2.95843E-006	0.00000E+000	4.62300E-004	-3.27672E+002	7	...........
	57	58	3.52609E+000	8.38405E-007	0.00000E+000	2.95629E-006	0.00000E+000	4.64283E-004	-3.27672E+002	7	...........
	58	59	3.52612E+000	8.38836E-007	0.00000E+000	2.95784E-006	0.00000E+000	4.60217E-004	-3.27672E+002	7	...........
	59	60	3.52614E+000	8.39601E-007	0.00000E+000	2.96055E-006	0.00000E+000	4.60900E-004	-3.27672E+002	7	...........
	60	61	3.52617E+000	8.39941E-007	0.00000E+000	2.96177E-006	0.00000E+000	4.59583E-004	-3.27672E+002	7	...........
	61	62	3.52619E+000	8.39623E-007	0.00000E+000	2.96067E-006	0.00000E+000	4.64150E-004	-3.27672E+002	7	...........
	62	63	3.52621E+000	8.39564E-007	0.00000E+000	2.96048E-006	0.00000E+000	4.62983E-004	-3.27672E+002	7	...........
	63	64	3.52624E+000	8.39532E-007	0.00000E+000	2.96039E-006	0.00000E+000	4.64767E-004	-3.27672E+002	7	...........
	64	65	3.52625E+000	8.39666E-007	0.00000E+000	2.96087E-006	0.00000E+000	4.65783E-004	-3.27672E+002	7	...........
	65	66	3.52628E+000	8.39794E-007	0.00000E+000	2.96135E-006	0.00000E+000	4.65017E-004	-3.27672E+002	7	...........
	66	67	3.52630E+000	8.40322E-007	0.00000E+000	2.96323E-006	0.00000E+000	4.61967E-004	-3.27672E+002	7	...........
	67	68	3.52633E+000	8.39965E-007	0.00000E+000	2.96200E-006	0.00000E+000	4.64350E-004	-3.27672E+002	7	...........
	68	69	3.52635E+000	8.40188E-007	0.00000E+000	2.96280E-006	0.00000E+000	4.66867E-004	-3.27672E+002	7	...........
	69	70	3.52636E+000	8.40076E-007	0.00000E+000	2.96241E-006	0.00000E+000	4.69083E-004	-3.27672E+002	7	...........
	70	71	3.52639E+000	8.40721E-007	0.00000E+000	2.96471E-006	0.00000E+000	4.65933E-004	-3.27672E+002	7	...........
	71	72	3.52641E+000	8.40378E-007	0.00000E+000	2.96351E-006	0.00000E+000	4.66650E-004	-3.27672E+002	7	...........
	72	73	3.52642E+000	8.40673E-007	0.00000E+000	2.96457E-006	0.00000E+000	4.69183E-004	-3.27672E+002	7	...........
	73	74	3.52644E+000	8.40618E-007	0.00000E+000	2.96439E-006	0.00000E+000	4.67333E-004	-3.27672E+002	7	...........
	74	75	3.52647E+000	8.40047E-007	0.00000E+000	2.96240E-006	0.00000E+000	4.70517E-004	-3.27672E+002	7	...........
	75	76	3.52649E+000	8.40881E-007	0.00000E+000	2.96536E-006	0.00000E+000	4.70050E-004	-3.27672E+002	7	...........
	76	77	3.52652E+000	8.41028E-007	0.00000E+000	2.96590E-006	0.00000E+000	4.69100E-004	-3.27672E+002	7	...........
	77	78	3.52654E+000	8.42035E-007	0.00000E+000	2.96947E-006	0.00000E+000	4.72250E-004	-3.27672E+002	7	...........
	78	79	3.52656E+000	8.41321E-007	0.00000E+000	2.96697E-006	0.00000E+000	4.74367E-004	-3.27672E+002	7	...........
	79	80	3.52658E+000	8.41364E-007	0.00000E+000	2.96714E-006	0.00000E+000	4.74233E-004	-3.27672E+002	7	...........
	80	81	3.52660E+000	8.40959E-007	0.00000E+000	2.96573E-006	0.00000E+000	4.75817E-004	-3.27672E+002	7	...........
	81	82	3.52662E+000	8.41382E-007	0.00000E+000	2.96724E-006	0.00000E+000	4.74467E-004	-3.27672E+002	7	...........
	82	83	3.52666E+000	8.41404E-007	0.00000E+000	2.96734E-006	0.00000E+000	4.75833E-004	-3.27672E+002	7	...........
	83	84	3.52667E+000	8.42350E-007	0.00000E+000	2.97069E-006	0.00000E+000	4.78950E-004	-3.27672E+002	7	...........
	84	85	3.52669E+000	8.42258E-007	0.00000E+000	2.97038E-006	0.00000E+000	4.81967E-004	-3.27672E+002	7	...........
	85	86	3.52671E+000	8.42692E-007	0.00000E+000	2.97193E-006	0.00000E+000	4.79533E-004	-3.27672E+002	7	...........
	86	87	3.52673E+000	8.42262E-007	0.00000E+000	2.97044E-006	0.00000E+000	4.77283E-004	-3.27672E+002	7	...........
	87	88	3.52676E+000	8.41628E-007	0.00000E+000	2.96822E-006	0.00000E+000	4.78467E-004	-3.27672E+002	7	...........
	88	89	3.52677E+000	8.41849E-007	0.00000E+000	2.96901E-006	0.00000E+000	4.83550E-004	-3.27672E+002	7	...........
	89	90	3.52680E+000	8.42068E-007	0.00000E+000	2.96981E-006	0.00000E+000	4.84067E-004	-3.27672E+002	7	...........
	90	91	3.52682E+000	8.41879E-007	0.00000E+000	2.96916E-006	0.00000E+000	4.84400E-004	-3.27672E+002	7	...........
	91	92	3.52685E+000	8.41900E-007	0.00000E+000	2.96925E-006	0.00000E+000	4.88667E-004	-3.27672E+002	7	...........
	92	93	3.52686E+000	8.42127E-007	0.00000E+000	2.97007E-006	0.00000E+000	4.86383E-004	-3.27672E+002	7	...........
	93	94	3.52689E+000	8.42247E-007	0.00000E+000	2.97051E-006	0.00000E+000	4.86333E-004	-3.27672E+002	7	...........
	94	95	3.52692E+000	8.43683E-007	0.00000E+000	2.97560E-006	0.00000E+000	4.85333E-004	-3.27672E+002	7	...........
	95	96	3.52693E+000	8.42653E-007	0.00000E+000	2.97198E-006	0.00000E+000	4.86533E-004	-3.27672E+002	7	...........
	96	97	3.52696E+000	8.42504E-007	0.00000E+000	2.97148E-006	0.00000E+000	4.89567E-004	-3.27672E+002	7	...........
	97	98	3.52698E+000	8.42503E-007	0.00000E+000	2.97149E-006	0.00000E+000	4.92283E-004	-3.27672E+002	7	...........
	98	99	3.52700E+000	8.42727E-007	0.00000E+000	2.97230E-006	0.00000E+000	4.90833E-004	-3.27672E+002	7	...........
	99	100	3.52702E+000	8.42733E-007	0.00000E+000	2.97234E-006	0.00000E+000	4.89200E-004	-3.27672E+002	7	...........
	100	101	3.52704E+000	8.42847E-007	0.00000E+000	2.97275E-006	0.00000E+000	4.90667E-004	-3.27672E+002	7	...........
	101	102	3.52706E+000	8.43197E-007	0.00000E+000	2.97401E-006	0.00000E+000	4.89500E-004	-3.27672E+002	7	...........
	102	103	3.52708E+000	8.43402E-007	0.00000E+000	2.97475E-006	0.00000E+000	4.88900E-004	-3.27672E+002	7	...........
	103	104	3.52709E+000	8.42911E-007	0.00000E+000	2.97303E-006	0.00000E+000	4.89933E-004	-3.27672E+002	7	...........
	104	105	3.52713E+000	8.42844E-007	0.00000E+000	2.97282E-006	0.00000E+000	4.91900E-004	-3.27672E+002	7	...........
	105	106	3.52713E+000	8.43066E-007	0.00000E+000	2.97361E-006	0.00000E+000	4.92817E-004	-3.27672E+002	7	...........
	106	107	3.52716E+000	8.42890E-007	0.00000E+000	2.97300E-006	0.00000E+000	4.90083E-004	-3.27672E+002	7	...........
	107	108	3.52717E+000	8.42695E-007	0.00000E+000	2.97232E-006	0.00000E+000	4.92217E-004	-3.27672E+002	7	...........
	108	109	3.52719E+000	8.43236E-007	0.00000E+000	2.97426E-006	0.00000E+000	4.89833E-004	-3.27672E+002	7	...........
	109	110	3.52722E+000	8.42984E-007	0.00000E+000	2.97339E-006	0.00000E+000	4.90333E-004	-3.27672E+002	7	...........
	110	111	3.52723E+000	8.43484E-007	0.00000E+000	2.97517E-006	0.00000E+000	4.92650E-004	-3.27672E+002	7	...........
	111	112	3.52726E+000	8.44531E-007	0.00000E+000	2.97888E-006	0.00000E+000	4.90933E-004	-3.27672E+002	7	...........
	112	113	3.52726E+000	8.43905E-007	0.00000E+000	2.97667E-006	0.00000E+000	4.91617E-004	-3.27672E+002	7	...........
	113	114	3.52729E+000	8.43696E-007	0.00000E+000	2.97596E-006	0.00000E+000	4.91567E-004	-3.27672E+002	7	...........
	114	115	3.52730E+000	8.43580E-007	0.00000E+000	2.97556E-006	0.00000E+000	4.93250E-004	-3.27672E+002	7	...........
	115	116	3.52731E+000	8.43335E-007	0.00000E+000	2.97471E-006	0.00000E+000	4.92083E-004	-3.27672E+002	7	...........
	116	117	3.52734E+000	8.43662E-007	0.00000E+000	2.97589E-006	0.00000E+000	4.93500E-004	-3.27672E+002	7	...........
	117	118	3.52735E+000	8.44379E-007	0.00000E+000	2.97842E-006	0.00000E+000	4.91133E-004	-3.27672E+002	7	...........
	118	119	3.52736E+000	8.44865E-007	0.00000E+000	2.98015E-006	0.00000E+000	4.95133E-004	-3.27672E+002	7	...........
	119	120	3.52738E+000	8.43980E-007	0.00000E+000	2.97704E-006	0.00000E+000	4.92833E-004	-3.27672E+002	7	...........
	120	121	3.52739E+000	8.44443E-007	0.00000E+000	2.97868E-006	0.00000E+000	4.92950E-004	-3.27672E+002	7	...........
	121	122	3.52741E+000	8.44260E-007	0.00000E+000	2.97805E-006	0.00000E+000	4.93000E-004	-3.27672E+002	7	...........
	122	123	3.52742E+000	8.44547E-007	0.00000E+000	2.97908E-006	0.00000E+000	4.91150E-004	-3.27672E+002	7	...........
	123	124	3.52744E+000	8.43894E-007	0.00000E+000	2.97679E-006	0.00000E+000	4.92783E-004	-3.27672E+002	7	...........
	124	125	3.52745E+000	8.44041E-007	0.00000E+000	2.97731E-006	0.00000E+000	4.92517E-004	-3.27672E+002	7	...........
	125	126	3.52747E+000	8.44160E-007	0.00000E+000	2.97774E-006	0.00000E+000	4.91833E-004	-3.27672E+002	7	...........
	126	127	3.52748E+000	8.44464E-007	0.00000E+000	2.97883E-006	0.00000E+000	4.91167E-004	-3.27672E+002	7	...........
	127	128	3.52749E+000	8.44981E-007	0.00000E+000	2.98067E-006	0.00000E+000	4.92567E-004	-3.27672E+002	7	...........
	128	129	3.52751E+000	8.45462E-007	0.00000E+000	2.98237E-006	0.00000E+000	4.92100E-004	-3.27672E+002	7	...........
	129	130	3.52752E+000	8.44804E-007	0.00000E+000	2.98006E-006	0.00000E+000	4.91500E-004	-3.27672E+002	7	...........
	130	131	3.52753E+000	8.45230E-007	0.00000E+000	2.98158E-006	0.00000E+000	4.93033E-004	-3.27672E+002	7	...........
	131	132	3.52754E+000	8.44898E-007	0.00000E+000	2.98041E-006	0.00000E+000	4.91233E-004	-3.27672E+002	7	...........
	132	133	3.52756E+000	8.44970E-007	0.00000E+000	2.98069E-006	0.00000E+000	4.92183E-004	-3.27672E+002	7	...........
	133	134	3.52758E+000	8.45407E-007	0.00000E+000	2.98224E-006	0.00000E+000	4.91383E-004	-3.27672E+002	7	...........
	134	135	3.52758E+000	8.44820E-007	0.00000E+000	2.98017E-006	0.00000E+000	4.95733E-004	-3.27672E+002	7	...........
	135	136	3.52760E+000	8.45699E-007	0.00000E+000	2.98328E-006	0.00000E+000	4.95467E-004	-3.27672E+002	7	...........
	136	137	3.52762E+000	8.46260E-007	0.00000E+000	2.98528E-006	0.00000E+000	4.90267E-004	-3.27672E+002	7	...........
	137	138	3.52762E+000	8.45994E-007	0.00000E+000	2.98434E-006	0.00000E+000	4.89550E-004	-3.27672E+002	7	...........
	138	139	3.52763E+000	8.45245E-007	0.00000E+000	2.98171E-006	0.00000E+000	4.89067E-004	-3.27672E+002	7	...........
	139	140	3.52765E+000	8.45579E-007	0.00000E+000	2.98290E-006	0.00000E+000	4.88433E-004	-3.27672E+002	7	...........
	140	141	3.52765E+000	8.45068E-007	0.00000E+000	2.98111E-006	0.00000E+000	4.90983E-004	-3.27672E+002	7	...........
	141	142	3.52767E+000	8.45225E-007	0.00000E+000	2.98167E-006	0.00000E+000	4.87933E-004	-3.27672E+002	7	...........
	142	143	3.52769E+000	8.45490E-007	0.00000E+000	2.98263E-006	0.00000E+000	4.89617E-004	-3.27672E+002	7	...........
	143	144	3.52770E+000	8.45864E-007	0.00000E+000	2.98396E-006	0.00000E+000	4.90967E-004	-3.27672E+002	7	...........
	144	145	3.52772E+000	8.46342E-007	0.00000E+000	2.98565E-006	0.00000E+000	4.90233E-004	-3.27672E+002	7	...........
	145	146	3.52773E+000	8.45863E-007	0.00000E+000	2.98397E-006	0.00000E+000	4.88733E-004	-3.27672E+002	7	...........
	146	147	3.52773E+000	8.45805E-007	0.00000E+000	2.98377E-006	0.00000E+000	4.89200E-004	-3.27672E+002	7	...........
	147	148	3.52774E+000	8.45859E-007	0.00000E+000	2.98397E-006	0.00000E+000	4.88083E-004	-3.27672E+002	7	...........
	148	149	3.52775E+000	8.45374E-007	0.00000E+000	2.98227E-006	0.00000E+000	4.87400E-004	-3.27672E+002	7	...........
	149	150	3.52777E+000	8.45772E-007	0.00000E+000	2.98368E-006	0.00000E+000	4.88250E-004	-3.27672E+002	7	...........
	150	151	3.52777E+000	8.46238E-007	0.00000E+000	2.98533E-006	0.00000E+000	4.89033E-004	-3.27672E+002	7	...........
	151	152	3.52779E+000	8.46580E-007	0.00000E+000	2.98655E-006	0.00000E+000	4.86217E-004	-3.27672E+002	7	...........
	152	153	3.52780E+000	8.46508E-007	0.00000E+000	2.98631E-006	0.00000E+000	4.88183E-004	-3.27672E+002	7	...........
	153	154	3.52781E+000	8.45812E-007	0.00000E+000	2.98386E-006	0.00000E+000	4.88117E-004	-3.27672E+002	7	...........
	154	155	3.52783E+000	8.46282E-007	0.00000E+000	2.98554E-006	0.00000E+000	4.87383E-004	-3.27672E+002	7	...........
	155	156	3.52785E+000	8.46083E-007	0.00000E+000	2.98485E-006	0.00000E+000	4.88183E-004	-3.27672E+002	7	...........
	156	157	3.52785E+000	8.45801E-007	0.00000E+000	2.98386E-006	0.00000E+000	4.85633E-004	-3.27672E+002	7	...........
	157	158	3.52786E+000	8.45842E-007	0.00000E+000	2.98401E-006	0.00000E+000	4.86850E-004	-3.27672E+002	7	...........
	158	159	3.52788E+000	8.45901E-007	0.00000E+000	2.98424E-006	0.00000E+000	4.85283E-004	-3.27672E+002	7	...........
	159	160	3.52789E+000	8.46350E-007	0.00000E+000	2.98583E-006	0.00000E+000	4.88567E-004	-3.27672E+002	7	...........
	160	161	3.52789E+000	8.46340E-007	0.00000E+000	2.98580E-006	0.00000E+000	4.86983E-004	-3.27672E+002	7	...........
	161	162	3.52791E+000	8.46390E-007	0.00000E+000	2.98599E-006	0.00000E+000	4.86983E-004	-3.27672E+002	7	...........
	162	163	3.52791E+000	8.47010E-007	0.00000E+000	2.98818E-006	0.00000E+000	4.85800E-004	-3.27672E+002	7	...........
	163	164	3.52793E+000	8.47270E-007	0.00000E+000	2.98911E-006	0.00000E+000	4.84583E-004	-3.27672E+002	7	...........
	164	165	3.52794E+000	8.46961E-007	0.00000E+000	2.98803E-006	0.00000E+000	4.86567E-004	-3.27672E+002	7	...........
	165	166	3.52795E+000	8.46797E-007	0.00000E+000	2.98746E-006	0.00000E+000	4.89033E-004	-3.27672E+002	7	...........
	166	167	3.52796E+000	8.46553E-007	0.00000E+000	2.98660E-006	0.00000E+000	4.85183E-004	-3.27672E+002	7	...........
	167	168	3.52796E+000	8.47170E-007	0.00000E+000	2.98878E-006	0.00000E+000	4.85800E-004	-3.27672E+002	7	...........
	168	169	3.52797E+000	8.47305E-007	0.00000E+000	2.98927E-006	0.00000E+000	4.87300E-004	-3.27672E+002	7	...........
	169	170	3.52799E+000	8.47293E-007	0.00000E+000	2.98924E-006	0.00000E+000	4.85917E-004	-3.27672E+002	7	...........
	170	171	3.52800E+000	8.47850E-007	0.00000E+000	2.99122E-006	0.00000E+000	4.86067E-004	-3.27672E+002	7	...........
	171	172	3.52801E+000	8.47245E-007	0.00000E+000	2.98909E-006	0.00000E+000	4.83900E-004	-3.27672E+002	7	...........
	172	173	3.52801E+000	8.46721E-007	0.00000E+000	2.98724E-006	0.00000E+000	4.84183E-004	-3.27672E+002	7	...........
	173	174	3.52802E+000	8.47675E-007	0.00000E+000	2.99062E-006	0.00000E+000	4.85367E-004	-3.27672E+002	7	...........
	174	175	3.52804E+000	8.47055E-007	0.00000E+000	2.98844E-006	0.00000E+000	4.84167E-004	-3.27672E+002	7	...........
	175	176	3.52805E+000	8.46805E-007	0.00000E+000	2.98757E-006	0.00000E+000	4.82483E-004	-3.27672E+002	7	...........
	176	177	3.52806E+000	8.47761E-007	0.00000E+000	2.99095E-006	0.00000E+000	4.82867E-004	-3.27672E+002	7	...........
	177	178	3.52806E+000	8.47734E-007	0.00000E+000	2.99086E-006	0.00000E+000	4.85650E-004	-3.27672E+002	7	...........
	178	179	3.52807E+000	8.48319E-007	0.00000E+000	2.99293E-006	0.00000E+000	4.81400E-004	-3.27672E+002	7	...........
	179	180	3.52808E+000	8.48345E-007	0.00000E+000	2.99303E-006	0.00000E+000	4.81400E-004	-3.27672E+002	7	...........
	180	181	3.52808E+000	8.47561E-007	0.00000E+000	2.99026E-006	0.00000E+000	4.79417E-004	-3.27672E+002	7	...........
	181	182	3.52809E+000	8.47740E-007	0.00000E+000	2.99090E-006	0.00000E+000	4.79517E-004	-3.27672E+002	7	...........
	182	183	3.52810E+000	8.48252E-007	0.00000E+000	2.99272E-006	0.00000E+000	4.79283E-004	-3.27672E+002	7	...........
	183	184	3.52810E+000	8.48437E-007	0.00000E+000	2.99337E-006	0.00000E+000	4.80667E-004	-3.27672E+002	7	...........
	184	185	3.52812E+000	8.48195E-007	0.00000E+000	2.99254E-006	0.00000E+000	4.86233E-004	-3.27672E+002	7	...........
	185	186	3.52812E+000	8.48580E-007	0.00000E+000	2.99389E-006	0.00000E+000	4.84900E-004	-3.27672E+002	7	...........
	186	187	3.52814E+000	8.48546E-007	0.00000E+000	2.99379E-006	0.00000E+000	4.80350E-004	-3.27672E+002	7	...........
	187	188	3.52815E+000	8.47929E-007	0.00000E+000	2.99162E-006	0.00000E+000	4.82100E-004	-3.27672E+002	7	...........
	188	189	3.52816E+000	8.48700E-007	0.00000E+000	2.99435E-006	0.00000E+000	4.78350E-004	-3.27672E+002	7	...........
	189	190	3.52816E+000	8.48056E-007	0.00000E+000	2.99208E-006	0.00000E+000	4.80950E-004	-3.27672E+002	7	...........
	190	191	3.52816E+000	8.47650E-007	0.00000E+000	2.99065E-006	0.00000E+000	4.81050E-004	-3.27672E+002	7	...........
	191	192	3.52817E+000	8.47917E-007	0.00000E+000	2.99160E-006	0.00000E+000	4.77833E-004	-3.27672E+002	7	...........
	192	193	3.52818E+000	8.47562E-007	0.00000E+000	2.99035E-006	0.00000E+000	4.78750E-004	-3.27672E+002	7	...........
	193	194	3.52819E+000	8.48310E-007	0.00000E+000	2.99300E-006	0.00000E+000	4.76800E-004	-3.27672E+002	7	...........
	194	195	3.52821E+000	8.47870E-007	0.00000E+000	2.99146E-006	0.00000E+000	4.78383E-004	-3.27672E+002	7	...........
	195	196	3.52821E+000	8.48971E-007	0.00000E+000	2.99535E-006	0.00000E+000	4.76850E-004	-3.27672E+002	7	...........
	196	197	3.52822E+000	8.49410E-007	0.00000E+000	2.99690E-006	0.00000E+000	4.79367E-004	-3.27672E+002	7	...........
	197	198	3.52822E+000	8.49219E-007	0.00000E+000	2.99623E-006	0.00000E+000	4.79833E-004	-3.27672E+002	7	...........
	198	199	3.52822E+000	8.48842E-007	0.00000E+000	2.99490E-006	0.00000E+000	4.77933E-004	-3.27672E+002	7	...........
	199	200	3.52824E+000	8.48817E-007	0.00000E+000	2.99483E-006	0.00000E+000	4.77983E-004	-3.27672E+002	7	...........
	200	201	3.52825E+000	8.49016E-007	0.00000E+000	2.99554E-006	0.00000E+000	4.76817E-004	-3.27672E+002	7	...........
	201	202	3.52825E+000	8.48841E-007	0.00000E+000	2.99493E-006	0.00000E+000	4.80433E-004	-3.27672E+002	7	...........
	202	203	3.52826E+000	8.48973E-007	0.00000E+000	2.99540E-006	0.00000E+000	4.77567E-004	-3.27672E+002	7	...........
	203	204	3.52826E+000	8.49010E-007	0.00000E+000	2.99553E-006	0.00000E+000	4.79550E-004	-3.27672E+002	7	...........
	204	205	3.52827E+000	8.48927E-007	0.00000E+000	2.99524E-006	0.00000E+000	4.76617E-004	-3.27672E+002	7	...........
	205	206	3.52827E+000	8.49212E-007	0.00000E+000	2.99625E-006	0.00000E+000	4.76417E-004	-3.27672E+002	7	...........
	206	207	3.52829E+000	8.48926E-007	0.00000E+000	2.99525E-006	0.00000E+000	4.74967E-004	-3.27672E+002	7	...........
	207	208	3.52829E+000	8.48856E-007	0.00000E+000	2.99501E-006	0.00000E+000	4.76467E-004	-3.27672E+002	7	...........
	208	209	3.52831E+000	8.48901E-007	0.00000E+000	2.99518E-006	0.00000E+000	4.72800E-004	-3.27672E+002	7	...........
	209	210	3.52832E+000	8.48839E-007	0.00000E+000	2.99497E-006	0.00000E+000	4.75667E-004	-3.27672E+002	7	...........
	210	211	3.52832E+000	8.49077E-007	0.00000E+000	2.99582E-006	0.00000E+000	4.71800E-004	-3.27672E+002	7	...........
	211	212	3.52833E+000	8.48415E-007	0.00000E+000	2.99349E-006	0.00000E+000	4.74683E-004	-3.27672E+002	7	...........
	212	213	3.52834E+000	8.49470E-007	0.00000E+000	2.99722E-006	0.00000E+000	4.72217E-004	-3.27672E+002	7	...........
	213	214	3.52835E+000	8.49342E-007	0.00000E+000	2.99677E-006	0.00000E+000	4.74733E-004	-3.27672E+002	7	...........
	214	215	3.52835E+000	8.48798E-007	0.00000E+000	2.99485E-006	0.00000E+000	4.74300E-004	-3.27672E+002	7	...........
	215	216	3.52835E+000	8.49059E-007	0.00000E+000	2.99578E-006	0.00000E+000	4.76767E-004	-3.27672E+002	7	...........
	216	217	3.52837E+000	8.49070E-007	0.00000E+000	2.99583E-006	0.00000E+000	4.74633E-004	-3.27672E+002	7	...........
	217	218	3.52837E+000	8.50258E-007	0.00000E+000	3.00002E-006	0.00000E+000	4.74833E-004	-3.27672E+002	7	...........
	218	219	3.52837E+000	8.49525E-007	0.00000E+000	2.99744E-006	0.00000E+000	4.75083E-004	-3.27672E+002	7	...........
	219	220	3.52838E+000	8.49773E-007	0.00000E+000	2.99832E-006	0.00000E+000	4.75467E-004	-3.27672E+002	7	...........
	220	221	3.52838E+000	8.49404E-007	0.00000E+000	2.99702E-006	0.00000E+000	4.76467E-004	-3.27672E+002	7	...........
	221	222	3.52840E+000	8.49274E-007	0.00000E+000	2.99658E-006	0.00000E+000	4.74950E-004	-3.27672E+002	7	...........
	222	223	3.52840E+000	8.49478E-007	0.00000E+000	2.99730E-006	0.00000E+000	4.73350E-004	-3.27672E+002	7	...........
	223	224	3.52840E+000	8.49571E-007	0.00000E+000	2.99763E-006	0.00000E+000	4.73300E-004	-3.27672E+002	7	...........
	224	225	3.52841E+000	8.49272E-007	0.00000E+000	2.99658E-006	0.00000E+000	4.72967E-004	-3.27672E+002	7	...........
	225	226	3.52842E+000	8.49140E-007	0.00000E+000	2.99612E-006	0.00000E+000	4.77667E-004	-3.27672E+002	7	...........
	226	227	3.52842E+000	8.49065E-007	0.00000E+000	2.99586E-006	0.00000E+000	4.71867E-004	-3.27672E+002	7	...........
	227	228	3.52843E+000	8.49507E-007	0.00000E+000	2.99743E-006	0.00000E+000	4.75133E-004	-3.27672E+002	7	...........
	228	229	3.52843E+000	8.49657E-007	0.00000E+000	2.99796E-006	0.00000E+000	4.76067E-004	-3.27672E+002	7	...........
	229	230	3.52844E+000	8.50128E-007	0.00000E+000	2.99962E-006	0.00000E+000	4.74400E-004	-3.27672E+002	7	...........
	230	231	3.52845E+000	8.50243E-007	0.00000E+000	3.00004E-006	0.00000E+000	4.73350E-004	-3.27672E+002	7	...........
	231	232	3.52845E+000	8.50218E-007	0.00000E+000	2.99995E-006	0.00000E+000	4.75083E-004	-3.27672E+002	7	...........
	232	233	3.52846E+000	8.50253E-007	0.00000E+000	3.00009E-006	0.00000E+000	4.72717E-004	-3.27672E+002	7	...........
	233	234	3.52846E+000	8.50357E-007	0.00000E+000	3.00045E-006	0.00000E+000	4.72600E-004	-3.27672E+002	7	...........
	234	235	3.52847E+000	8.49470E-007	0.00000E+000	2.99733E-006	0.00000E+000	4.72600E-004	-3.27672E+002	7	...........
	235	236	3.52848E+000	8.49444E-007	0.00000E+000	2.99725E-006	0.00000E+000	4.77183E-004	-3.27672E+002	7	...........
	236	237	3.52848E+000	8.50111E-007	0.00000E+000	2.99960E-006	0.00000E+000	4.74800E-004	-3.27672E+002	7	...........
	237	238	3.52850E+000	8.50541E-007	0.00000E+000	3.00113E-006	0.00000E+000	4.72633E-004	-3.27672E+002	7	...........
	238	239	3.52850E+000	8.50284E-007	0.00000E+000	3.00023E-006	0.00000E+000	4.72950E-004	-3.27672E+002	7	...........
	239	240	3.52850E+000	8.49387E-007	0.00000E+000	2.99706E-006	0.00000E+000	4.75433E-004	-3.27672E+002	7	...........
	240	241	3.52851E+000	8.49849E-007	0.00000E+000	2.99870E-006	0.00000E+000	4.73917E-004	-3.27672E+002	7	...........
	241	242	3.52852E+000	8.49412E-007	0.00000E+000	2.99716E-006	0.00000E+000	4.73000E-004	-3.27672E+002	7	...........
	242	243	3.52852E+000	8.50075E-007	0.00000E+000	2.99951E-006	0.00000E+000	4.74133E-004	-3.27672E+002	7	...........
	243	244	3.52852E+000	8.49643E-007	0.00000E+000	2.99798E-006	0.00000E+000	4.73383E-004	-3.27672E+002	7	...........
	244	245	3.52853E+000	8.50068E-007	0.00000E+000	2.99949E-006	0.00000E+000	4.73283E-004	-3.27672E+002	7	...........
	245	246	3.52854E+000	8.50188E-007	0.00000E+000	2.99992E-006	0.00000E+000	4.73033E-004	-3.27672E+002	7	...........
	246	247	3.52854E+000	8.50429E-007	0.00000E+000	3.00077E-006	0.00000E+000	4.72550E-004	-3.27672E+002	7	...........
	247	248	3.52855E+000	8.50844E-007	0.00000E+000	3.00224E-006	0.00000E+000	4.71967E-004	-3.27672E+002	7	...........
	248	249	3.52856E+000	8.50669E-007	0.00000E+000	3.00163E-006	0.00000E+000	4.74150E-004	-3.27672E+002	7	...........
	249	250	3.52856E+000	8.50108E-007	0.00000E+000	2.99966E-006	0.00000E+000	4.73700E-004	-3.27672E+002	7	...........
	250	251	3.52857E+000	8.50318E-007	0.00000E+000	3.00041E-006	0.00000E+000	4.75467E-004	-3.27672E+002	7	...........
	251	252	3.52858E+000	8.50263E-007	0.00000E+000	3.00022E-006	0.00000E+000	4.71267E-004	-3.27672E+002	7	...........
	252	253	3.52859E+000	8.50265E-007	0.00000E+000	3.00023E-006	0.00000E+000	4.72300E-004	-3.27672E+002	7	...........
	253	254	3.52860E+000	8.50823E-007	0.00000E+000	3.00221E-006	0.00000E+000	4.70383E-004	-3.27672E+002	7	...........
	254	255	3.52860E+000	8.50393E-007	0.00000E+000	3.00070E-006	0.00000E+000	4.70817E-004	-3.27672E+002	7	...........
	255	256	3.52860E+000	8.51271E-007	0.00000E+000	3.00379E-006	0.00000E+000	4.69817E-004	-3.27672E+002	7	...........
	256	257	3.52861E+000	8.51139E-007	0.00000E+000	3.00333E-006	0.00000E+000	4.72100E-004	-3.27672E+002	7	...........
	257	258	3.52861E+000	8.50188E-007	0.00000E+000	2.99998E-006	0.00000E+000	4.67433E-004	-3.27672E+002	7	...........
	258	259	3.52862E+000	8.50549E-007	0.00000E+000	3.00127E-006	0.00000E+000	4.70950E-004	-3.27672E+002	7	...........
	259	260	3.52862E+000	8.50029E-007	0.00000E+000	2.99943E-006	0.00000E+000	4.68583E-004	-3.27672E+002	7	...........
	260	261	3.52863E+000	8.49838E-007	0.00000E+000	2.99876E-006	0.00000E+000	4.71750E-004	-3.27672E+002	7	...........
	261	262	3.52863E+000	8.49638E-007	0.00000E+000	2.99806E-006	0.00000E+000	4.71217E-004	-3.27672E+002	7	...........
	262	263	3.52864E+000	8.49565E-007	0.00000E+000	2.99780E-006	0.00000E+000	4.68000E-004	-3.27672E+002	7	...........
	263	264	3.52865E+000	8.50120E-007	0.00000E+000	2.99978E-006	0.00000E+000	4.69383E-004	-3.27672E+002	7	...........
	264	265	3.52865E+000	8.51057E-007	0.00000E+000	3.00308E-006	0.00000E+000	4.71417E-004	-3.27672E+002	7	...........
	265	266	3.52866E+000	8.50140E-007	0.00000E+000	2.99985E-006	0.00000E+000	4.71200E-004	-3.27672E+002	7	...........
	266	267	3.52866E+000	8.49973E-007	0.00000E+000	2.99927E-006	0.00000E+000	4.68917E-004	-3.27672E+002	7	...........
	267	268	3.52866E+000	8.50025E-007	0.00000E+000	2.99945E-006	0.00000E+000	4.71283E-004	-3.27672E+002	7	...........
	268	269	3.52867E+000	8.49388E-007	0.00000E+000	2.99721E-006	0.00000E+000	4.72000E-004	-3.27672E+002	7	...........
	269	270	3.52868E+000	8.50169E-007	0.00000E+000	2.99997E-006	0.00000E+000	4.69717E-004	-3.27672E+002	7	...........
	270	271	3.52868E+000	8.50103E-007	0.00000E+000	2.99974E-006	0.00000E+000	4.71217E-004	-3.27672E+002	7	...........
	271	272	3.52869E+000	8.50934E-007	0.00000E+000	3.00268E-006	0.00000E+000	4.72967E-004	-3.27672E+002	7	...........
	272	273	3.52870E+000	8.50554E-007	0.00000E+000	3.00135E-006	0.00000E+000	4.68883E-004	-3.27672E+002	7	...........
	273	274	3.52871E+000	8.50437E-007	0.00000E+000	3.00095E-006	0.00000E+000	4.71600E-004	-3.27672E+002	7	...........
	274	275	3.52870E+000	8.50539E-007	0.00000E+000	3.00130E-006	0.00000E+000	4.70217E-004	-3.27672E+002	7	...........
	275	276	3.52871E+000	8.50529E-007	0.00000E+000	3.00127E-006	0.00000E+000	4.69500E-004	-3.27672E+002	7	...........
	276	277	3.52871E+000	8.50247E-007	0.00000E+000	3.00028E-006	0.00000E+000	4.69200E-004	-3.27672E+002	7	...........
	277	278	3.52872E+000	8.50587E-007	0.00000E+000	3.00148E-006	0.00000E+000	4.69483E-004	-3.27672E+002	7	...........
	278	279	3.52872E+000	8.50338E-007	0.00000E+000	3.00061E-006	0.00000E+000	4.71533E-004	-3.27672E+002	7	...........
	279	280	3.52873E+000	8.50887E-007	0.00000E+000	3.00255E-006	0.00000E+000	4.69883E-004	-3.27672E+002	7	...........
	280	281	3.52874E+000	8.51177E-007	0.00000E+000	3.00358E-006	0.00000E+000	4.70667E-004	-3.27672E+002	7	...........
	281	282	3.52874E+000	8.51095E-007	0.00000E+000	3.00329E-006	0.00000E+000	4.72317E-004	-3.27672E+002	7	...........
	282	283	3.52875E+000	8.50553E-007	0.00000E+000	3.00139E-006	0.00000E+000	4.72017E-004	-3.27672E+002	7	...........
	283	284	3.52875E+000	8.50968E-007	0.00000E+000	3.00286E-006	0.00000E+000	4.68667E-004	-3.27672E+002	7	...........
	284	285	3.52875E+000	8.51131E-007	0.00000E+000	3.00343E-006	0.00000E+000	4.71433E-004	-3.27672E+002	7	...........
	285	286	3.52876E+000	8.51005E-007	0.00000E+000	3.00299E-006	0.00000E+000	4.68950E-004	-3.27672E+002	7	...........
	286	287	3.52876E+000	8.51668E-007	0.00000E+000	3.00533E-006	0.00000E+000	4.68567E-004	-3.27672E+002	7	...........
	287	288	3.52877E+000	8.51526E-007	0.00000E+000	3.00484E-006	0.00000E+000	4.67633E-004	-3.27672E+002	7	...........
	288	289	3.52879E+000	8.51547E-007	0.00000E+000	3.00493E-006	0.00000E+000	4.68067E-004	-3.27672E+002	7	...........
	289	290	3.52879E+000	8.51377E-007	0.00000E+000	3.00433E-006	0.00000E+000	4.71550E-004	-3.27672E+002	7	...........
	290	291	3.52879E+000	8.51492E-007	0.00000E+000	3.00474E-006	0.00000E+000	4.68017E-004	-3.27672E+002	7	...........
	291	292	3.52880E+000	8.51911E-007	0.00000E+000	3.00622E-006	0.00000E+000	4.68517E-004	-3.27672E+002	7	...........
	292	293	3.52881E+000	8.51120E-007	0.00000E+000	3.00344E-006	0.00000E+000	4.68683E-004	-3.27672E+002	7	...........
	293	294	3.52881E+000	8.50999E-007	0.00000E+000	3.00302E-006	0.00000E+000	4.67550E-004	-3.27672E+002	7	...........
	294	295	3.52881E+000	8.50749E-007	0.00000E+000	3.00213E-006	0.00000E+000	4.67867E-004	-3.27672E+002	7	...........
	295	296	3.52882E+000	8.51805E-007	0.00000E+000	3.00586E-006	0.00000E+000	4.68050E-004	-3.27672E+002	7	...........
	296	297	3.52881E+000	8.51330E-007	0.00000E+000	3.00418E-006	0.00000E+000	4.67450E-004	-3.27672E+002	7	...........
	297	298	3.52882E+000	8.52245E-007	0.00000E+000	3.00742E-006	0.00000E+000	4.66317E-004	-3.27672E+002	7	...........
	298	299	3.52882E+000	8.52291E-007	0.00000E+000	3.00758E-006	0.00000E+000	4.69283E-004	-3.27672E+002	7	...........
	299	300	3.52883E+000	8.51756E-007	0.00000E+000	3.00570E-006	0.00000E+000	4.67150E-004	-3.27672E+002	7	...........
	300	301	3.52883E+000	8.52136E-007	0.00000E+000	3.00705E-006	0.00000E+000	4.69767E-004	-3.27672E+002	7	...........
	301	302	3.52883E+000	8.52089E-007	0.00000E+000	3.00688E-006	0.00000E+000	4.71183E-004	-3.27672E+002	7	...........
	302	303	3.52884E+000	8.51494E-007	0.00000E+000	3.00479E-006	0.00000E+000	4.67317E-004	-3.27672E+002	7	...........
	303	304	3.52884E+000	8.51693E-007	0.00000E+000	3.00549E-006	0.00000E+000	4.70517E-004	-3.27672E+002	7	...........
	304	305	3.52885E+000	8.51830E-007	0.00000E+000	3.00598E-006	0.00000E+000	4.70633E-004	-3.27672E+002	7	...........
	305	306	3.52885E+000	8.52041E-007	0.00000E+000	3.00672E-006	0.00000E+000	4.72600E-004	-3.27672E+002	7	...........
	306	307	3.52886E+000	8.52247E-007	0.00000E+000	3.00746E-006	0.00000E+000	4.70383E-004	-3.27672E+002	7	...........
	307	308	3.52886E+000	8.52118E-007	0.00000E+000	3.00701E-006	0.00000E+000	4.71667E-004	-3.27672E+002	7	...........
	308	309	3.52887E+000	8.51745E-007	0.00000E+000	3.00570E-006	0.00000E+000	4.70183E-004	-3.27672E+002	7	...........
	309	310	3.52887E+000	8.51234E-007	0.00000E+000	3.00389E-006	0.00000E+000	4.73500E-004	-3.27672E+002	7	...........
	310	311	3.52888E+000	8.51842E-007	0.00000E+000	3.00605E-006	0.00000E+000	4.70167E-004	-3.27672E+002	7	...........
	311	312	3.52888E+000	8.51080E-007	0.00000E+000	3.00336E-006	0.00000E+000	4.68700E-004	-3.27672E+002	7	...........
	312	313	3.52889E+000	8.51214E-007	0.00000E+000	3.00384E-006	0.00000E+000	4.69500E-004	-3.27672E+002	7	...........
	313	314	3.52890E+000	8.51531E-007	0.00000E+000	3.00497E-006	0.00000E+000	4.70433E-004	-3.27672E+002	7	...........
	314	315	3.52890E+000	8.51726E-007	0.00000E+000	3.00565E-006	0.00000E+000	4.68083E-004	-3.27672E+002	7	...........
	315	316	3.52890E+000	8.52492E-007	0.00000E+000	3.00836E-006	0.00000E+000	4.68233E-004	-3.27672E+002	7	...........
	316	317	3.52890E+000	8.51926E-007	0.00000E+000	3.00637E-006	0.00000E+000	4.66150E-004	-3.27672E+002	7	...........
	317	318	3.52891E+000	8.52402E-007	0.00000E+000	3.00805E-006	0.00000E+000	4.65183E-004	-3.27672E+002	7	...........
	318	319	3.52891E+000	8.51702E-007	0.00000E+000	3.00558E-006	0.00000E+000	4.68067E-004	-3.27672E+002	7	...........
	319	320	3.52892E+000	8.51485E-007	0.00000E+000	3.00482E-006	0.00000E+000	4.65183E-004	-3.27672E+002	7	...........
	320	321	3.52893E+000	8.51772E-007	0.00000E+000	3.00584E-006	0.00000E+000	4.68317E-004	-3.27672E+002	7	...........
	321	322	3.52893E+000	8.52003E-007	0.00000E+000	3.00666E-006	0.00000E+000	4.66850E-004	-3.27672E+002	7	...........
	322	323	3.52893E+000	8.52319E-007	0.00000E+000	3.00778E-006	0.00000E+000	4.68833E-004	-3.27672E+002	7	...........
	323	324	3.52894E+000	8.52127E-007	0.00000E+000	3.00711E-006	0.00000E+000	4.66150E-004	-3.27672E+002	7	...........
	324	325	3.52894E+000	8.51803E-007	0.00000E+000	3.00596E-006	0.00000E+000	4.65383E-004	-3.27672E+002	7	...........
	325	326	3.52895E+000	8.52044E-007	0.00000E+000	3.00682E-006	0.00000E+000	4.66500E-004	-3.27672E+002	7	...........
	326	327	3.52895E+000	8.52064E-007	0.00000E+000	3.00689E-006	0.00000E+000	4.63917E-004	-3.27672E+002	7	...........
	327	328	3.52895E+000	8.51900E-007	0.00000E+000	3.00631E-006	0.00000E+000	4.67233E-004	-3.27672E+002	7	...........
	328	329	3.52896E+000	8.52065E-007	0.00000E+000	3.00690E-006	0.00000E+000	4.67900E-004	-3.27672E+002	7	...........
	329	330	3.52896E+000	8.52557E-007	0.00000E+000	3.00864E-006	0.00000E+000	4.69167E-004	-3.27672E+002	7	...........
	330	331	3.52897E+000	8.52370E-007	0.00000E+000	3.00799E-006	0.00000E+000	4.69583E-004	-3.27672E+002	7	...........
	331	332	3.52897E+000	8.52716E-007	0.00000E+000	3.00921E-006	0.00000E+000	4.65400E-004	-3.27672E+002	7	...........
	332	333	3.52898E+000	8.52825E-007	0.00000E+000	3.00960E-006	0.00000E+000	4.66700E-004	-3.27672E+002	7	...........
	333	334	3.52898E+000	8.51720E-007	0.00000E+000	3.00570E-006	0.00000E+000	4.66600E-004	-3.27672E+002	7	...........
	334	335	3.52898E+000	8.52037E-007	0.00000E+000	3.00682E-006	0.00000E+000	4.65700E-004	-3.27672E+002	7	...........
	335	336	3.52899E+000	8.51752E-007	0.00000E+000	3.00582E-006	0.00000E+000	4.65683E-004	-3.27672E+002	7	...........
	336	337	3.52900E+000	8.52999E-007	0.00000E+000	3.01023E-006	0.00000E+000	4.66300E-004	-3.27672E+002	7	...........
	337	338	3.52900E+000	8.52795E-007	0.00000E+000	3.00951E-006	0.00000E+000	4.66433E-004	-3.27672E+002	7	...........
	338	339	3.52899E+000	8.52530E-007	0.00000E+000	3.00857E-006	0.00000E+000	4.65417E-004	-3.27672E+002	7	...........
	339	340	3.52899E+000	8.51917E-007	0.00000E+000	3.00641E-006	0.00000E+000	4.66117E-004	-3.27672E+002	7	...........
	340	341	3.52901E+000	8.52410E-007	0.00000E+000	3.00816E-006	0.00000E+000	4.66083E-004	-3.27672E+002	7	...........
	341	342	3.52901E+000	8.52002E-007	0.00000E+000	3.00672E-006	0.00000E+000	4.68983E-004	-3.27672E+002	7	...........
	342	343	3.52902E+000	8.52749E-007	0.00000E+000	3.00936E-006	0.00000E+000	4.63400E-004	-3.27672E+002	7	...........
	343	344	3.52901E+000	8.52557E-007	0.00000E+000	3.00868E-006	0.00000E+000	4.66933E-004	-3.27672E+002	7	...........
	344	345	3.52902E+000	8.51760E-007	0.00000E+000	3.00588E-006	0.00000E+000	4.64933E-004	-3.27672E+002	7	...........
	345	346	3.52902E+000	8.51330E-007	0.00000E+000	3.00436E-006	0.00000E+000	4.67083E-004	-3.27672E+002	7	...........
	346	347	3.52903E+000	8.51374E-007	0.00000E+000	3.00452E-006	0.00000E+000	4.65483E-004	-3.27672E+002	7	...........
	347	348	3.52903E+000	8.52189E-007	0.00000E+000	3.00740E-006	0.00000E+000	4.64083E-004	-3.27672E+002	7	...........
	348	349	3.52904E+000	8.52539E-007	0.00000E+000	3.00864E-006	0.00000E+000	4.63750E-004	-3.27672E+002	7	...........
	349	350	3.52904E+000	8.52715E-007	0.00000E+000	3.00927E-006	0.00000E+000	4.65283E-004	-3.27672E+002	7	...........
	350	351	3.52904E+000	8.52846E-007	0.00000E+000	3.00973E-006	0.00000E+000	4.64100E-004	-3.27672E+002	7	...........
	351	352	3.52905E+000	8.52156E-007	0.00000E+000	3.00730E-006	0.00000E+000	4.64850E-004	-3.27672E+002	7	...........
	352	353	3.52905E+000	8.52513E-007	0.00000E+000	3.00856E-006	0.00000E+000	4.64967E-004	-3.27672E+002	7	...........
	353	354	3.52906E+000	8.52603E-007	0.00000E+000	3.00889E-006	0.00000E+000	4.62000E-004	-3.27672E+002	7	...........
	354	355	3.52906E+000	8.52776E-007	0.00000E+000	3.00950E-006	0.00000E+000	4.62883E-004	-3.27672E+002	7	...........
	355	356	3.52906E+000	8.52783E-007	0.00000E+000	3.00952E-006	0.00000E+000	4.65517E-004	-3.27672E+002	7	...........
	356	357	3.52906E+000	8.53654E-007	0.00000E+000	3.01260E-006	0.00000E+000	4.64733E-004	-3.27672E+002	7	...........
	357	358	3.52906E+000	8.53140E-007	0.00000E+000	3.01078E-006	0.00000E+000	4.64050E-004	-3.27672E+002	7	...........
	358	359	3.52907E+000	8.53142E-007	0.00000E+000	3.01080E-006	0.00000E+000	4.64983E-004	-3.27672E+002	7	...........
	359	360	3.52907E+000	8.52787E-007	0.00000E+000	3.00955E-006	0.00000E+000	4.62017E-004	-3.27672E+002	7	...........
	360	361	3.52908E+000	8.52891E-007	0.00000E+000	3.00992E-006	0.00000E+000	4.62150E-004	-3.27672E+002	7	...........
	361	362	3.52908E+000	8.52729E-007	0.00000E+000	3.00935E-006	0.00000E+000	4.65000E-004	-3.27672E+002	7	...........
	362	363	3.52909E+000	8.51887E-007	0.00000E+000	3.00639E-006	0.00000E+000	4.64000E-004	-3.27672E+002	7	...........
	363	364	3.52909E+000	8.52626E-007	0.00000E+000	3.00899E-006	0.00000E+000	4.65217E-004	-3.27672E+002	7	...........
	364	365	3.52909E+000	8.52965E-007	0.00000E+000	3.01019E-006	0.00000E+000	4.65467E-004	-3.27672E+002	7	...........
	365	366	3.52910E+000	8.53616E-007	0.00000E+000	3.01250E-006	0.00000E+000	4.63300E-004	-3.27672E+002	7	...........
	366	367	3.52911E+000	8.53680E-007	0.00000E+000	3.01273E-006	0.00000E+000	4.61883E-004	-3.27672E+002	7	...........
	367	368	3.52911E+000	8.52557E-007	0.00000E+000	3.00877E-006	0.00000E+000	4.60983E-004	-3.27672E+002	7	...........
	368	369	3.52911E+000	8.52649E-007	0.00000E+000	3.00909E-006	0.00000E+000	4.64300E-004	-3.27672E+002	7	...........
	369	370	3.52911E+000	8.52663E-007	0.00000E+000	3.00914E-006	0.00000E+000	4.66550E-004	-3.27672E+002	7	...........
	370	371	3.52912E+000	8.52293E-007	0.00000E+000	3.00784E-006	0.00000E+000	4.63617E-004	-3.27672E+002	7	...........
	371	372	3.52912E+000	8.51729E-007	0.00000E+000	3.00585E-006	0.00000E+000	4.60567E-004	-3.27672E+002	7	...........
	372	373	3.52912E+000	8.52402E-007	0.00000E+000	3.00823E-006	0.00000E+000	4.68167E-004	-3.27672E+002	7	...........
	373	374	3.52912E+000	8.53004E-007	0.00000E+000	3.01035E-006	0.00000E+000	4.63017E-004	-3.27672E+002	7	...........
	374	375	3.52913E+000	8.52619E-007	0.00000E+000	3.00900E-006	0.00000E+000	4.65133E-004	-3.27672E+002	7	...........
	375	376	3.52912E+000	8.52665E-007	0.00000E+000	3.00916E-006	0.00000E+000	4.65017E-004	-3.27672E+002	7	...........
	376	377	3.52912E+000	8.52842E-007	0.00000E+000	3.00979E-006	0.00000E+000	4.66400E-004	-3.27672E+002	7	...........
	377	378	3.52913E+000	8.52434E-007	0.00000E+000	3.00835E-006	0.00000E+000	4.66100E-004	-3.27672E+002	7	...........
	378	379	3.52913E+000	8.52793E-007	0.00000E+000	3.00962E-006	0.00000E+000	4.62267E-004	-3.27672E+002	7	...........
	379	380	3.52914E+000	8.52410E-007	0.00000E+000	3.00828E-006	0.00000E+000	4.64050E-004	-3.27672E+002	7	...........
	380	381	3.52915E+000	8.52850E-007	0.00000E+000	3.00983E-006	0.00000E+000	4.64100E-004	-3.27672E+002	7	...........
	381	382	3.52915E+000	8.53390E-007	0.00000E+000	3.01174E-006	0.00000E+000	4.64483E-004	-3.27672E+002	7	...........
	382	383	3.52915E+000	8.52851E-007	0.00000E+000	3.00984E-006	0.00000E+000	4.64933E-004	-3.27672E+002	7	...........
	383	384	3.52916E+000	8.53474E-007	0.00000E+000	3.01204E-006	0.00000E+000	4.65500E-004	-3.27672E+002	7	...........
	384	385	3.52916E+000	8.53000E-007	0.00000E+000	3.01037E-006	0.00000E+000	4.64367E-004	-3.27672E+002	7	...........
	385	386	3.52916E+000	8.53070E-007	0.00000E+000	3.01062E-006	0.00000E+000	4.63767E-004	-3.27672E+002	7	...........
	386	387	3.52917E+000	8.53488E-007	0.00000E+000	3.01210E-006	0.00000E+000	4.65550E-004	-3.27672E+002	7	...........
	387	388	3.52917E+000	8.52824E-007	0.00000E+000	3.00976E-006	0.00000E+000	4.65767E-004	-3.27672E+002	7	...........
	388	389	3.52917E+000	8.52746E-007	0.00000E+000	3.00949E-006	0.00000E+000	4.61050E-004	-3.27672E+002	7	...........
	389	390	3.52918E+000	8.52989E-007	0.00000E+000	3.01035E-006	0.00000E+000	4.63383E-004	-3.27672E+002	7	...........
	390	391	3.52917E+000	8.52920E-007	0.00000E+000	3.01010E-006	0.00000E+000	4.62350E-004	-3.27672E+002	7	...........
	391	392	3.52918E+000	8.52788E-007	0.00000E+000	3.00964E-006	0.00000E+000	4.62650E-004	-3.27672E+002	7	...........
	392	393	3.52918E+000	8.52639E-007	0.00000E+000	3.00911E-006	0.00000E+000	4.60967E-004	-3.27672E+002	7	...........
	393	394	3.52918E+000	8.53038E-007	0.00000E+000	3.01052E-006	0.00000E+000	4.62400E-004	-3.27672E+002	7	...........
	394	395	3.52919E+000	8.52337E-007	0.00000E+000	3.00806E-006	0.00000E+000	4.63200E-004	-3.27672E+002	7	...........
	395	396	3.52919E+000	8.52794E-007	0.00000E+000	3.00967E-006	0.00000E+000	4.62633E-004	-3.27672E+002	7	...........
	396	397	3.52919E+000	8.53357E-007	0.00000E+000	3.01166E-006	0.00000E+000	4.65800E-004	-3.27672E+002	7	...........
	397	398	3.52919E+000	8.53361E-007	0.00000E+000	3.01168E-006	0.00000E+000	4.64933E-004	-3.27672E+002	7	...........
	398	399	3.52920E+000	8.53420E-007	0.00000E+000	3.01189E-006	0.00000E+000	4.62800E-004	-3.27672E+002	7	...........
	399	400	3.52921E+000	8.53079E-007	0.00000E+000	3.01069E-006	0.00000E+000	4.59517E-004	-3.27672E+002	7	...........
	400	401	3.52920E+000	8.53833E-007	0.00000E+000	3.01335E-006	0.00000E+000	4.63217E-004	-3.27672E+002	7	...........
	401	402	3.52922E+000	8.53501E-007	0.00000E+000	3.01219E-006	0.00000E+000	4.64200E-004	-3.27672E+002	7	...........
	402	403	3.52921E+000	8.53235E-007	0.00000E+000	3.01124E-006	0.00000E+000	4.63350E-004	-3.27672E+002	7	...........
	403	404	3.52921E+000	8.53419E-007	0.00000E+000	3.01190E-006	0.00000E+000	4.64267E-004	-3.27672E+002	7	...........
	404	405	3.52922E+000	8.52857E-007	0.00000E+000	3.00992E-006	0.00000E+000	4.63367E-004	-3.27672E+002	7	...........
	405	406	3.52923E+000	8.52720E-007	0.00000E+000	3.00944E-006	0.00000E+000	4.61417E-004	-3.27672E+002	7	...........
	406	407	3.52923E+000	8.53177E-007	0.00000E+000	3.01106E-006	0.00000E+000	4.63533E-004	-3.27672E+002	7	...........
	407	408	3.52923E+000	8.52774E-007	0.00000E+000	3.00964E-006	0.00000E+000	4.63967E-004	-3.27672E+002	7	...........
	408	409	3.52924E+000	8.53721E-007	0.00000E+000	3.01298E-006	0.00000E+000	4.64067E-004	-3.27672E+002	7	...........
	409	410	3.52924E+000	8.53629E-007	0.00000E+000	3.01266E-006	0.00000E+000	4.60283E-004	-3.27672E+002	7	...........
	410	411	3.52924E+000	8.53511E-007	0.00000E+000	3.01225E-006	0.00000E+000	4.64517E-004	-3.27672E+002	7	...........
	411	412	3.52925E+000	8.53687E-007	0.00000E+000	3.01288E-006	0.00000E+000	4.63867E-004	-3.27672E+002	7	...........
	412	413	3.52925E+000	8.53599E-007	0.00000E+000	3.01257E-006	0.00000E+000	4.64000E-004	-3.27672E+002	7	...........
	413	414	3.52925E+000	8.53260E-007	0.00000E+000	3.01137E-006	0.00000E+000	4.62283E-004	-3.27672E+002	7	...........
	414	415	3.52925E+000	8.53699E-007	0.00000E+000	3.01292E-006	0.00000E+000	4.63667E-004	-3.27672E+002	7	...........
	415	416	3.52925E+000	8.53878E-007	0.00000E+000	3.01355E-006	0.00000E+000	4.66150E-004	-3.27672E+002	7	...........
	416	417	3.52926E+000	8.53655E-007	0.00000E+000	3.01277E-006	0.00000E+000	4.64000E-004	-3.27672E+002	7	...........
	417	418	3.52926E+000	8.54135E-007	0.00000E+000	3.01447E-006	0.00000E+000	4.61917E-004	-3.27672E+002	7	...........
	418	419	3.52927E+000	8.53910E-007	0.00000E+000	3.01367E-006	0.00000E+000	4.61683E-004	-3.27672E+002	7	...........
	419	420	3.52927E+000	8.53493E-007	0.00000E+000	3.01221E-006	0.00000E+000	4.61917E-004	-3.27672E+002	7	...........
	420	421	3.52928E+000	8.53850E-007	0.00000E+000	3.01347E-006	0.00000E+000	4.62650E-004	-3.27672E+002	7	...........
	421	422	3.52927E+000	8.53984E-007	0.00000E+000	3.01394E-006	0.00000E+000	4.63017E-004	-3.27672E+002	7	...........
	422	423	3.52928E+000	8.53925E-007	0.00000E+000	3.01374E-006	0.00000E+000	4.60917E-004	-3.27672E+002	7	...........
	423	424	3.52928E+000	8.54069E-007	0.00000E+000	3.01425E-006	0.00000E+000	4.61133E-004	-3.27672E+002	7	...........
	424	425	3.52928E+000	8.53653E-007	0.00000E+000	3.01278E-006	0.00000E+000	4.62733E-004	-3.27672E+002	7	...........
	425	426	3.52929E+000	8.54417E-007	0.00000E+000	3.01548E-006	0.00000E+000	4.61750E-004	-3.27672E+002	7	...........
	426	427	3.52929E+000	8.53659E-007	0.00000E+000	3.01281E-006	0.00000E+000	4.62750E-004	-3.27672E+002	7	...........
	427	428	3.52930E+000	8.54253E-007	0.00000E+000	3.01492E-006	0.00000E+000	4.60983E-004	-3.27672E+002	7	...........
	428	429	3.52929E+000	8.54545E-007	0.00000E+000	3.01594E-006	0.00000E+000	4.62050E-004	-3.27672E+002	7	...........
	429	430	3.52930E+000	8.54476E-007	0.00000E+000	3.01570E-006	0.00000E+000	4.58917E-004	-3.27672E+002	7	...........
	430	431	3.52929E+000	8.54112E-007	0.00000E+000	3.01441E-006	0.00000E+000	4.60733E-004	-3.27672E+002	7	...........
	431	432	3.52930E+000	8.53580E-007	0.00000E+000	3.01254E-006	0.00000E+000	4.62417E-004	-3.27672E+002	7	...........
	432	433	3.52930E+000	8.54146E-007	0.00000E+000	3.01454E-006	0.00000E+000	4.59933E-004	-3.27672E+002	7	...........
	433	434	3.52930E+000	8.53976E-007	0.00000E+000	3.01393E-006	0.00000E+000	4.61383E-004	-3.27672E+002	7	...........
	434	435	3.52930E+000	8.54934E-007	0.00000E+000	3.01732E-006	0.00000E+000	4.62867E-004	-3.27672E+002	7	...........
	435	436	3.52930E+000	8.54689E-007	0.00000E+000	3.01645E-006	0.00000E+000	4.59583E-004	-3.27672E+002	7	...........
	436	437	3.52930E+000	8.53707E-007	0.00000E+000	3.01299E-006	0.00000E+000	4.59750E-004	-3.27672E+002	7	...........
	437	438	3.52930E+000	8.54120E-007	0.00000E+000	3.01445E-006	0.00000E+000	4.60550E-004	-3.27672E+002	7	...........
	438	439	3.52931E+000	8.53769E-007	0.00000E+000	3.01321E-006	0.00000E+000	4.60333E-004	-3.27672E+002	7	...........
	439	440	3.52931E+000	8.53373E-007	0.00000E+000	3.01182E-006	0.00000E+000	4.61967E-004	-3.27672E+002	7	...........
	440	441	3.52932E+000	8.54383E-007	0.00000E+000	3.01539E-006	0.00000E+000	4.63850E-004	-3.27672E+002	7	...........
	441	442	3.52933E+000	8.54245E-007	0.00000E+000	3.01491E-006	0.00000E+000	4.63367E-004	-3.27672E+002	7	...........
	442	443	3.52933E+000	8.54684E-007	0.00000E+000	3.01646E-006	0.00000E+000	4.60767E-004	-3.27672E+002	7	...........
	443	444	3.52934E+000	8.54372E-007	0.00000E+000	3.01537E-006	0.00000E+000	4.63083E-004	-3.27672E+002	7	...........
	444	445	3.52934E+000	8.54339E-007	0.00000E+000	3.01525E-006	0.00000E+000	4.60833E-004	-3.27672E+002	7	...........
	445	446	3.52934E+000	8.54651E-007	0.00000E+000	3.01635E-006	0.00000E+000	4.63917E-004	-3.27672E+002	7	...........
	446	447	3.52933E+000	8.54044E-007	0.00000E+000	3.01421E-006	0.00000E+000	4.60883E-004	-3.27672E+002	7	...........
	447	448	3.52933E+000	8.54087E-007	0.00000E+000	3.01436E-006	0.00000E+000	4.63217E-004	-3.27672E+002	7	...........
	448	449	3.52934E+000	8.54274E-007	0.00000E+000	3.01502E-006	0.00000E+000	4.63200E-004	-3.27672E+002	7	...........
	449	450	3.52935E+000	8.54618E-007	0.00000E+000	3.01624E-006	0.00000E+000	4.62983E-004	-3.27672E+002	7	...........
	450	451	3.52935E+000	8.54819E-007	0.00000E+000	3.01696E-006	0.00000E+000	4.62583E-004	-3.27672E+002	7	...........
	451	452	3.52935E+000	8.55210E-007	0.00000E+000	3.01834E-006	0.00000E+000	4.61850E-004	-3.27672E+002	7	...........
	452	453	3.52936E+000	8.55178E-007	0.00000E+000	3.01823E-006	0.00000E+000	4.63433E-004	-3.27672E+002	7	...........
	453	454	3.52936E+000	8.54275E-007	0.00000E+000	3.01505E-006	0.00000E+000	4.61617E-004	-3.27672E+002	7	...........
	454	455	3.52936E+000	8.54431E-007	0.00000E+000	3.01559E-006	0.00000E+000	4.61850E-004	-3.27672E+002	7	...........
	455	456	3.52936E+000	8.54860E-007	0.00000E+000	3.01711E-006	0.00000E+000	4.61067E-004	-3.27672E+002	7	...........
	456	457	3.52937E+000	8.54844E-007	0.00000E+000	3.01706E-006	0.00000E+000	4.63617E-004	-3.27672E+002	7	...........
	457	458	3.52937E+000	8.54806E-007	0.00000E+000	3.01693E-006	0.00000E+000	4.62417E-004	-3.27672E+002	7	...........
	458	459	3.52937E+000	8.55066E-007	0.00000E+000	3.01785E-006	0.00000E+000	4.62183E-004	-3.27672E+002	7	...........
	459	460	3.52937E+000	8.55172E-007	0.00000E+000	3.01822E-006	0.00000E+000	4.61783E-004	-3.27672E+002	7	...........
	460	461	3.52938E+000	8.55326E-007	0.00000E+000	3.01877E-006	0.00000E+000	4.62800E-004	-3.27672E+002	7	...........
	461	462	3.52938E+000	8.54839E-007	0.00000E+000	3.01705E-006	0.00000E+000	4.63433E-004	-3.27672E+002	7	...........
	462	463	3.52939E+000	8.54479E-007	0.00000E+000	3.01579E-006	0.00000E+000	4.63650E-004	-3.27672E+002	7	...........
	463	464	3.52938E+000	8.54651E-007	0.00000E+000	3.01639E-006	0.00000E+000	4.61717E-004	-3.27672E+002	7	...........
	464	465	3.52939E+000	8.54141E-007	0.00000E+000	3.01459E-006	0.00000E+000	4.59850E-004	-3.27672E+002	7	...........
	465	466	3.52939E+000	8.54184E-007	0.00000E+000	3.01475E-006	0.00000E+000	4.62533E-004	-3.27672E+002	7	...........
	466	467	3.52939E+000	8.54602E-007	0.00000E+000	3.01622E-006	0.00000E+000	4.61000E-004	-3.27672E+002	7	...........
	467	468	3.52939E+000	8.55073E-007	0.00000E+000	3.01788E-006	0.00000E+000	4.62867E-004	-3.27672E+002	7	...........
	468	469	3.52940E+000	8.54587E-007	0.00000E+000	3.01618E-006	0.00000E+000	4.64783E-004	-3.27672E+002	7	...........
	469	470	3.52940E+000	8.55554E-007	0.00000E+000	3.01959E-006	0.00000E+000	4.63233E-004	-3.27672E+002	7	...........
	470	471	3.52940E+000	8.54800E-007	0.00000E+000	3.01693E-006	0.00000E+000	4.62083E-004	-3.27672E+002	7	...........
	471	472	3.52941E+000	8.54867E-007	0.00000E+000	3.01718E-006	0.00000E+000	4.63567E-004	-3.27672E+002	7	...........
	472	473	3.52941E+000	8.55388E-007	0.00000E+000	3.01902E-006	0.00000E+000	4.61817E-004	-3.27672E+002	7	...........
	473	474	3.52942E+000	8.54497E-007	0.00000E+000	3.01588E-006	0.00000E+000	4.67183E-004	-3.27672E+002	7	...........
	474	475	3.52942E+000	8.54697E-007	0.00000E+000	3.01658E-006	0.00000E+000	4.63150E-004	-3.27672E+002	7	...........
	475	476	3.52942E+000	8.55117E-007	0.00000E+000	3.01807E-006	0.00000E+000	4.62383E-004	-3.27672E+002	7	...........
	476	477	3.52942E+000	8.54986E-007	0.00000E+000	3.01761E-006	0.00000E+000	4.65683E-004	-3.27672E+002	7	...........
	477	478	3.52942E+000	8.54600E-007	0.00000E+000	3.01624E-006	0.00000E+000	4.66633E-004	-3.27672E+002	7	...........
	478	479	3.52942E+000	8.54633E-007	0.00000E+000	3.01636E-006	0.00000E+000	4.62567E-004	-3.27672E+002	7	...........
	479	480	3.52942E+000	8.54549E-007	0.00000E+000	3.01606E-006	0.00000E+000	4.63650E-004	-3.27672E+002	7	...........
	480	481	3.52942E+000	8.54791E-007	0.00000E+000	3.01692E-006	0.00000E+000	4.62400E-004	-3.27672E+002	7	...........
	481	482	3.52942E+000	8.55149E-007	0.00000E+000	3.01818E-006	0.00000E+000	4.62533E-004	-3.27672E+002	7	...........
	482	483	3.52942E+000	8.54945E-007	0.00000E+000	3.01747E-006	0.00000E+000	4.63100E-004	-3.27672E+002	7	...........
	483	484	3.52944E+000	8.55607E-007	0.00000E+000	3.01982E-006	0.00000E+000	4.63200E-004	-3.27672E+002	7	...........
	484	485	3.52944E+000	8.54895E-007	0.00000E+000	3.01730E-006	0.00000E+000	4.61783E-004	-3.27672E+002	7	...........
	485	486	3.52944E+000	8.55021E-007	0.00000E+000	3.01774E-006	0.00000E+000	4.63183E-004	-3.27672E+002	7	...........
	486	487	3.52944E+000	8.55818E-007	0.00000E+000	3.02056E-006	0.00000E+000	4.62917E-004	-3.27672E+002	7	...........
	487	488	3.52944E+000	8.55202E-007	0.00000E+000	3.01839E-006	0.00000E+000	4.64067E-004	-3.27672E+002	7	...........
	488	489	3.52945E+000	8.55184E-007	0.00000E+000	3.01833E-006	0.00000E+000	4.64833E-004	-3.27672E+002	7	...........
	489	490	3.52945E+000	8.55224E-007	0.00000E+000	3.01847E-006	0.00000E+000	4.62067E-004	-3.27672E+002	7	...........
	490	491	3.52945E+000	8.55346E-007	0.00000E+000	3.01890E-006	0.00000E+000	4.62417E-004	-3.27672E+002	7	...........
	491	492	3.52945E+000	8.55587E-007	0.00000E+000	3.01975E-006	0.00000E+000	4.62933E-004	-3.27672E+002	7	...........
	492	493	3.52945E+000	8.55727E-007	0.00000E+000	3.02025E-006	0.00000E+000	4.60783E-004	-3.27672E+002	7	...........
	493	494	3.52946E+000	8.55623E-007	0.00000E+000	3.01988E-006	0.00000E+000	4.63517E-004	-3.27672E+002	7	...........
	494	495	3.52945E+000	8.55692E-007	0.00000E+000	3.02012E-006	0.00000E+000	4.61000E-004	-3.27672E+002	7	...........
	495	496	3.52946E+000	8.55919E-007	0.00000E+000	3.02093E-006	0.00000E+000	4.63183E-004	-3.27672E+002	7	...........
	496	497	3.52946E+000	8.55133E-007	0.00000E+000	3.01816E-006	0.00000E+000	4.62350E-004	-3.27672E+002	7	...........
	497	498	3.52946E+000	8.54861E-007	0.00000E+000	3.01720E-006	0.00000E+000	4.66033E-004	-3.27672E+002	7	...........
	498	499	3.52946E+000	8.55253E-007	0.00000E+000	3.01858E-006	0.00000E+000	4.62400E-004	-3.27672E+002	7	...........
	499	500	3.52946E+000	8.56122E-007	0.00000E+000	3.02165E-006	0.00000E+000	4.62833E-004	-3.27672E+002	7	...........
	500	501	3.52947E+000	8.55139E-007	0.00000E+000	3.01818E-006	0.00000E+000	4.62917E-004	-3.27672E+002	7	...........
	501	502	3.52946E+000	8.55558E-007	0.00000E+000	3.01966E-006	0.00000E+000	4.63133E-004	-3.27672E+002	7	...........
	502	503	3.52947E+000	8.55607E-007	0.00000E+000	3.01984E-006	0.00000E+000	4.65500E-004	-3.27672E+002	7	...........
	503	504	3.52947E+000	8.56355E-007	0.00000E+000	3.02248E-006	0.00000E+000	4.62983E-004	-3.27672E+002	7	...........
	504	505	3.52947E+000	8.55620E-007	0.00000E+000	3.01989E-006	0.00000E+000	4.65133E-004	-3.27672E+002	7	...........
	505	506	3.52947E+000	8.55994E-007	0.00000E+000	3.02121E-006	0.00000E+000	4.65450E-004	-3.27672E+002	7	...........
	506	507	3.52947E+000	8.55807E-007	0.00000E+000	3.02055E-006	0.00000E+000	4.63933E-004	-3.27672E+002	7	...........
	507	508	3.52947E+000	8.55346E-007	0.00000E+000	3.01892E-006	0.00000E+000	4.65750E-004	-3.27672E+002	7	...........
	508	509	3.52949E+000	8.55487E-007	0.00000E+000	3.01943E-006	0.00000E+000	4.62183E-004	-3.27672E+002	7	...........
	509	510	3.52948E+000	8.55932E-007	0.00000E+000	3.02100E-006	0.00000E+000	4.62083E-004	-3.27672E+002	7	...........
	510	511	3.52948E+000	8.55905E-007	0.00000E+000	3.02090E-006	0.00000E+000	4.62800E-004	-3.27672E+002	7	...........
	511	512	3.52949E+000	8.55635E-007	0.00000E+000	3.01995E-006	0.00000E+000	4.62317E-004	-3.27672E+002	7	...........
	512	513	3.52949E+000	8.55784E-007	0.00000E+000	3.02048E-006	0.00000E+000	4.65050E-004	-3.27672E+002	7	...........
	513	514	3.52949E+000	8.56008E-007	0.00000E+000	3.02127E-006	0.00000E+000	4.63717E-004	-3.27672E+002	7	...........
	514	515	3.52949E+000	8.55707E-007	0.00000E+000	3.02021E-006	0.00000E+000	4.64883E-004	-3.27672E+002	7	...........
	515	516	3.52950E+000	8.54720E-007	0.00000E+000	3.01673E-006	0.00000E+000	4.64067E-004	-3.27672E+002	7	...........
	516	517	3.52950E+000	8.55381E-007	0.00000E+000	3.01907E-006	0.00000E+000	4.64217E-004	-3.27672E+002	7	...........
	517	518	3.52949E+000	8.55369E-007	0.00000E+000	3.01902E-006	0.00000E+000	4.64883E-004	-3.27672E+002	7	...........
	518	519	3.52950E+000	8.56256E-007	0.00000E+000	3.02216E-006	0.00000E+000	4.65683E-004	-3.27672E+002	7	...........
	519	520	3.52951E+000	8.56032E-007	0.00000E+000	3.02137E-006	0.00000E+000	4.65567E-004	-3.27672E+002	7	...........
	520	521	3.52951E+000	8.56556E-007	0.00000E+000	3.02322E-006	0.00000E+000	4.67233E-004	-3.27672E+002	7	...........
	521	522	3.52951E+000	8.55832E-007	0.00000E+000	3.02067E-006	0.00000E+000	4.65383E-004	-3.27672E+002	7	...........
	522	523	3.52951E+000	8.56005E-007	0.00000E+000	3.02128E-006	0.00000E+000	4.66283E-004	-3.27672E+002	7	...........
	523	524	3.52952E+000	8.55841E-007	0.00000E+000	3.02070E-006	0.00000E+000	4.64317E-004	-3.27672E+002	7	...........
	524	525	3.52952E+000	8.56191E-007	0.00000E+000	3.02194E-006	0.00000E+000	4.67783E-004	-3.27672E+002	7	...........
	525	526	3.52952E+000	8.56541E-007	0.00000E+000	3.02318E-006	0.00000E+000	4.67467E-004	-3.27672E+002	7	...........
	526	527	3.52952E+000	8.56266E-007	0.00000E+000	3.02221E-006	0.00000E+000	4.64000E-004	-3.27672E+002	7	...........
	527	528	3.52952E+000	8.56387E-007	0.00000E+000	3.02264E-006	0.00000E+000	4.64933E-004	-3.27672E+002	7	...........
	528	529	3.52952E+000	8.56226E-007	0.00000E+000	3.02207E-006	0.00000E+000	4.66933E-004	-3.27672E+002	7	...........
	529	530	3.52954E+000	8.56483E-007	0.00000E+000	3.02299E-006	0.00000E+000	4.61367E-004	-3.27672E+002	7	...........
	530	531	3.52953E+000	8.55497E-007	0.00000E+000	3.01950E-006	0.00000E+000	4.63717E-004	-3.27672E+002	7	...........
	531	532	3.52953E+000	8.55653E-007	0.00000E+000	3.02006E-006	0.00000E+000	4.64433E-004	-3.27672E+002	7	...........
	532	533	3.52953E+000	8.55720E-007	0.00000E+000	3.02029E-006	0.00000E+000	4.66217E-004	-3.27672E+002	7	...........
	533	534	3.52953E+000	8.54928E-007	0.00000E+000	3.01749E-006	0.00000E+000	4.62967E-004	-3.27672E+002	7	...........
	534	535	3.52953E+000	8.55528E-007	0.00000E+000	3.01961E-006	0.00000E+000	4.64850E-004	-3.27672E+002	7	...........
	535	536	3.52954E+000	8.55865E-007	0.00000E+000	3.02081E-006	0.00000E+000	4.64633E-004	-3.27672E+002	7	...........
	536	537	3.52954E+000	8.56053E-007	0.00000E+000	3.02148E-006	0.00000E+000	4.62483E-004	-3.27672E+002	7	...........
	537	538	3.52955E+000	8.56066E-007	0.00000E+000	3.02153E-006	0.00000E+000	4.66533E-004	-3.27672E+002	7	...........
	538	539	3.52955E+000	8.56046E-007	0.00000E+000	3.02146E-006	0.00000E+000	4.66367E-004	-3.27672E+002	7	...........
	539	540	3.52955E+000	8.55976E-007	0.00000E+000	3.02121E-006	0.00000E+000	4.68567E-004	-3.27672E+002	7	...........
	540	541	3.52955E+000	8.56184E-007	0.00000E+000	3.02195E-006	0.00000E+000	4.67883E-004	-3.27672E+002	7	...........
	541	542	3.52955E+000	8.55893E-007	0.00000E+000	3.02092E-006	0.00000E+000	4.65450E-004	-3.27672E+002	7	...........
	542	543	3.52956E+000	8.56128E-007	0.00000E+000	3.02175E-006	0.00000E+000	4.68133E-004	-3.27672E+002	7	...........
	543	544	3.52956E+000	8.55963E-007	0.00000E+000	3.02117E-006	0.00000E+000	4.63067E-004	-3.27672E+002	7	...........
	544	545	3.52957E+000	8.56136E-007	0.00000E+000	3.02179E-006	0.00000E+000	4.66683E-004	-3.27672E+002	7	...........
	545	546	3.52956E+000	8.56015E-007	0.00000E+000	3.02135E-006	0.00000E+000	4.65050E-004	-3.27672E+002	7	...........
	546	547	3.52956E+000	8.55602E-007	0.00000E+000	3.01990E-006	0.00000E+000	4.65617E-004	-3.27672E+002	7	...........
	547	548	3.52957E+000	8.55925E-007	0.00000E+000	3.02105E-006	0.00000E+000	4.65317E-004	-3.27672E+002	7	...........
	548	549	3.52957E+000	8.56021E-007	0.00000E+000	3.02139E-006	0.00000E+000	4.64050E-004	-3.27672E+002	7	...........
	549	550	3.52957E+000	8.55757E-007	0.00000E+000	3.02046E-006	0.00000E+000	4.67433E-004	-3.27672E+002	7	...........
	550	551	3.52958E+000	8.55858E-007	0.00000E+000	3.02082E-006	0.00000E+000	4.64750E-004	-3.27672E+002	7	...........
	551	552	3.52958E+000	8.55485E-007	0.00000E+000	3.01950E-006	0.00000E+000	4.66617E-004	-3.27672E+002	7	...........
	552	553	3.52957E+000	8.55906E-007	0.00000E+000	3.02098E-006	0.00000E+000	4.65200E-004	-3.27672E+002	7	...........
	553	554	3.52957E+000	8.55930E-007	0.00000E+000	3.02107E-006	0.00000E+000	4.65633E-004	-3.27672E+002	7	...........
	554	555	3.52957E+000	8.56530E-007	0.00000E+000	3.02318E-006	0.00000E+000	4.64567E-004	-3.27672E+002	7	...........
	555	556	3.52958E+000	8.56023E-007	0.00000E+000	3.02140E-006	0.00000E+000	4.65100E-004	-3.27672E+002	7	...........
	556	557	3.52958E+000	8.55493E-007	0.00000E+000	3.01953E-006	0.00000E+000	4.63917E-004	-3.27672E+002	7	...........
	557	558	3.52957E+000	8.56069E-007	0.00000E+000	3.02156E-006	0.00000E+000	4.67950E-004	-3.27672E+002	7	...........
	558	559	3.52958E+000	8.55598E-007	0.00000E+000	3.01990E-006	0.00000E+000	4.66883E-004	-3.27672E+002	7	...........
	559	560	3.52959E+000	8.56225E-007	0.00000E+000	3.02212E-006	0.00000E+000	4.63600E-004	-3.27672E+002	7	...........
	560	561	3.52958E+000	8.56103E-007	0.00000E+000	3.02169E-006	0.00000E+000	4.62150E-004	-3.27672E+002	7	...........
	561	562	3.52958E+000	8.56057E-007	0.00000E+000	3.02153E-006	0.00000E+000	4.67350E-004	-3.27672E+002	7	...........
	562	563	3.52959E+000	8.56381E-007	0.00000E+000	3.02267E-006	0.00000E+000	4.63683E-004	-3.27672E+002	7	...........
	563	564	3.52959E+000	8.56347E-007	0.00000E+000	3.02255E-006	0.00000E+000	4.64100E-004	-3.27672E+002	7	...........
	564	565	3.52959E+000	8.56619E-007	0.00000E+000	3.02352E-006	0.00000E+000	4.67933E-004	-3.27672E+002	7	...........
	565	566	3.52959E+000	8.56381E-007	0.00000E+000	3.02268E-006	0.00000E+000	4.66150E-004	-3.27672E+002	7	...........
	566	567	3.52959E+000	8.56498E-007	0.00000E+000	3.02309E-006	0.00000E+000	4.67133E-004	-3.27672E+002	7	...........
	567	568	3.52959E+000	8.56032E-007	0.00000E+000	3.02144E-006	0.00000E+000	4.65950E-004	-3.27672E+002	7	...........
	568	569	3.52960E+000	8.55810E-007	0.00000E+000	3.02067E-006	0.00000E+000	4.65800E-004	-3.27672E+002	7	...........
	569	570	3.52960E+000	8.56011E-007	0.00000E+000	3.02138E-006	0.00000E+000	4.66067E-004	-3.27672E+002	7	...........
	570	571	3.52960E+000	8.56826E-007	0.00000E+000	3.02425E-006	0.00000E+000	4.68633E-004	-3.27672E+002	7	...........
	571	572	3.52960E+000	8.56808E-007	0.00000E+000	3.02419E-006	0.00000E+000	4.65883E-004	-3.27672E+002	7	...........
	572	573	3.52960E+000	8.57607E-007	0.00000E+000	3.02701E-006	0.00000E+000	4.65533E-004	-3.27672E+002	7	...........
	573	574	3.52961E+000	8.56896E-007	0.00000E+000	3.02451E-006	0.00000E+000	4.65717E-004	-3.27672E+002	7	...........
	574	575	3.52960E+000	8.56513E-007	0.00000E+000	3.02315E-006	0.00000E+000	4.65750E-004	-3.27672E+002	7	...........
	575	576	3.52962E+000	8.56181E-007	0.00000E+000	3.02199E-006	0.00000E+000	4.65083E-004	-3.27672E+002	7	...........
	576	577	3.52961E+000	8.56199E-007	0.00000E+000	3.02205E-006	0.00000E+000	4.65617E-004	-3.27672E+002	7	...........
	577	578	3.52961E+000	8.56317E-007	0.00000E+000	3.02246E-006	0.00000E+000	4.66050E-004	-3.27672E+002	7	...........
	578	579	3.52961E+000	8.56136E-007	0.00000E+000	3.02183E-006	0.00000E+000	4.68733E-004	-3.27672E+002	7	...........
	579	580	3.52963E+000	8.57222E-007	0.00000E+000	3.02567E-006	0.00000E+000	4.64283E-004	-3.27672E+002	7	...........
	580	581	3.52962E+000	8.56662E-007	0.00000E+000	3.02369E-006	0.00000E+000	4.68050E-004	-3.27672E+002	7	...........
	581	582	3.52963E+000	8.57123E-007	0.00000E+000	3.02532E-006	0.00000E+000	4.67800E-004	-3.27672E+002	7	...........
	582	583	3.52963E+000	8.56089E-007	0.00000E+000	3.02168E-006	0.00000E+000	4.71550E-004	-3.27672E+002	7	...........
	583	584	3.52963E+000	8.55942E-007	0.00000E+000	3.02116E-006	0.00000E+000	4.71150E-004	-3.27672E+002	7	...........
	584	585	3.52962E+000	8.56341E-007	0.00000E+000	3.02256E-006	0.00000E+000	4.66800E-004	-3.27672E+002	7	...........
	585	586	3.52963E+000	8.55846E-007	0.00000E+000	3.02082E-006	0.00000E+000	4.69250E-004	-3.27672E+002	7	...........
	586	587	3.52963E+000	8.55580E-007	0.00000E+000	3.01989E-006	0.00000E+000	4.67500E-004	-3.27672E+002	7	...........
	587	588	3.52963E+000	8.56321E-007	0.00000E+000	3.02250E-006	0.00000E+000	4.70250E-004	-3.27672E+002	7	...........
	588	589	3.52964E+000	8.56346E-007	0.00000E+000	3.02260E-006	0.00000E+000	4.68750E-004	-3.27672E+002	7	...........
	589	590	3.52964E+000	8.57017E-007	0.00000E+000	3.02496E-006	0.00000E+000	4.70283E-004	-3.27672E+002	7	...........
	590	591	3.52964E+000	8.57123E-007	0.00000E+000	3.02534E-006	0.00000E+000	4.69217E-004	-3.27672E+002	7	...........
	591	592	3.52965E+000	8.56029E-007	0.00000E+000	3.02148E-006	0.00000E+000	4.68217E-004	-3.27672E+002	7	...........
	592	593	3.52965E+000	8.56332E-007	0.00000E+000	3.02256E-006	0.00000E+000	4.67983E-004	-3.27672E+002	7	...........
	593	594	3.52964E+000	8.56114E-007	0.00000E+000	3.02178E-006	0.00000E+000	4.71850E-004	-3.27672E+002	7	...........
	594	595	3.52965E+000	8.56118E-007	0.00000E+000	3.02179E-006	0.00000E+000	4.68983E-004	-3.27672E+002	7	...........
	595	596	3.52965E+000	8.56309E-007	0.00000E+000	3.02247E-006	0.00000E+000	4.69617E-004	-3.27672E+002	7	...........
	596	597	3.52965E+000	8.56688E-007	0.00000E+000	3.02381E-006	0.00000E+000	4.68000E-004	-3.27672E+002	7	...........
	597	598	3.52965E+000	8.56816E-007	0.00000E+000	3.02426E-006	0.00000E+000	4.70033E-004	-3.27672E+002	7	...........
	598	599	3.52965E+000	8.56569E-007	0.00000E+000	3.02339E-006	0.00000E+000	4.64750E-004	-3.27672E+002	7	...........
	599	600	3.52966E+000	8.56480E-007	0.00000E+000	3.02308E-006	0.00000E+000	4.66967E-004	-3.27672E+002	7	...........
