EXPLAIN
TAG	PWR800_READVOLTAGE
TITLE	LABEL	PWR Read Voltage	Test Identifier
DATE	LABEL	2.2.2024	Date
TIME	LABEL	19:33:38	Time
NOTES	NOTES	1	Notes...
	
PSTAT	PSTAT	REF600-12055	Potentiostat
CAPACITY	QUANT	1.00000E+000	Capacity (A-hr)
CELLTYPE	SELECTOR	1	Cell Type
WORKINGCONNECTION	SELECTOR	0	Working Connection
MAXTIME	VARIABLEANDUNITS	6.00000E+002	s	6.00000E+002	second(s)	Max Time
SAMPLETIME	QUANT	1.00000E+000	Sample Period (s)
STOPAT1	MULTIPARAM	0	0.00000E+000	Stop At 1	None	N/A
STOPAT2	MULTIPARAM	0	0.00000E+000	Stop At 2	None	N/A
AESBHCSELECTOR	TOGGLE	F	Save Both Half Cells
EOC	QUANT	3.502425	Open Circuit (V)
SEQUENCER	TOGGLE	TRUE	Run as Sequence
PSTATMODEL	IQUANT	4	Pstat Model
PSTATSECTION	LABEL	REF600-12055	Pstat Section
PSTATSERIALNO	LABEL	12055	Pstat Serial Number
CTRLMODE	IQUANT	0	Control Mode
ELECTROMETER	IQUANT	0	RE=0 or CS=1
IESTAB	IQUANT	0	I/E Stability
CASPEED	IQUANT	4	Control Amp Speed
CONVENTION	IQUANT	1	Current Convention
ICHRANGE	IQUANT	2	Ich Range
ICHRANGEMODE	TOGGLE	T	Ich Auto Range
ICHOFFSETENABLE	TOGGLE	F	Ich Offset Enable
ICHOFFSET	QUANT	0	Ich Offset (V)
ICHFILTER	IQUANT	1	Ich Filter
VCHRANGE	IQUANT	3	Vch Range
VCHRANGEMODE	TOGGLE	T	Vch Auto Range
VCHOFFSETENABLE	TOGGLE	F	Vch Offset Enable
VCHOFFSET	QUANT	0	Vch Offset (V)
VCHFILTER	IQUANT	1	Vch Filter
ACHRANGE	IQUANT	2	Ach Range
ACHOFFSETENABLE	TOGGLE	F	Ach Offset Enable
ACHOFFSET	QUANT	0	Ach Offset (V)
ACHFILTER	IQUANT	1	Ach Filter
IERANGELOWERLIMIT	IQUANT	7	I/E Range Lower Limit
IERANGEMODE	TOGGLE	F	I/E AutoRange
IERANGE	IQUANT	11	I/E Range
POSFEEDENABLE	TOGGLE	F	Positive Feedback IR Comp
POSFEEDRESISTANCE	QUANT	0	Positive Feedback Resistance (ohm)
ACHSELECT	IQUANT	4	Ach Select
SENSECABLEID	IQUANT	14	Sense Cable ID
PWRCABLEID	IQUANT	14	Power Cable ID
DCCALDATE	LABEL		DC Calibration Date
ACCALDATE	LABEL		AC Calibration Date
THERMOSELECT	IQUANT	1	Thermo Select
FRAMEWORKVERSION	LABEL	7.10.3	Framework Version
INSTRUMENTVERSION	LABEL	4.91	Instrument Version
COMMVERSION	LABEL	2.24	Communications Version
CPUPLDVERSION	LABEL	0.00	CPU PLD Version
CTRLPLDVERSION	LABEL	0.00	CTRL PLD Version
PSTATPLDVERSION	LABEL	0.00	PSTAT PLD Version
CURVE	TABLE	600
	Pt	T	Vf	Im	Vu	Pwr	Sig	Ach	Temp	IERange	Over
	#	s	V	A	V	W	V	V	deg C	#	bits
	0	1	3.58072E+000	-5.76401E-007	0.00000E+000	-2.06393E-006	0.00000E+000	7.19300E-004	-3.27672E+002	7	...........
	1	2	3.58053E+000	-5.75078E-007	0.00000E+000	-2.05908E-006	0.00000E+000	7.17667E-004	-3.27672E+002	7	...........
	2	3	3.58036E+000	-5.74514E-007	0.00000E+000	-2.05697E-006	0.00000E+000	7.17733E-004	-3.27672E+002	7	...........
	3	4	3.58022E+000	-5.74555E-007	0.00000E+000	-2.05703E-006	0.00000E+000	7.16533E-004	-3.27672E+002	7	...........
	4	5	3.58011E+000	-5.74382E-007	0.00000E+000	-2.05635E-006	0.00000E+000	7.17517E-004	-3.27672E+002	7	...........
	5	6	3.58000E+000	-5.74800E-007	0.00000E+000	-2.05779E-006	0.00000E+000	7.18283E-004	-3.27672E+002	7	...........
	6	7	3.57990E+000	-5.74089E-007	0.00000E+000	-2.05518E-006	0.00000E+000	7.17767E-004	-3.27672E+002	7	...........
	7	8	3.57981E+000	-5.73961E-007	0.00000E+000	-2.05467E-006	0.00000E+000	7.19700E-004	-3.27672E+002	7	...........
	8	9	3.57971E+000	-5.74039E-007	0.00000E+000	-2.05489E-006	0.00000E+000	7.13500E-004	-3.27672E+002	7	...........
	9	10	3.57964E+000	-5.74322E-007	0.00000E+000	-2.05586E-006	0.00000E+000	7.15917E-004	-3.27672E+002	7	...........
	10	11	3.57957E+000	-5.74182E-007	0.00000E+000	-2.05533E-006	0.00000E+000	7.17067E-004	-3.27672E+002	7	...........
	11	12	3.57950E+000	-5.73855E-007	0.00000E+000	-2.05412E-006	0.00000E+000	7.14450E-004	-3.27672E+002	7	...........
	12	13	3.57944E+000	-5.73854E-007	0.00000E+000	-2.05407E-006	0.00000E+000	7.13617E-004	-3.27672E+002	7	...........
	13	14	3.57937E+000	-5.74273E-007	0.00000E+000	-2.05554E-006	0.00000E+000	7.17033E-004	-3.27672E+002	7	...........
	14	15	3.57931E+000	-5.74078E-007	0.00000E+000	-2.05480E-006	0.00000E+000	7.17717E-004	-3.27672E+002	7	...........
	15	16	3.57924E+000	-5.73332E-007	0.00000E+000	-2.05209E-006	0.00000E+000	7.16433E-004	-3.27672E+002	7	...........
	16	17	3.57918E+000	-5.73827E-007	0.00000E+000	-2.05383E-006	0.00000E+000	7.16000E-004	-3.27672E+002	7	...........
	17	18	3.57910E+000	-5.73890E-007	0.00000E+000	-2.05401E-006	0.00000E+000	7.16250E-004	-3.27672E+002	7	...........
	18	19	3.57905E+000	-5.73810E-007	0.00000E+000	-2.05369E-006	0.00000E+000	7.12700E-004	-3.27672E+002	7	...........
	19	20	3.57898E+000	-5.73967E-007	0.00000E+000	-2.05421E-006	0.00000E+000	7.14650E-004	-3.27672E+002	7	...........
	20	21	3.57892E+000	-5.73893E-007	0.00000E+000	-2.05392E-006	0.00000E+000	5.32133E-004	-3.27672E+002	7	...........
	21	22	3.57885E+000	-5.73923E-007	0.00000E+000	-2.05399E-006	0.00000E+000	4.45283E-004	-3.27672E+002	7	...........
	22	23	3.57879E+000	-5.74519E-007	0.00000E+000	-2.05608E-006	0.00000E+000	4.45783E-004	-3.27672E+002	7	...........
	23	24	3.57873E+000	-5.74777E-007	0.00000E+000	-2.05697E-006	0.00000E+000	4.46333E-004	-3.27672E+002	7	...........
	24	25	3.57866E+000	-5.74265E-007	0.00000E+000	-2.05510E-006	0.00000E+000	4.45333E-004	-3.27672E+002	7	...........
	25	26	3.57860E+000	-5.73601E-007	0.00000E+000	-2.05269E-006	0.00000E+000	4.44400E-004	-3.27672E+002	7	...........
	26	27	3.57854E+000	-5.73548E-007	0.00000E+000	-2.05247E-006	0.00000E+000	4.47300E-004	-3.27672E+002	7	...........
	27	28	3.57847E+000	-5.73761E-007	0.00000E+000	-2.05319E-006	0.00000E+000	4.46250E-004	-3.27672E+002	7	...........
	28	29	3.57841E+000	-5.73744E-007	0.00000E+000	-2.05309E-006	0.00000E+000	4.47517E-004	-3.27672E+002	7	...........
	29	30	3.57834E+000	-5.73104E-007	0.00000E+000	-2.05076E-006	0.00000E+000	4.46150E-004	-3.27672E+002	7	...........
	30	31	3.57827E+000	-5.72811E-007	0.00000E+000	-2.04967E-006	0.00000E+000	4.47133E-004	-3.27672E+002	7	...........
	31	32	3.57820E+000	-5.73089E-007	0.00000E+000	-2.05063E-006	0.00000E+000	4.49750E-004	-3.27672E+002	7	...........
	32	33	3.57815E+000	-5.73067E-007	0.00000E+000	-2.05052E-006	0.00000E+000	4.48667E-004	-3.27672E+002	7	...........
	33	34	3.57809E+000	-5.72461E-007	0.00000E+000	-2.04832E-006	0.00000E+000	4.46850E-004	-3.27672E+002	7	...........
	34	35	3.57803E+000	-5.72807E-007	0.00000E+000	-2.04952E-006	0.00000E+000	4.48833E-004	-3.27672E+002	7	...........
	35	36	3.57797E+000	-5.73285E-007	0.00000E+000	-2.05119E-006	0.00000E+000	4.46883E-004	-3.27672E+002	7	...........
	36	37	3.57792E+000	-5.73611E-007	0.00000E+000	-2.05234E-006	0.00000E+000	4.44650E-004	-3.27672E+002	7	...........
	37	38	3.57787E+000	-5.73453E-007	0.00000E+000	-2.05174E-006	0.00000E+000	4.44850E-004	-3.27672E+002	7	...........
	38	39	3.57783E+000	-5.73447E-007	0.00000E+000	-2.05170E-006	0.00000E+000	4.44083E-004	-3.27672E+002	7	...........
	39	40	3.57779E+000	-5.73397E-007	0.00000E+000	-2.05149E-006	0.00000E+000	4.45983E-004	-3.27672E+002	7	...........
	40	41	3.57775E+000	-5.73379E-007	0.00000E+000	-2.05141E-006	0.00000E+000	4.44433E-004	-3.27672E+002	7	...........
	41	42	3.57772E+000	-5.72166E-007	0.00000E+000	-2.04705E-006	0.00000E+000	4.44117E-004	-3.27672E+002	7	...........
	42	43	3.57768E+000	-5.71674E-007	0.00000E+000	-2.04527E-006	0.00000E+000	4.43300E-004	-3.27672E+002	7	...........
	43	44	3.57765E+000	-5.71504E-007	0.00000E+000	-2.04464E-006	0.00000E+000	4.43583E-004	-3.27672E+002	7	...........
	44	45	3.57762E+000	-5.72190E-007	0.00000E+000	-2.04708E-006	0.00000E+000	4.41817E-004	-3.27672E+002	7	...........
	45	46	3.57760E+000	-5.72205E-007	0.00000E+000	-2.04712E-006	0.00000E+000	4.41000E-004	-3.27672E+002	7	...........
	46	47	3.57757E+000	-5.71998E-007	0.00000E+000	-2.04636E-006	0.00000E+000	4.38683E-004	-3.27672E+002	7	...........
	47	48	3.57755E+000	-5.71806E-007	0.00000E+000	-2.04566E-006	0.00000E+000	4.39183E-004	-3.27672E+002	7	...........
	48	49	3.57753E+000	-5.71546E-007	0.00000E+000	-2.04472E-006	0.00000E+000	4.37800E-004	-3.27672E+002	7	...........
	49	50	3.57751E+000	-5.71703E-007	0.00000E+000	-2.04527E-006	0.00000E+000	4.36133E-004	-3.27672E+002	7	...........
	50	51	3.57749E+000	-5.71182E-007	0.00000E+000	-2.04340E-006	0.00000E+000	4.34683E-004	-3.27672E+002	7	...........
	51	52	3.57746E+000	-5.70951E-007	0.00000E+000	-2.04256E-006	0.00000E+000	4.35483E-004	-3.27672E+002	7	...........
	52	53	3.57745E+000	-5.71415E-007	0.00000E+000	-2.04421E-006	0.00000E+000	4.35483E-004	-3.27672E+002	7	...........
	53	54	3.57743E+000	-5.70490E-007	0.00000E+000	-2.04089E-006	0.00000E+000	4.35500E-004	-3.27672E+002	7	...........
	54	55	3.57740E+000	-5.71185E-007	0.00000E+000	-2.04336E-006	0.00000E+000	4.35117E-004	-3.27672E+002	7	...........
	55	56	3.57739E+000	-5.70269E-007	0.00000E+000	-2.04007E-006	0.00000E+000	4.31250E-004	-3.27672E+002	7	...........
	56	57	3.57736E+000	-5.70394E-007	0.00000E+000	-2.04051E-006	0.00000E+000	4.33433E-004	-3.27672E+002	7	...........
	57	58	3.57735E+000	-5.70369E-007	0.00000E+000	-2.04041E-006	0.00000E+000	4.33300E-004	-3.27672E+002	7	...........
	58	59	3.57733E+000	-5.69418E-007	0.00000E+000	-2.03699E-006	0.00000E+000	4.36017E-004	-3.27672E+002	7	...........
	59	60	3.57731E+000	-5.70319E-007	0.00000E+000	-2.04021E-006	0.00000E+000	4.35083E-004	-3.27672E+002	7	...........
	60	61	3.57729E+000	-5.69201E-007	0.00000E+000	-2.03620E-006	0.00000E+000	4.34283E-004	-3.27672E+002	7	...........
	61	62	3.57727E+000	-5.69467E-007	0.00000E+000	-2.03714E-006	0.00000E+000	4.35300E-004	-3.27672E+002	7	...........
	62	63	3.57725E+000	-5.69677E-007	0.00000E+000	-2.03787E-006	0.00000E+000	4.35483E-004	-3.27672E+002	7	...........
	63	64	3.57722E+000	-5.69928E-007	0.00000E+000	-2.03876E-006	0.00000E+000	4.35467E-004	-3.27672E+002	7	...........
	64	65	3.57720E+000	-5.69855E-007	0.00000E+000	-2.03849E-006	0.00000E+000	4.33667E-004	-3.27672E+002	7	...........
	65	66	3.57719E+000	-5.69369E-007	0.00000E+000	-2.03674E-006	0.00000E+000	4.31850E-004	-3.27672E+002	7	...........
	66	67	3.57717E+000	-5.69727E-007	0.00000E+000	-2.03801E-006	0.00000E+000	4.33783E-004	-3.27672E+002	7	...........
	67	68	3.57715E+000	-5.69242E-007	0.00000E+000	-2.03626E-006	0.00000E+000	4.32650E-004	-3.27672E+002	7	...........
	68	69	3.57713E+000	-5.69279E-007	0.00000E+000	-2.03639E-006	0.00000E+000	4.32067E-004	-3.27672E+002	7	...........
	69	70	3.57710E+000	-5.69804E-007	0.00000E+000	-2.03825E-006	0.00000E+000	4.32500E-004	-3.27672E+002	7	...........
	70	71	3.57708E+000	-5.69680E-007	0.00000E+000	-2.03779E-006	0.00000E+000	4.34633E-004	-3.27672E+002	7	...........
	71	72	3.57706E+000	-5.68828E-007	0.00000E+000	-2.03473E-006	0.00000E+000	4.31600E-004	-3.27672E+002	7	...........
	72	73	3.57704E+000	-5.69164E-007	0.00000E+000	-2.03592E-006	0.00000E+000	4.31667E-004	-3.27672E+002	7	...........
	73	74	3.57702E+000	-5.68939E-007	0.00000E+000	-2.03511E-006	0.00000E+000	4.30100E-004	-3.27672E+002	7	...........
	74	75	3.57699E+000	-5.69239E-007	0.00000E+000	-2.03616E-006	0.00000E+000	4.31233E-004	-3.27672E+002	7	...........
	75	76	3.57697E+000	-5.68754E-007	0.00000E+000	-2.03442E-006	0.00000E+000	4.32500E-004	-3.27672E+002	7	...........
	76	77	3.57695E+000	-5.68146E-007	0.00000E+000	-2.03223E-006	0.00000E+000	4.34850E-004	-3.27672E+002	7	...........
	77	78	3.57693E+000	-5.67584E-007	0.00000E+000	-2.03021E-006	0.00000E+000	4.32117E-004	-3.27672E+002	7	...........
	78	79	3.57691E+000	-5.69017E-007	0.00000E+000	-2.03532E-006	0.00000E+000	4.34283E-004	-3.27672E+002	7	...........
	79	80	3.57689E+000	-5.68741E-007	0.00000E+000	-2.03432E-006	0.00000E+000	4.35317E-004	-3.27672E+002	7	...........
	80	81	3.57687E+000	-5.68227E-007	0.00000E+000	-2.03248E-006	0.00000E+000	4.33050E-004	-3.27672E+002	7	...........
	81	82	3.57685E+000	-5.67988E-007	0.00000E+000	-2.03161E-006	0.00000E+000	4.33250E-004	-3.27672E+002	7	...........
	82	83	3.57683E+000	-5.67739E-007	0.00000E+000	-2.03071E-006	0.00000E+000	4.33017E-004	-3.27672E+002	7	...........
	83	84	3.57681E+000	-5.67789E-007	0.00000E+000	-2.03087E-006	0.00000E+000	4.32333E-004	-3.27672E+002	7	...........
	84	85	3.57679E+000	-5.67628E-007	0.00000E+000	-2.03029E-006	0.00000E+000	4.33283E-004	-3.27672E+002	7	...........
	85	86	3.57677E+000	-5.67280E-007	0.00000E+000	-2.02903E-006	0.00000E+000	4.30550E-004	-3.27672E+002	7	...........
	86	87	3.57675E+000	-5.67565E-007	0.00000E+000	-2.03004E-006	0.00000E+000	4.29967E-004	-3.27672E+002	7	...........
	87	88	3.57672E+000	-5.68238E-007	0.00000E+000	-2.03243E-006	0.00000E+000	4.31700E-004	-3.27672E+002	7	...........
	88	89	3.57670E+000	-5.67222E-007	0.00000E+000	-2.02879E-006	0.00000E+000	4.34067E-004	-3.27672E+002	7	...........
	89	90	3.57668E+000	-5.67349E-007	0.00000E+000	-2.02922E-006	0.00000E+000	4.32650E-004	-3.27672E+002	7	...........
	90	91	3.57666E+000	-5.67409E-007	0.00000E+000	-2.02943E-006	0.00000E+000	4.33267E-004	-3.27672E+002	7	...........
	91	92	3.57665E+000	-5.67009E-007	0.00000E+000	-2.02799E-006	0.00000E+000	4.30683E-004	-3.27672E+002	7	...........
	92	93	3.57663E+000	-5.67096E-007	0.00000E+000	-2.02829E-006	0.00000E+000	4.33617E-004	-3.27672E+002	7	...........
	93	94	3.57660E+000	-5.66922E-007	0.00000E+000	-2.02765E-006	0.00000E+000	4.36067E-004	-3.27672E+002	7	...........
	94	95	3.57659E+000	-5.66700E-007	0.00000E+000	-2.02685E-006	0.00000E+000	4.32167E-004	-3.27672E+002	7	...........
	95	96	3.57657E+000	-5.66580E-007	0.00000E+000	-2.02641E-006	0.00000E+000	4.31400E-004	-3.27672E+002	7	...........
	96	97	3.57656E+000	-5.66769E-007	0.00000E+000	-2.02708E-006	0.00000E+000	4.31600E-004	-3.27672E+002	7	...........
	97	98	3.57653E+000	-5.65716E-007	0.00000E+000	-2.02330E-006	0.00000E+000	4.31233E-004	-3.27672E+002	7	...........
	98	99	3.57652E+000	-5.65875E-007	0.00000E+000	-2.02386E-006	0.00000E+000	4.32133E-004	-3.27672E+002	7	...........
	99	100	3.57650E+000	-5.65803E-007	0.00000E+000	-2.02360E-006	0.00000E+000	4.28733E-004	-3.27672E+002	7	...........
	100	101	3.57648E+000	-5.64936E-007	0.00000E+000	-2.02048E-006	0.00000E+000	4.31317E-004	-3.27672E+002	7	...........
	101	102	3.57646E+000	-5.64967E-007	0.00000E+000	-2.02058E-006	0.00000E+000	4.28983E-004	-3.27672E+002	7	...........
	102	103	3.57645E+000	-5.64323E-007	0.00000E+000	-2.01827E-006	0.00000E+000	4.28450E-004	-3.27672E+002	7	...........
	103	104	3.57643E+000	-5.64864E-007	0.00000E+000	-2.02020E-006	0.00000E+000	4.30067E-004	-3.27672E+002	7	...........
	104	105	3.57642E+000	-5.64828E-007	0.00000E+000	-2.02006E-006	0.00000E+000	4.30767E-004	-3.27672E+002	7	...........
	105	106	3.57640E+000	-5.65130E-007	0.00000E+000	-2.02113E-006	0.00000E+000	4.32483E-004	-3.27672E+002	7	...........
	106	107	3.57639E+000	-5.64947E-007	0.00000E+000	-2.02047E-006	0.00000E+000	4.29133E-004	-3.27672E+002	7	...........
	107	108	3.57637E+000	-5.65529E-007	0.00000E+000	-2.02254E-006	0.00000E+000	4.30483E-004	-3.27672E+002	7	...........
	108	109	3.57636E+000	-5.64867E-007	0.00000E+000	-2.02017E-006	0.00000E+000	4.29017E-004	-3.27672E+002	7	...........
	109	110	3.57634E+000	-5.63702E-007	0.00000E+000	-2.01599E-006	0.00000E+000	4.31717E-004	-3.27672E+002	7	...........
	110	111	3.57633E+000	-5.63449E-007	0.00000E+000	-2.01508E-006	0.00000E+000	4.29400E-004	-3.27672E+002	7	...........
	111	112	3.57632E+000	-5.64304E-007	0.00000E+000	-2.01813E-006	0.00000E+000	4.30517E-004	-3.27672E+002	7	...........
	112	113	3.57630E+000	-5.64303E-007	0.00000E+000	-2.01812E-006	0.00000E+000	4.30600E-004	-3.27672E+002	7	...........
	113	114	3.57629E+000	-5.64630E-007	0.00000E+000	-2.01928E-006	0.00000E+000	4.33633E-004	-3.27672E+002	7	...........
	114	115	3.57628E+000	-5.64314E-007	0.00000E+000	-2.01814E-006	0.00000E+000	4.30250E-004	-3.27672E+002	7	...........
	115	116	3.57626E+000	-5.64182E-007	0.00000E+000	-2.01766E-006	0.00000E+000	4.30267E-004	-3.27672E+002	7	...........
	116	117	3.57625E+000	-5.64380E-007	0.00000E+000	-2.01836E-006	0.00000E+000	4.33117E-004	-3.27672E+002	7	...........
	117	118	3.57623E+000	-5.64012E-007	0.00000E+000	-2.01704E-006	0.00000E+000	4.32650E-004	-3.27672E+002	7	...........
	118	119	3.57622E+000	-5.64259E-007	0.00000E+000	-2.01791E-006	0.00000E+000	4.31417E-004	-3.27672E+002	7	...........
	119	120	3.57620E+000	-5.64382E-007	0.00000E+000	-2.01834E-006	0.00000E+000	4.30500E-004	-3.27672E+002	7	...........
	120	121	3.57618E+000	-5.64056E-007	0.00000E+000	-2.01717E-006	0.00000E+000	4.28483E-004	-3.27672E+002	7	...........
	121	122	3.57618E+000	-5.63941E-007	0.00000E+000	-2.01675E-006	0.00000E+000	4.28517E-004	-3.27672E+002	7	...........
	122	123	3.57617E+000	-5.64096E-007	0.00000E+000	-2.01730E-006	0.00000E+000	4.31883E-004	-3.27672E+002	7	...........
	123	124	3.57616E+000	-5.64003E-007	0.00000E+000	-2.01696E-006	0.00000E+000	4.30700E-004	-3.27672E+002	7	...........
	124	125	3.57615E+000	-5.63302E-007	0.00000E+000	-2.01445E-006	0.00000E+000	4.29533E-004	-3.27672E+002	7	...........
	125	126	3.57614E+000	-5.62616E-007	0.00000E+000	-2.01199E-006	0.00000E+000	4.30450E-004	-3.27672E+002	7	...........
	126	127	3.57612E+000	-5.63063E-007	0.00000E+000	-2.01358E-006	0.00000E+000	4.35200E-004	-3.27672E+002	7	...........
	127	128	3.57610E+000	-5.63406E-007	0.00000E+000	-2.01479E-006	0.00000E+000	4.33967E-004	-3.27672E+002	7	...........
	128	129	3.57610E+000	-5.63132E-007	0.00000E+000	-2.01381E-006	0.00000E+000	4.31550E-004	-3.27672E+002	7	...........
	129	130	3.57609E+000	-5.63053E-007	0.00000E+000	-2.01352E-006	0.00000E+000	4.31167E-004	-3.27672E+002	7	...........
	130	131	3.57607E+000	-5.62980E-007	0.00000E+000	-2.01325E-006	0.00000E+000	4.32433E-004	-3.27672E+002	7	...........
	131	132	3.57606E+000	-5.63280E-007	0.00000E+000	-2.01432E-006	0.00000E+000	4.32433E-004	-3.27672E+002	7	...........
	132	133	3.57604E+000	-5.63423E-007	0.00000E+000	-2.01482E-006	0.00000E+000	4.33133E-004	-3.27672E+002	7	...........
	133	134	3.57603E+000	-5.62589E-007	0.00000E+000	-2.01183E-006	0.00000E+000	4.31533E-004	-3.27672E+002	7	...........
	134	135	3.57602E+000	-5.62450E-007	0.00000E+000	-2.01133E-006	0.00000E+000	4.32217E-004	-3.27672E+002	7	...........
	135	136	3.57601E+000	-5.62656E-007	0.00000E+000	-2.01206E-006	0.00000E+000	4.30967E-004	-3.27672E+002	7	...........
	136	137	3.57600E+000	-5.62832E-007	0.00000E+000	-2.01269E-006	0.00000E+000	4.30917E-004	-3.27672E+002	7	...........
	137	138	3.57598E+000	-5.62850E-007	0.00000E+000	-2.01274E-006	0.00000E+000	4.32800E-004	-3.27672E+002	7	...........
	138	139	3.57597E+000	-5.62510E-007	0.00000E+000	-2.01152E-006	0.00000E+000	4.30050E-004	-3.27672E+002	7	...........
	139	140	3.57596E+000	-5.62836E-007	0.00000E+000	-2.01268E-006	0.00000E+000	4.32033E-004	-3.27672E+002	7	...........
	140	141	3.57594E+000	-5.62855E-007	0.00000E+000	-2.01274E-006	0.00000E+000	4.34050E-004	-3.27672E+002	7	...........
	141	142	3.57593E+000	-5.62814E-007	0.00000E+000	-2.01258E-006	0.00000E+000	4.33783E-004	-3.27672E+002	7	...........
	142	143	3.57592E+000	-5.62456E-007	0.00000E+000	-2.01130E-006	0.00000E+000	4.32117E-004	-3.27672E+002	7	...........
	143	144	3.57591E+000	-5.62112E-007	0.00000E+000	-2.01006E-006	0.00000E+000	4.35083E-004	-3.27672E+002	7	...........
	144	145	3.57590E+000	-5.62805E-007	0.00000E+000	-2.01253E-006	0.00000E+000	4.33233E-004	-3.27672E+002	7	...........
	145	146	3.57589E+000	-5.63131E-007	0.00000E+000	-2.01370E-006	0.00000E+000	4.34967E-004	-3.27672E+002	7	...........
	146	147	3.57588E+000	-5.62822E-007	0.00000E+000	-2.01258E-006	0.00000E+000	4.30967E-004	-3.27672E+002	7	...........
	147	148	3.57587E+000	-5.62387E-007	0.00000E+000	-2.01102E-006	0.00000E+000	4.33683E-004	-3.27672E+002	7	...........
	148	149	3.57585E+000	-5.61913E-007	0.00000E+000	-2.00932E-006	0.00000E+000	4.35117E-004	-3.27672E+002	7	...........
	149	150	3.57583E+000	-5.61518E-007	0.00000E+000	-2.00789E-006	0.00000E+000	4.33467E-004	-3.27672E+002	7	...........
	150	151	3.57582E+000	-5.62431E-007	0.00000E+000	-2.01115E-006	0.00000E+000	4.34950E-004	-3.27672E+002	7	...........
	151	152	3.57582E+000	-5.61492E-007	0.00000E+000	-2.00779E-006	0.00000E+000	4.31917E-004	-3.27672E+002	7	...........
	152	153	3.57580E+000	-5.62913E-007	0.00000E+000	-2.01286E-006	0.00000E+000	4.34667E-004	-3.27672E+002	7	...........
	153	154	3.57579E+000	-5.63299E-007	0.00000E+000	-2.01424E-006	0.00000E+000	4.35583E-004	-3.27672E+002	7	...........
	154	155	3.57578E+000	-5.62535E-007	0.00000E+000	-2.01150E-006	0.00000E+000	4.35233E-004	-3.27672E+002	7	...........
	155	156	3.57576E+000	-5.63000E-007	0.00000E+000	-2.01316E-006	0.00000E+000	4.34733E-004	-3.27672E+002	7	...........
	156	157	3.57575E+000	-5.62766E-007	0.00000E+000	-2.01231E-006	0.00000E+000	4.34700E-004	-3.27672E+002	7	...........
	157	158	3.57574E+000	-5.63199E-007	0.00000E+000	-2.01385E-006	0.00000E+000	4.36000E-004	-3.27672E+002	7	...........
	158	159	3.57572E+000	-5.61953E-007	0.00000E+000	-2.00939E-006	0.00000E+000	4.36000E-004	-3.27672E+002	7	...........
	159	160	3.57571E+000	-5.62274E-007	0.00000E+000	-2.01053E-006	0.00000E+000	4.36933E-004	-3.27672E+002	7	...........
	160	161	3.57570E+000	-5.61652E-007	0.00000E+000	-2.00830E-006	0.00000E+000	4.37783E-004	-3.27672E+002	7	...........
	161	162	3.57569E+000	-5.63028E-007	0.00000E+000	-2.01321E-006	0.00000E+000	4.38417E-004	-3.27672E+002	7	...........
	162	163	3.57568E+000	-5.63383E-007	0.00000E+000	-2.01448E-006	0.00000E+000	4.38250E-004	-3.27672E+002	7	...........
	163	164	3.57566E+000	-5.62587E-007	0.00000E+000	-2.01162E-006	0.00000E+000	4.40233E-004	-3.27672E+002	7	...........
	164	165	3.57566E+000	-5.62596E-007	0.00000E+000	-2.01165E-006	0.00000E+000	4.39017E-004	-3.27672E+002	7	...........
	165	166	3.57565E+000	-5.62050E-007	0.00000E+000	-2.00969E-006	0.00000E+000	4.38850E-004	-3.27672E+002	7	...........
	166	167	3.57563E+000	-5.61945E-007	0.00000E+000	-2.00931E-006	0.00000E+000	4.39300E-004	-3.27672E+002	7	...........
	167	168	3.57563E+000	-5.62133E-007	0.00000E+000	-2.00998E-006	0.00000E+000	4.39850E-004	-3.27672E+002	7	...........
	168	169	3.57560E+000	-5.61834E-007	0.00000E+000	-2.00889E-006	0.00000E+000	4.39133E-004	-3.27672E+002	7	...........
	169	170	3.57561E+000	-5.61424E-007	0.00000E+000	-2.00743E-006	0.00000E+000	4.38500E-004	-3.27672E+002	7	...........
	170	171	3.57559E+000	-5.61727E-007	0.00000E+000	-2.00850E-006	0.00000E+000	4.39800E-004	-3.27672E+002	7	...........
	171	172	3.57558E+000	-5.62337E-007	0.00000E+000	-2.01068E-006	0.00000E+000	4.38400E-004	-3.27672E+002	7	...........
	172	173	3.57557E+000	-5.61999E-007	0.00000E+000	-2.00947E-006	0.00000E+000	4.40650E-004	-3.27672E+002	7	...........
	173	174	3.57557E+000	-5.62037E-007	0.00000E+000	-2.00960E-006	0.00000E+000	4.40300E-004	-3.27672E+002	7	...........
	174	175	3.57555E+000	-5.61500E-007	0.00000E+000	-2.00767E-006	0.00000E+000	4.39667E-004	-3.27672E+002	7	...........
	175	176	3.57554E+000	-5.61956E-007	0.00000E+000	-2.00930E-006	0.00000E+000	4.40183E-004	-3.27672E+002	7	...........
	176	177	3.57553E+000	-5.61836E-007	0.00000E+000	-2.00886E-006	0.00000E+000	4.42317E-004	-3.27672E+002	7	...........
	177	178	3.57551E+000	-5.61609E-007	0.00000E+000	-2.00804E-006	0.00000E+000	4.41500E-004	-3.27672E+002	7	...........
	178	179	3.57552E+000	-5.61024E-007	0.00000E+000	-2.00595E-006	0.00000E+000	4.42383E-004	-3.27672E+002	7	...........
	179	180	3.57550E+000	-5.61456E-007	0.00000E+000	-2.00748E-006	0.00000E+000	4.40817E-004	-3.27672E+002	7	...........
	180	181	3.57548E+000	-5.60502E-007	0.00000E+000	-2.00406E-006	0.00000E+000	4.43583E-004	-3.27672E+002	7	...........
	181	182	3.57547E+000	-5.60409E-007	0.00000E+000	-2.00372E-006	0.00000E+000	4.42900E-004	-3.27672E+002	7	...........
	182	183	3.57545E+000	-5.60834E-007	0.00000E+000	-2.00523E-006	0.00000E+000	4.40517E-004	-3.27672E+002	7	...........
	183	184	3.57544E+000	-5.62068E-007	0.00000E+000	-2.00964E-006	0.00000E+000	4.41100E-004	-3.27672E+002	7	...........
	184	185	3.57544E+000	-5.61001E-007	0.00000E+000	-2.00582E-006	0.00000E+000	4.40183E-004	-3.27672E+002	7	...........
	185	186	3.57543E+000	-5.60844E-007	0.00000E+000	-2.00526E-006	0.00000E+000	4.44783E-004	-3.27672E+002	7	...........
	186	187	3.57542E+000	-5.61120E-007	0.00000E+000	-2.00624E-006	0.00000E+000	4.43083E-004	-3.27672E+002	7	...........
	187	188	3.57540E+000	-5.60825E-007	0.00000E+000	-2.00517E-006	0.00000E+000	4.43067E-004	-3.27672E+002	7	...........
	188	189	3.57540E+000	-5.61259E-007	0.00000E+000	-2.00672E-006	0.00000E+000	4.42717E-004	-3.27672E+002	7	...........
	189	190	3.57539E+000	-5.61342E-007	0.00000E+000	-2.00702E-006	0.00000E+000	4.44683E-004	-3.27672E+002	7	...........
	190	191	3.57538E+000	-5.60840E-007	0.00000E+000	-2.00522E-006	0.00000E+000	4.41533E-004	-3.27672E+002	7	...........
	191	192	3.57536E+000	-5.61461E-007	0.00000E+000	-2.00743E-006	0.00000E+000	4.42000E-004	-3.27672E+002	7	...........
	192	193	3.57536E+000	-5.60649E-007	0.00000E+000	-2.00452E-006	0.00000E+000	4.45417E-004	-3.27672E+002	7	...........
	193	194	3.57536E+000	-5.61437E-007	0.00000E+000	-2.00734E-006	0.00000E+000	4.46050E-004	-3.27672E+002	7	...........
	194	195	3.57534E+000	-5.61771E-007	0.00000E+000	-2.00852E-006	0.00000E+000	4.43333E-004	-3.27672E+002	7	...........
	195	196	3.57533E+000	-5.61658E-007	0.00000E+000	-2.00811E-006	0.00000E+000	4.44283E-004	-3.27672E+002	7	...........
	196	197	3.57531E+000	-5.60937E-007	0.00000E+000	-2.00552E-006	0.00000E+000	4.45050E-004	-3.27672E+002	7	...........
	197	198	3.57531E+000	-5.61417E-007	0.00000E+000	-2.00724E-006	0.00000E+000	4.46367E-004	-3.27672E+002	7	...........
	198	199	3.57530E+000	-5.61533E-007	0.00000E+000	-2.00765E-006	0.00000E+000	4.44283E-004	-3.27672E+002	7	...........
	199	200	3.57530E+000	-5.60693E-007	0.00000E+000	-2.00464E-006	0.00000E+000	4.48367E-004	-3.27672E+002	7	...........
	200	201	3.57529E+000	-5.61194E-007	0.00000E+000	-2.00643E-006	0.00000E+000	4.47233E-004	-3.27672E+002	7	...........
	201	202	3.57528E+000	-5.61548E-007	0.00000E+000	-2.00769E-006	0.00000E+000	4.46517E-004	-3.27672E+002	7	...........
	202	203	3.57526E+000	-5.61304E-007	0.00000E+000	-2.00681E-006	0.00000E+000	4.49950E-004	-3.27672E+002	7	...........
	203	204	3.57527E+000	-5.61215E-007	0.00000E+000	-2.00649E-006	0.00000E+000	4.49400E-004	-3.27672E+002	7	...........
	204	205	3.57525E+000	-5.61539E-007	0.00000E+000	-2.00764E-006	0.00000E+000	4.48917E-004	-3.27672E+002	7	...........
	205	206	3.57524E+000	-5.61333E-007	0.00000E+000	-2.00690E-006	0.00000E+000	4.49567E-004	-3.27672E+002	7	...........
	206	207	3.57523E+000	-5.61637E-007	0.00000E+000	-2.00798E-006	0.00000E+000	4.50267E-004	-3.27672E+002	7	...........
	207	208	3.57522E+000	-5.61064E-007	0.00000E+000	-2.00593E-006	0.00000E+000	4.47333E-004	-3.27672E+002	7	...........
	208	209	3.57521E+000	-5.60735E-007	0.00000E+000	-2.00474E-006	0.00000E+000	4.47600E-004	-3.27672E+002	7	...........
	209	210	3.57519E+000	-5.60255E-007	0.00000E+000	-2.00302E-006	0.00000E+000	4.50117E-004	-3.27672E+002	7	...........
	210	211	3.57519E+000	-5.60437E-007	0.00000E+000	-2.00367E-006	0.00000E+000	4.48650E-004	-3.27672E+002	7	...........
	211	212	3.57517E+000	-5.60858E-007	0.00000E+000	-2.00517E-006	0.00000E+000	4.47950E-004	-3.27672E+002	7	...........
	212	213	3.57517E+000	-5.60608E-007	0.00000E+000	-2.00427E-006	0.00000E+000	4.49167E-004	-3.27672E+002	7	...........
	213	214	3.57516E+000	-5.60292E-007	0.00000E+000	-2.00314E-006	0.00000E+000	4.48533E-004	-3.27672E+002	7	...........
	214	215	3.57517E+000	-5.60218E-007	0.00000E+000	-2.00287E-006	0.00000E+000	4.49467E-004	-3.27672E+002	7	...........
	215	216	3.57515E+000	-5.59738E-007	0.00000E+000	-2.00115E-006	0.00000E+000	4.51967E-004	-3.27672E+002	7	...........
	216	217	3.57514E+000	-5.59825E-007	0.00000E+000	-2.00145E-006	0.00000E+000	4.51600E-004	-3.27672E+002	7	...........
	217	218	3.57514E+000	-5.60063E-007	0.00000E+000	-2.00230E-006	0.00000E+000	4.48800E-004	-3.27672E+002	7	...........
	218	219	3.57513E+000	-5.60774E-007	0.00000E+000	-2.00484E-006	0.00000E+000	4.49317E-004	-3.27672E+002	7	...........
	219	220	3.57511E+000	-5.61455E-007	0.00000E+000	-2.00727E-006	0.00000E+000	4.50133E-004	-3.27672E+002	7	...........
	220	221	3.57511E+000	-5.61523E-007	0.00000E+000	-2.00751E-006	0.00000E+000	4.49217E-004	-3.27672E+002	7	...........
	221	222	3.57510E+000	-5.60902E-007	0.00000E+000	-2.00528E-006	0.00000E+000	4.52567E-004	-3.27672E+002	7	...........
	222	223	3.57510E+000	-5.60745E-007	0.00000E+000	-2.00472E-006	0.00000E+000	4.50633E-004	-3.27672E+002	7	...........
	223	224	3.57509E+000	-5.60732E-007	0.00000E+000	-2.00467E-006	0.00000E+000	4.48117E-004	-3.27672E+002	7	...........
	224	225	3.57507E+000	-5.60235E-007	0.00000E+000	-2.00288E-006	0.00000E+000	4.49967E-004	-3.27672E+002	7	...........
	225	226	3.57506E+000	-5.60274E-007	0.00000E+000	-2.00301E-006	0.00000E+000	4.48350E-004	-3.27672E+002	7	...........
	226	227	3.57505E+000	-5.59247E-007	0.00000E+000	-1.99933E-006	0.00000E+000	4.50467E-004	-3.27672E+002	7	...........
	227	228	3.57505E+000	-5.59165E-007	0.00000E+000	-1.99904E-006	0.00000E+000	4.45917E-004	-3.27672E+002	7	...........
	228	229	3.57504E+000	-5.59381E-007	0.00000E+000	-1.99981E-006	0.00000E+000	4.50267E-004	-3.27672E+002	7	...........
	229	230	3.57503E+000	-5.58585E-007	0.00000E+000	-1.99696E-006	0.00000E+000	4.49617E-004	-3.27672E+002	7	...........
	230	231	3.57502E+000	-5.58844E-007	0.00000E+000	-1.99788E-006	0.00000E+000	4.51633E-004	-3.27672E+002	7	...........
	231	232	3.57501E+000	-5.58877E-007	0.00000E+000	-1.99799E-006	0.00000E+000	4.51617E-004	-3.27672E+002	7	...........
	232	233	3.57500E+000	-5.59120E-007	0.00000E+000	-1.99885E-006	0.00000E+000	4.50433E-004	-3.27672E+002	7	...........
	233	234	3.57499E+000	-5.59226E-007	0.00000E+000	-1.99923E-006	0.00000E+000	4.51467E-004	-3.27672E+002	7	...........
	234	235	3.57499E+000	-5.58883E-007	0.00000E+000	-1.99800E-006	0.00000E+000	4.49583E-004	-3.27672E+002	7	...........
	235	236	3.57497E+000	-5.59139E-007	0.00000E+000	-1.99891E-006	0.00000E+000	4.51433E-004	-3.27672E+002	7	...........
	236	237	3.57496E+000	-5.58758E-007	0.00000E+000	-1.99754E-006	0.00000E+000	4.50467E-004	-3.27672E+002	7	...........
	237	238	3.57495E+000	-5.59140E-007	0.00000E+000	-1.99890E-006	0.00000E+000	4.50083E-004	-3.27672E+002	7	...........
	238	239	3.57496E+000	-5.59992E-007	0.00000E+000	-2.00195E-006	0.00000E+000	4.49983E-004	-3.27672E+002	7	...........
	239	240	3.57495E+000	-5.59407E-007	0.00000E+000	-1.99985E-006	0.00000E+000	4.48833E-004	-3.27672E+002	7	...........
	240	241	3.57493E+000	-5.59097E-007	0.00000E+000	-1.99873E-006	0.00000E+000	4.48550E-004	-3.27672E+002	7	...........
	241	242	3.57492E+000	-5.59292E-007	0.00000E+000	-1.99943E-006	0.00000E+000	4.50317E-004	-3.27672E+002	7	...........
	242	243	3.57491E+000	-5.58696E-007	0.00000E+000	-1.99729E-006	0.00000E+000	4.50100E-004	-3.27672E+002	7	...........
	243	244	3.57491E+000	-5.58595E-007	0.00000E+000	-1.99693E-006	0.00000E+000	4.47717E-004	-3.27672E+002	7	...........
	244	245	3.57491E+000	-5.58780E-007	0.00000E+000	-1.99759E-006	0.00000E+000	4.48967E-004	-3.27672E+002	7	...........
	245	246	3.57489E+000	-5.58876E-007	0.00000E+000	-1.99792E-006	0.00000E+000	4.49383E-004	-3.27672E+002	7	...........
	246	247	3.57488E+000	-5.59430E-007	0.00000E+000	-1.99990E-006	0.00000E+000	4.48750E-004	-3.27672E+002	7	...........
	247	248	3.57488E+000	-5.59347E-007	0.00000E+000	-1.99960E-006	0.00000E+000	4.46733E-004	-3.27672E+002	7	...........
	248	249	3.57486E+000	-5.60171E-007	0.00000E+000	-2.00253E-006	0.00000E+000	4.47833E-004	-3.27672E+002	7	...........
	249	250	3.57486E+000	-5.59933E-007	0.00000E+000	-2.00168E-006	0.00000E+000	4.48567E-004	-3.27672E+002	7	...........
	250	251	3.57486E+000	-5.59649E-007	0.00000E+000	-2.00066E-006	0.00000E+000	4.47500E-004	-3.27672E+002	7	...........
	251	252	3.57486E+000	-5.59113E-007	0.00000E+000	-1.99875E-006	0.00000E+000	4.48400E-004	-3.27672E+002	7	...........
	252	253	3.57485E+000	-5.59127E-007	0.00000E+000	-1.99879E-006	0.00000E+000	4.45983E-004	-3.27672E+002	7	...........
	253	254	3.57484E+000	-5.59069E-007	0.00000E+000	-1.99858E-006	0.00000E+000	4.48350E-004	-3.27672E+002	7	...........
	254	255	3.57483E+000	-5.59715E-007	0.00000E+000	-2.00088E-006	0.00000E+000	4.46400E-004	-3.27672E+002	7	...........
	255	256	3.57483E+000	-5.59525E-007	0.00000E+000	-2.00021E-006	0.00000E+000	4.48717E-004	-3.27672E+002	7	...........
	256	257	3.57481E+000	-5.59130E-007	0.00000E+000	-1.99878E-006	0.00000E+000	4.46383E-004	-3.27672E+002	7	...........
	257	258	3.57481E+000	-5.58296E-007	0.00000E+000	-1.99580E-006	0.00000E+000	4.45067E-004	-3.27672E+002	7	...........
	258	259	3.57480E+000	-5.58142E-007	0.00000E+000	-1.99524E-006	0.00000E+000	4.47183E-004	-3.27672E+002	7	...........
	259	260	3.57480E+000	-5.58198E-007	0.00000E+000	-1.99545E-006	0.00000E+000	4.46950E-004	-3.27672E+002	7	...........
	260	261	3.57479E+000	-5.58019E-007	0.00000E+000	-1.99480E-006	0.00000E+000	4.43817E-004	-3.27672E+002	7	...........
	261	262	3.57478E+000	-5.58664E-007	0.00000E+000	-1.99710E-006	0.00000E+000	4.43933E-004	-3.27672E+002	7	...........
	262	263	3.57477E+000	-5.58664E-007	0.00000E+000	-1.99710E-006	0.00000E+000	4.44150E-004	-3.27672E+002	7	...........
	263	264	3.57476E+000	-5.58351E-007	0.00000E+000	-1.99597E-006	0.00000E+000	4.45233E-004	-3.27672E+002	7	...........
	264	265	3.57475E+000	-5.58506E-007	0.00000E+000	-1.99652E-006	0.00000E+000	4.44450E-004	-3.27672E+002	7	...........
	265	266	3.57476E+000	-5.59035E-007	0.00000E+000	-1.99841E-006	0.00000E+000	4.43067E-004	-3.27672E+002	7	...........
	266	267	3.57475E+000	-5.58682E-007	0.00000E+000	-1.99715E-006	0.00000E+000	4.44000E-004	-3.27672E+002	7	...........
	267	268	3.57475E+000	-5.58214E-007	0.00000E+000	-1.99547E-006	0.00000E+000	4.45483E-004	-3.27672E+002	7	...........
	268	269	3.57474E+000	-5.58274E-007	0.00000E+000	-1.99568E-006	0.00000E+000	4.44067E-004	-3.27672E+002	7	...........
	269	270	3.57473E+000	-5.58610E-007	0.00000E+000	-1.99688E-006	0.00000E+000	4.42933E-004	-3.27672E+002	7	...........
	270	271	3.57473E+000	-5.58747E-007	0.00000E+000	-1.99737E-006	0.00000E+000	4.43517E-004	-3.27672E+002	7	...........
	271	272	3.57472E+000	-5.58192E-007	0.00000E+000	-1.99538E-006	0.00000E+000	4.46900E-004	-3.27672E+002	7	...........
	272	273	3.57472E+000	-5.58901E-007	0.00000E+000	-1.99791E-006	0.00000E+000	4.47817E-004	-3.27672E+002	7	...........
	273	274	3.57472E+000	-5.58012E-007	0.00000E+000	-1.99473E-006	0.00000E+000	4.43617E-004	-3.27672E+002	7	...........
	274	275	3.57470E+000	-5.58227E-007	0.00000E+000	-1.99549E-006	0.00000E+000	4.45083E-004	-3.27672E+002	7	...........
	275	276	3.57469E+000	-5.58314E-007	0.00000E+000	-1.99580E-006	0.00000E+000	4.45750E-004	-3.27672E+002	7	...........
	276	277	3.57470E+000	-5.58071E-007	0.00000E+000	-1.99494E-006	0.00000E+000	4.44817E-004	-3.27672E+002	7	...........
	277	278	3.57469E+000	-5.58162E-007	0.00000E+000	-1.99526E-006	0.00000E+000	4.45067E-004	-3.27672E+002	7	...........
	278	279	3.57468E+000	-5.58597E-007	0.00000E+000	-1.99681E-006	0.00000E+000	4.46583E-004	-3.27672E+002	7	...........
	279	280	3.57467E+000	-5.58011E-007	0.00000E+000	-1.99470E-006	0.00000E+000	4.48800E-004	-3.27672E+002	7	...........
	280	281	3.57467E+000	-5.57589E-007	0.00000E+000	-1.99320E-006	0.00000E+000	4.42717E-004	-3.27672E+002	7	...........
	281	282	3.57467E+000	-5.56864E-007	0.00000E+000	-1.99060E-006	0.00000E+000	4.43117E-004	-3.27672E+002	7	...........
	282	283	3.57465E+000	-5.57307E-007	0.00000E+000	-1.99218E-006	0.00000E+000	4.40633E-004	-3.27672E+002	7	...........
	283	284	3.57465E+000	-5.56903E-007	0.00000E+000	-1.99073E-006	0.00000E+000	4.43833E-004	-3.27672E+002	7	...........
	284	285	3.57465E+000	-5.57015E-007	0.00000E+000	-1.99113E-006	0.00000E+000	4.43383E-004	-3.27672E+002	7	...........
	285	286	3.57465E+000	-5.58323E-007	0.00000E+000	-1.99581E-006	0.00000E+000	4.44450E-004	-3.27672E+002	7	...........
	286	287	3.57465E+000	-5.58053E-007	0.00000E+000	-1.99484E-006	0.00000E+000	4.43433E-004	-3.27672E+002	7	...........
	287	288	3.57463E+000	-5.58179E-007	0.00000E+000	-1.99528E-006	0.00000E+000	4.43550E-004	-3.27672E+002	7	...........
	288	289	3.57463E+000	-5.58353E-007	0.00000E+000	-1.99590E-006	0.00000E+000	4.42900E-004	-3.27672E+002	7	...........
	289	290	3.57462E+000	-5.58371E-007	0.00000E+000	-1.99596E-006	0.00000E+000	4.39017E-004	-3.27672E+002	7	...........
	290	291	3.57462E+000	-5.57710E-007	0.00000E+000	-1.99360E-006	0.00000E+000	4.41883E-004	-3.27672E+002	7	...........
	291	292	3.57461E+000	-5.56871E-007	0.00000E+000	-1.99059E-006	0.00000E+000	4.41433E-004	-3.27672E+002	7	...........
	292	293	3.57460E+000	-5.57132E-007	0.00000E+000	-1.99152E-006	0.00000E+000	4.40417E-004	-3.27672E+002	7	...........
	293	294	3.57460E+000	-5.57577E-007	0.00000E+000	-1.99312E-006	0.00000E+000	4.41233E-004	-3.27672E+002	7	...........
	294	295	3.57459E+000	-5.57510E-007	0.00000E+000	-1.99287E-006	0.00000E+000	4.40383E-004	-3.27672E+002	7	...........
	295	296	3.57458E+000	-5.57297E-007	0.00000E+000	-1.99210E-006	0.00000E+000	4.40550E-004	-3.27672E+002	7	...........
	296	297	3.57458E+000	-5.56809E-007	0.00000E+000	-1.99035E-006	0.00000E+000	4.40050E-004	-3.27672E+002	7	...........
	297	298	3.57458E+000	-5.56759E-007	0.00000E+000	-1.99018E-006	0.00000E+000	4.39117E-004	-3.27672E+002	7	...........
	298	299	3.57457E+000	-5.57310E-007	0.00000E+000	-1.99215E-006	0.00000E+000	4.40350E-004	-3.27672E+002	7	...........
	299	300	3.57457E+000	-5.56903E-007	0.00000E+000	-1.99069E-006	0.00000E+000	4.43350E-004	-3.27672E+002	7	...........
	300	301	3.57456E+000	-5.56937E-007	0.00000E+000	-1.99081E-006	0.00000E+000	4.42233E-004	-3.27672E+002	7	...........
	301	302	3.57456E+000	-5.57369E-007	0.00000E+000	-1.99235E-006	0.00000E+000	4.41700E-004	-3.27672E+002	7	...........
	302	303	3.57455E+000	-5.57627E-007	0.00000E+000	-1.99326E-006	0.00000E+000	4.41983E-004	-3.27672E+002	7	...........
	303	304	3.57455E+000	-5.57211E-007	0.00000E+000	-1.99178E-006	0.00000E+000	4.41550E-004	-3.27672E+002	7	...........
	304	305	3.57454E+000	-5.57577E-007	0.00000E+000	-1.99308E-006	0.00000E+000	4.41900E-004	-3.27672E+002	7	...........
	305	306	3.57454E+000	-5.57681E-007	0.00000E+000	-1.99345E-006	0.00000E+000	4.41583E-004	-3.27672E+002	7	...........
	306	307	3.57453E+000	-5.56504E-007	0.00000E+000	-1.98924E-006	0.00000E+000	4.44100E-004	-3.27672E+002	7	...........
	307	308	3.57453E+000	-5.56501E-007	0.00000E+000	-1.98923E-006	0.00000E+000	4.43767E-004	-3.27672E+002	7	...........
	308	309	3.57453E+000	-5.56236E-007	0.00000E+000	-1.98828E-006	0.00000E+000	4.42450E-004	-3.27672E+002	7	...........
	309	310	3.57452E+000	-5.56355E-007	0.00000E+000	-1.98871E-006	0.00000E+000	4.44350E-004	-3.27672E+002	7	...........
	310	311	3.57453E+000	-5.57178E-007	0.00000E+000	-1.99165E-006	0.00000E+000	4.40733E-004	-3.27672E+002	7	...........
	311	312	3.57453E+000	-5.56657E-007	0.00000E+000	-1.98978E-006	0.00000E+000	4.38750E-004	-3.27672E+002	7	...........
	312	313	3.57451E+000	-5.56411E-007	0.00000E+000	-1.98890E-006	0.00000E+000	4.40750E-004	-3.27672E+002	7	...........
	313	314	3.57451E+000	-5.57061E-007	0.00000E+000	-1.99122E-006	0.00000E+000	4.40667E-004	-3.27672E+002	7	...........
	314	315	3.57451E+000	-5.56671E-007	0.00000E+000	-1.98982E-006	0.00000E+000	4.40700E-004	-3.27672E+002	7	...........
	315	316	3.57450E+000	-5.55661E-007	0.00000E+000	-1.98621E-006	0.00000E+000	4.40700E-004	-3.27672E+002	7	...........
	316	317	3.57449E+000	-5.57175E-007	0.00000E+000	-1.99162E-006	0.00000E+000	4.41117E-004	-3.27672E+002	7	...........
	317	318	3.57449E+000	-5.57251E-007	0.00000E+000	-1.99189E-006	0.00000E+000	4.40200E-004	-3.27672E+002	7	...........
	318	319	3.57449E+000	-5.56762E-007	0.00000E+000	-1.99014E-006	0.00000E+000	4.40967E-004	-3.27672E+002	7	...........
	319	320	3.57448E+000	-5.56703E-007	0.00000E+000	-1.98992E-006	0.00000E+000	4.41217E-004	-3.27672E+002	7	...........
	320	321	3.57447E+000	-5.57056E-007	0.00000E+000	-1.99118E-006	0.00000E+000	4.40800E-004	-3.27672E+002	7	...........
	321	322	3.57447E+000	-5.57152E-007	0.00000E+000	-1.99152E-006	0.00000E+000	4.39333E-004	-3.27672E+002	7	...........
	322	323	3.57446E+000	-5.57247E-007	0.00000E+000	-1.99186E-006	0.00000E+000	4.41333E-004	-3.27672E+002	7	...........
	323	324	3.57446E+000	-5.56850E-007	0.00000E+000	-1.99044E-006	0.00000E+000	4.39233E-004	-3.27672E+002	7	...........
	324	325	3.57445E+000	-5.55864E-007	0.00000E+000	-1.98691E-006	0.00000E+000	4.37167E-004	-3.27672E+002	7	...........
	325	326	3.57445E+000	-5.56713E-007	0.00000E+000	-1.98994E-006	0.00000E+000	4.39783E-004	-3.27672E+002	7	...........
	326	327	3.57445E+000	-5.56179E-007	0.00000E+000	-1.98803E-006	0.00000E+000	4.38500E-004	-3.27672E+002	7	...........
	327	328	3.57444E+000	-5.56667E-007	0.00000E+000	-1.98977E-006	0.00000E+000	4.37967E-004	-3.27672E+002	7	...........
	328	329	3.57444E+000	-5.55584E-007	0.00000E+000	-1.98590E-006	0.00000E+000	4.38167E-004	-3.27672E+002	7	...........
	329	330	3.57442E+000	-5.56091E-007	0.00000E+000	-1.98771E-006	0.00000E+000	4.40150E-004	-3.27672E+002	7	...........
	330	331	3.57443E+000	-5.55859E-007	0.00000E+000	-1.98688E-006	0.00000E+000	4.37450E-004	-3.27672E+002	7	...........
	331	332	3.57442E+000	-5.56344E-007	0.00000E+000	-1.98860E-006	0.00000E+000	4.40900E-004	-3.27672E+002	7	...........
	332	333	3.57441E+000	-5.56185E-007	0.00000E+000	-1.98803E-006	0.00000E+000	4.37967E-004	-3.27672E+002	7	...........
	333	334	3.57441E+000	-5.56965E-007	0.00000E+000	-1.99082E-006	0.00000E+000	4.38983E-004	-3.27672E+002	7	...........
	334	335	3.57440E+000	-5.56584E-007	0.00000E+000	-1.98945E-006	0.00000E+000	4.39017E-004	-3.27672E+002	7	...........
	335	336	3.57440E+000	-5.57029E-007	0.00000E+000	-1.99104E-006	0.00000E+000	4.40233E-004	-3.27672E+002	7	...........
	336	337	3.57439E+000	-5.57243E-007	0.00000E+000	-1.99180E-006	0.00000E+000	4.38167E-004	-3.27672E+002	7	...........
	337	338	3.57439E+000	-5.55942E-007	0.00000E+000	-1.98715E-006	0.00000E+000	4.37683E-004	-3.27672E+002	7	...........
	338	339	3.57438E+000	-5.56200E-007	0.00000E+000	-1.98807E-006	0.00000E+000	4.38533E-004	-3.27672E+002	7	...........
	339	340	3.57438E+000	-5.55904E-007	0.00000E+000	-1.98701E-006	0.00000E+000	4.37967E-004	-3.27672E+002	7	...........
	340	341	3.57438E+000	-5.55834E-007	0.00000E+000	-1.98676E-006	0.00000E+000	4.39133E-004	-3.27672E+002	7	...........
	341	342	3.57437E+000	-5.55533E-007	0.00000E+000	-1.98568E-006	0.00000E+000	4.38783E-004	-3.27672E+002	7	...........
	342	343	3.57437E+000	-5.56300E-007	0.00000E+000	-1.98842E-006	0.00000E+000	4.37917E-004	-3.27672E+002	7	...........
	343	344	3.57436E+000	-5.56446E-007	0.00000E+000	-1.98894E-006	0.00000E+000	4.40783E-004	-3.27672E+002	7	...........
	344	345	3.57436E+000	-5.56640E-007	0.00000E+000	-1.98963E-006	0.00000E+000	4.38233E-004	-3.27672E+002	7	...........
	345	346	3.57436E+000	-5.56559E-007	0.00000E+000	-1.98934E-006	0.00000E+000	4.39133E-004	-3.27672E+002	7	...........
	346	347	3.57435E+000	-5.56163E-007	0.00000E+000	-1.98792E-006	0.00000E+000	4.36583E-004	-3.27672E+002	7	...........
	347	348	3.57434E+000	-5.56802E-007	0.00000E+000	-1.99020E-006	0.00000E+000	4.37667E-004	-3.27672E+002	7	...........
	348	349	3.57434E+000	-5.57097E-007	0.00000E+000	-1.99125E-006	0.00000E+000	4.35933E-004	-3.27672E+002	7	...........
	349	350	3.57433E+000	-5.56785E-007	0.00000E+000	-1.99014E-006	0.00000E+000	4.36833E-004	-3.27672E+002	7	...........
	350	351	3.57433E+000	-5.55929E-007	0.00000E+000	-1.98707E-006	0.00000E+000	4.39650E-004	-3.27672E+002	7	...........
	351	352	3.57432E+000	-5.57421E-007	0.00000E+000	-1.99240E-006	0.00000E+000	4.37633E-004	-3.27672E+002	7	...........
	352	353	3.57432E+000	-5.56952E-007	0.00000E+000	-1.99072E-006	0.00000E+000	4.36717E-004	-3.27672E+002	7	...........
	353	354	3.57431E+000	-5.56597E-007	0.00000E+000	-1.98945E-006	0.00000E+000	4.38933E-004	-3.27672E+002	7	...........
	354	355	3.57431E+000	-5.55932E-007	0.00000E+000	-1.98707E-006	0.00000E+000	4.35467E-004	-3.27672E+002	7	...........
	355	356	3.57430E+000	-5.55811E-007	0.00000E+000	-1.98663E-006	0.00000E+000	4.36617E-004	-3.27672E+002	7	...........
	356	357	3.57431E+000	-5.56157E-007	0.00000E+000	-1.98788E-006	0.00000E+000	4.35950E-004	-3.27672E+002	7	...........
	357	358	3.57429E+000	-5.55450E-007	0.00000E+000	-1.98534E-006	0.00000E+000	4.35317E-004	-3.27672E+002	7	...........
	358	359	3.57429E+000	-5.55863E-007	0.00000E+000	-1.98682E-006	0.00000E+000	4.39167E-004	-3.27672E+002	7	...........
	359	360	3.57428E+000	-5.55569E-007	0.00000E+000	-1.98576E-006	0.00000E+000	4.38500E-004	-3.27672E+002	7	...........
	360	361	3.57428E+000	-5.55639E-007	0.00000E+000	-1.98601E-006	0.00000E+000	4.38517E-004	-3.27672E+002	7	...........
	361	362	3.57428E+000	-5.56063E-007	0.00000E+000	-1.98753E-006	0.00000E+000	4.38367E-004	-3.27672E+002	7	...........
	362	363	3.57428E+000	-5.54700E-007	0.00000E+000	-1.98265E-006	0.00000E+000	4.38367E-004	-3.27672E+002	7	...........
	363	364	3.57427E+000	-5.56121E-007	0.00000E+000	-1.98773E-006	0.00000E+000	4.36967E-004	-3.27672E+002	7	...........
	364	365	3.57427E+000	-5.55563E-007	0.00000E+000	-1.98573E-006	0.00000E+000	4.36200E-004	-3.27672E+002	7	...........
	365	366	3.57426E+000	-5.55481E-007	0.00000E+000	-1.98543E-006	0.00000E+000	4.36450E-004	-3.27672E+002	7	...........
	366	367	3.57425E+000	-5.55138E-007	0.00000E+000	-1.98420E-006	0.00000E+000	4.36200E-004	-3.27672E+002	7	...........
	367	368	3.57425E+000	-5.55023E-007	0.00000E+000	-1.98379E-006	0.00000E+000	4.36317E-004	-3.27672E+002	7	...........
	368	369	3.57425E+000	-5.55646E-007	0.00000E+000	-1.98602E-006	0.00000E+000	4.37283E-004	-3.27672E+002	7	...........
	369	370	3.57424E+000	-5.54571E-007	0.00000E+000	-1.98217E-006	0.00000E+000	4.37733E-004	-3.27672E+002	7	...........
	370	371	3.57424E+000	-5.54024E-007	0.00000E+000	-1.98022E-006	0.00000E+000	4.37150E-004	-3.27672E+002	7	...........
	371	372	3.57424E+000	-5.54377E-007	0.00000E+000	-1.98148E-006	0.00000E+000	4.36867E-004	-3.27672E+002	7	...........
	372	373	3.57423E+000	-5.54505E-007	0.00000E+000	-1.98193E-006	0.00000E+000	4.36000E-004	-3.27672E+002	7	...........
	373	374	3.57422E+000	-5.54182E-007	0.00000E+000	-1.98077E-006	0.00000E+000	4.34900E-004	-3.27672E+002	7	...........
	374	375	3.57422E+000	-5.53910E-007	0.00000E+000	-1.97980E-006	0.00000E+000	4.36550E-004	-3.27672E+002	7	...........
	375	376	3.57421E+000	-5.54264E-007	0.00000E+000	-1.98105E-006	0.00000E+000	4.35717E-004	-3.27672E+002	7	...........
	376	377	3.57421E+000	-5.54280E-007	0.00000E+000	-1.98111E-006	0.00000E+000	4.35633E-004	-3.27672E+002	7	...........
	377	378	3.57421E+000	-5.53421E-007	0.00000E+000	-1.97804E-006	0.00000E+000	4.34983E-004	-3.27672E+002	7	...........
	378	379	3.57421E+000	-5.53958E-007	0.00000E+000	-1.97996E-006	0.00000E+000	4.33933E-004	-3.27672E+002	7	...........
	379	380	3.57419E+000	-5.54813E-007	0.00000E+000	-1.98301E-006	0.00000E+000	4.37267E-004	-3.27672E+002	7	...........
	380	381	3.57420E+000	-5.54401E-007	0.00000E+000	-1.98154E-006	0.00000E+000	4.36867E-004	-3.27672E+002	7	...........
	381	382	3.57419E+000	-5.54422E-007	0.00000E+000	-1.98161E-006	0.00000E+000	4.37533E-004	-3.27672E+002	7	...........
	382	383	3.57418E+000	-5.54599E-007	0.00000E+000	-1.98224E-006	0.00000E+000	4.36750E-004	-3.27672E+002	7	...........
	383	384	3.57418E+000	-5.54527E-007	0.00000E+000	-1.98198E-006	0.00000E+000	4.36900E-004	-3.27672E+002	7	...........
	384	385	3.57418E+000	-5.55000E-007	0.00000E+000	-1.98367E-006	0.00000E+000	4.38083E-004	-3.27672E+002	7	...........
	385	386	3.57417E+000	-5.54262E-007	0.00000E+000	-1.98103E-006	0.00000E+000	4.35983E-004	-3.27672E+002	7	...........
	386	387	3.57417E+000	-5.54455E-007	0.00000E+000	-1.98172E-006	0.00000E+000	4.37767E-004	-3.27672E+002	7	...........
	387	388	3.57416E+000	-5.54913E-007	0.00000E+000	-1.98335E-006	0.00000E+000	4.36400E-004	-3.27672E+002	7	...........
	388	389	3.57416E+000	-5.55503E-007	0.00000E+000	-1.98546E-006	0.00000E+000	4.34683E-004	-3.27672E+002	7	...........
	389	390	3.57416E+000	-5.54849E-007	0.00000E+000	-1.98312E-006	0.00000E+000	4.37683E-004	-3.27672E+002	7	...........
	390	391	3.57416E+000	-5.53725E-007	0.00000E+000	-1.97910E-006	0.00000E+000	4.38467E-004	-3.27672E+002	7	...........
	391	392	3.57415E+000	-5.54756E-007	0.00000E+000	-1.98278E-006	0.00000E+000	4.35933E-004	-3.27672E+002	7	...........
	392	393	3.57414E+000	-5.54394E-007	0.00000E+000	-1.98148E-006	0.00000E+000	4.38267E-004	-3.27672E+002	7	...........
	393	394	3.57414E+000	-5.55511E-007	0.00000E+000	-1.98547E-006	0.00000E+000	4.36850E-004	-3.27672E+002	7	...........
	394	395	3.57414E+000	-5.55834E-007	0.00000E+000	-1.98663E-006	0.00000E+000	4.35800E-004	-3.27672E+002	7	...........
	395	396	3.57413E+000	-5.55224E-007	0.00000E+000	-1.98444E-006	0.00000E+000	4.36317E-004	-3.27672E+002	7	...........
	396	397	3.57412E+000	-5.55198E-007	0.00000E+000	-1.98434E-006	0.00000E+000	4.38533E-004	-3.27672E+002	7	...........
	397	398	3.57411E+000	-5.55126E-007	0.00000E+000	-1.98408E-006	0.00000E+000	4.36167E-004	-3.27672E+002	7	...........
	398	399	3.57411E+000	-5.54419E-007	0.00000E+000	-1.98155E-006	0.00000E+000	4.33417E-004	-3.27672E+002	7	...........
	399	400	3.57412E+000	-5.55170E-007	0.00000E+000	-1.98424E-006	0.00000E+000	4.35683E-004	-3.27672E+002	7	...........
	400	401	3.57411E+000	-5.55647E-007	0.00000E+000	-1.98594E-006	0.00000E+000	4.35700E-004	-3.27672E+002	7	...........
	401	402	3.57410E+000	-5.55656E-007	0.00000E+000	-1.98597E-006	0.00000E+000	4.35533E-004	-3.27672E+002	7	...........
	402	403	3.57409E+000	-5.55405E-007	0.00000E+000	-1.98507E-006	0.00000E+000	4.32400E-004	-3.27672E+002	7	...........
	403	404	3.57408E+000	-5.54809E-007	0.00000E+000	-1.98293E-006	0.00000E+000	4.36917E-004	-3.27672E+002	7	...........
	404	405	3.57408E+000	-5.55917E-007	0.00000E+000	-1.98689E-006	0.00000E+000	4.36250E-004	-3.27672E+002	7	...........
	405	406	3.57408E+000	-5.55543E-007	0.00000E+000	-1.98556E-006	0.00000E+000	4.34700E-004	-3.27672E+002	7	...........
	406	407	3.57409E+000	-5.55344E-007	0.00000E+000	-1.98485E-006	0.00000E+000	4.34200E-004	-3.27672E+002	7	...........
	407	408	3.57408E+000	-5.54780E-007	0.00000E+000	-1.98283E-006	0.00000E+000	4.37167E-004	-3.27672E+002	7	...........
	408	409	3.57407E+000	-5.55717E-007	0.00000E+000	-1.98617E-006	0.00000E+000	4.35583E-004	-3.27672E+002	7	...........
	409	410	3.57406E+000	-5.55540E-007	0.00000E+000	-1.98554E-006	0.00000E+000	4.35350E-004	-3.27672E+002	7	...........
	410	411	3.57407E+000	-5.56021E-007	0.00000E+000	-1.98726E-006	0.00000E+000	4.33867E-004	-3.27672E+002	7	...........
	411	412	3.57406E+000	-5.55829E-007	0.00000E+000	-1.98657E-006	0.00000E+000	4.34567E-004	-3.27672E+002	7	...........
	412	413	3.57405E+000	-5.55392E-007	0.00000E+000	-1.98500E-006	0.00000E+000	4.37167E-004	-3.27672E+002	7	...........
	413	414	3.57404E+000	-5.55447E-007	0.00000E+000	-1.98519E-006	0.00000E+000	4.33250E-004	-3.27672E+002	7	...........
	414	415	3.57404E+000	-5.55886E-007	0.00000E+000	-1.98676E-006	0.00000E+000	4.35283E-004	-3.27672E+002	7	...........
	415	416	3.57404E+000	-5.54756E-007	0.00000E+000	-1.98272E-006	0.00000E+000	4.34217E-004	-3.27672E+002	7	...........
	416	417	3.57404E+000	-5.55643E-007	0.00000E+000	-1.98589E-006	0.00000E+000	4.37083E-004	-3.27672E+002	7	...........
	417	418	3.57403E+000	-5.55561E-007	0.00000E+000	-1.98559E-006	0.00000E+000	4.36483E-004	-3.27672E+002	7	...........
	418	419	3.57402E+000	-5.55212E-007	0.00000E+000	-1.98434E-006	0.00000E+000	4.39217E-004	-3.27672E+002	7	...........
	419	420	3.57401E+000	-5.56600E-007	0.00000E+000	-1.98929E-006	0.00000E+000	4.37250E-004	-3.27672E+002	7	...........
	420	421	3.57401E+000	-5.56375E-007	0.00000E+000	-1.98849E-006	0.00000E+000	4.35283E-004	-3.27672E+002	7	...........
	421	422	3.57401E+000	-5.56024E-007	0.00000E+000	-1.98723E-006	0.00000E+000	4.38267E-004	-3.27672E+002	7	...........
	422	423	3.57400E+000	-5.54963E-007	0.00000E+000	-1.98344E-006	0.00000E+000	4.36917E-004	-3.27672E+002	7	...........
	423	424	3.57401E+000	-5.55164E-007	0.00000E+000	-1.98416E-006	0.00000E+000	4.37500E-004	-3.27672E+002	7	...........
	424	425	3.57400E+000	-5.55582E-007	0.00000E+000	-1.98565E-006	0.00000E+000	4.38417E-004	-3.27672E+002	7	...........
	425	426	3.57399E+000	-5.55836E-007	0.00000E+000	-1.98655E-006	0.00000E+000	4.38717E-004	-3.27672E+002	7	...........
	426	427	3.57398E+000	-5.54735E-007	0.00000E+000	-1.98261E-006	0.00000E+000	4.36183E-004	-3.27672E+002	7	...........
	427	428	3.57398E+000	-5.54633E-007	0.00000E+000	-1.98225E-006	0.00000E+000	4.37083E-004	-3.27672E+002	7	...........
	428	429	3.57398E+000	-5.55543E-007	0.00000E+000	-1.98550E-006	0.00000E+000	4.37283E-004	-3.27672E+002	7	...........
	429	430	3.57398E+000	-5.54907E-007	0.00000E+000	-1.98323E-006	0.00000E+000	4.36383E-004	-3.27672E+002	7	...........
	430	431	3.57398E+000	-5.54983E-007	0.00000E+000	-1.98350E-006	0.00000E+000	4.35333E-004	-3.27672E+002	7	...........
	431	432	3.57398E+000	-5.54683E-007	0.00000E+000	-1.98242E-006	0.00000E+000	4.36300E-004	-3.27672E+002	7	...........
	432	433	3.57397E+000	-5.54901E-007	0.00000E+000	-1.98320E-006	0.00000E+000	4.34083E-004	-3.27672E+002	7	...........
	433	434	3.57396E+000	-5.54571E-007	0.00000E+000	-1.98201E-006	0.00000E+000	4.35883E-004	-3.27672E+002	7	...........
	434	435	3.57395E+000	-5.55061E-007	0.00000E+000	-1.98376E-006	0.00000E+000	4.35983E-004	-3.27672E+002	7	...........
	435	436	3.57396E+000	-5.55655E-007	0.00000E+000	-1.98589E-006	0.00000E+000	4.33600E-004	-3.27672E+002	7	...........
	436	437	3.57395E+000	-5.56473E-007	0.00000E+000	-1.98881E-006	0.00000E+000	4.39150E-004	-3.27672E+002	7	...........
	437	438	3.57395E+000	-5.57020E-007	0.00000E+000	-1.99076E-006	0.00000E+000	4.37717E-004	-3.27672E+002	7	...........
	438	439	3.57395E+000	-5.55896E-007	0.00000E+000	-1.98674E-006	0.00000E+000	4.36767E-004	-3.27672E+002	7	...........
	439	440	3.57394E+000	-5.55412E-007	0.00000E+000	-1.98501E-006	0.00000E+000	4.36733E-004	-3.27672E+002	7	...........
	440	441	3.57394E+000	-5.54969E-007	0.00000E+000	-1.98343E-006	0.00000E+000	4.34617E-004	-3.27672E+002	7	...........
	441	442	3.57393E+000	-5.55087E-007	0.00000E+000	-1.98384E-006	0.00000E+000	4.35083E-004	-3.27672E+002	7	...........
	442	443	3.57393E+000	-5.55440E-007	0.00000E+000	-1.98510E-006	0.00000E+000	4.39350E-004	-3.27672E+002	7	...........
	443	444	3.57393E+000	-5.55391E-007	0.00000E+000	-1.98493E-006	0.00000E+000	4.35400E-004	-3.27672E+002	7	...........
	444	445	3.57391E+000	-5.55717E-007	0.00000E+000	-1.98609E-006	0.00000E+000	4.35533E-004	-3.27672E+002	7	...........
	445	446	3.57392E+000	-5.55281E-007	0.00000E+000	-1.98453E-006	0.00000E+000	4.35633E-004	-3.27672E+002	7	...........
	446	447	3.57391E+000	-5.55192E-007	0.00000E+000	-1.98420E-006	0.00000E+000	4.37417E-004	-3.27672E+002	7	...........
	447	448	3.57391E+000	-5.55151E-007	0.00000E+000	-1.98406E-006	0.00000E+000	4.36367E-004	-3.27672E+002	7	...........
	448	449	3.57390E+000	-5.54384E-007	0.00000E+000	-1.98131E-006	0.00000E+000	4.36600E-004	-3.27672E+002	7	...........
	449	450	3.57390E+000	-5.54083E-007	0.00000E+000	-1.98023E-006	0.00000E+000	4.38933E-004	-3.27672E+002	7	...........
	450	451	3.57389E+000	-5.54764E-007	0.00000E+000	-1.98267E-006	0.00000E+000	4.35400E-004	-3.27672E+002	7	...........
	451	452	3.57389E+000	-5.54873E-007	0.00000E+000	-1.98306E-006	0.00000E+000	4.37167E-004	-3.27672E+002	7	...........
	452	453	3.57389E+000	-5.55263E-007	0.00000E+000	-1.98445E-006	0.00000E+000	4.38483E-004	-3.27672E+002	7	...........
	453	454	3.57388E+000	-5.54999E-007	0.00000E+000	-1.98350E-006	0.00000E+000	4.37917E-004	-3.27672E+002	7	...........
	454	455	3.57388E+000	-5.54793E-007	0.00000E+000	-1.98276E-006	0.00000E+000	4.36733E-004	-3.27672E+002	7	...........
	455	456	3.57388E+000	-5.54267E-007	0.00000E+000	-1.98088E-006	0.00000E+000	4.35333E-004	-3.27672E+002	7	...........
	456	457	3.57387E+000	-5.53992E-007	0.00000E+000	-1.97989E-006	0.00000E+000	4.37400E-004	-3.27672E+002	7	...........
	457	458	3.57387E+000	-5.54569E-007	0.00000E+000	-1.98195E-006	0.00000E+000	4.36583E-004	-3.27672E+002	7	...........
	458	459	3.57387E+000	-5.55465E-007	0.00000E+000	-1.98516E-006	0.00000E+000	4.38650E-004	-3.27672E+002	7	...........
	459	460	3.57386E+000	-5.53940E-007	0.00000E+000	-1.97971E-006	0.00000E+000	4.38217E-004	-3.27672E+002	7	...........
	460	461	3.57385E+000	-5.53824E-007	0.00000E+000	-1.97929E-006	0.00000E+000	4.38783E-004	-3.27672E+002	7	...........
	461	462	3.57384E+000	-5.53970E-007	0.00000E+000	-1.97980E-006	0.00000E+000	4.36850E-004	-3.27672E+002	7	...........
	462	463	3.57384E+000	-5.53726E-007	0.00000E+000	-1.97893E-006	0.00000E+000	4.38967E-004	-3.27672E+002	7	...........
	463	464	3.57384E+000	-5.53759E-007	0.00000E+000	-1.97905E-006	0.00000E+000	4.35133E-004	-3.27672E+002	7	...........
	464	465	3.57384E+000	-5.54276E-007	0.00000E+000	-1.98089E-006	0.00000E+000	4.38333E-004	-3.27672E+002	7	...........
	465	466	3.57383E+000	-5.54030E-007	0.00000E+000	-1.98001E-006	0.00000E+000	4.38933E-004	-3.27672E+002	7	...........
	466	467	3.57382E+000	-5.53903E-007	0.00000E+000	-1.97955E-006	0.00000E+000	4.37967E-004	-3.27672E+002	7	...........
	467	468	3.57382E+000	-5.54799E-007	0.00000E+000	-1.98275E-006	0.00000E+000	4.36850E-004	-3.27672E+002	7	...........
	468	469	3.57382E+000	-5.55235E-007	0.00000E+000	-1.98431E-006	0.00000E+000	4.37950E-004	-3.27672E+002	7	...........
	469	470	3.57380E+000	-5.54734E-007	0.00000E+000	-1.98251E-006	0.00000E+000	4.39683E-004	-3.27672E+002	7	...........
	470	471	3.57381E+000	-5.54487E-007	0.00000E+000	-1.98163E-006	0.00000E+000	4.37950E-004	-3.27672E+002	7	...........
	471	472	3.57381E+000	-5.54455E-007	0.00000E+000	-1.98151E-006	0.00000E+000	4.39733E-004	-3.27672E+002	7	...........
	472	473	3.57380E+000	-5.54286E-007	0.00000E+000	-1.98091E-006	0.00000E+000	4.40050E-004	-3.27672E+002	7	...........
	473	474	3.57380E+000	-5.54275E-007	0.00000E+000	-1.98087E-006	0.00000E+000	4.39300E-004	-3.27672E+002	7	...........
	474	475	3.57379E+000	-5.53834E-007	0.00000E+000	-1.97929E-006	0.00000E+000	4.39283E-004	-3.27672E+002	7	...........
	475	476	3.57380E+000	-5.54205E-007	0.00000E+000	-1.98062E-006	0.00000E+000	4.39033E-004	-3.27672E+002	7	...........
	476	477	3.57379E+000	-5.54117E-007	0.00000E+000	-1.98030E-006	0.00000E+000	4.37467E-004	-3.27672E+002	7	...........
	477	478	3.57379E+000	-5.54020E-007	0.00000E+000	-1.97995E-006	0.00000E+000	4.40783E-004	-3.27672E+002	7	...........
	478	479	3.57378E+000	-5.53934E-007	0.00000E+000	-1.97964E-006	0.00000E+000	4.40583E-004	-3.27672E+002	7	...........
	479	480	3.57378E+000	-5.53435E-007	0.00000E+000	-1.97786E-006	0.00000E+000	4.37567E-004	-3.27672E+002	7	...........
	480	481	3.57378E+000	-5.53307E-007	0.00000E+000	-1.97740E-006	0.00000E+000	4.38450E-004	-3.27672E+002	7	...........
	481	482	3.57378E+000	-5.53403E-007	0.00000E+000	-1.97774E-006	0.00000E+000	4.38050E-004	-3.27672E+002	7	...........
	482	483	3.57377E+000	-5.53339E-007	0.00000E+000	-1.97750E-006	0.00000E+000	4.36750E-004	-3.27672E+002	7	...........
	483	484	3.57377E+000	-5.53577E-007	0.00000E+000	-1.97835E-006	0.00000E+000	4.37767E-004	-3.27672E+002	7	...........
	484	485	3.57376E+000	-5.53690E-007	0.00000E+000	-1.97875E-006	0.00000E+000	4.38367E-004	-3.27672E+002	7	...........
	485	486	3.57377E+000	-5.53163E-007	0.00000E+000	-1.97688E-006	0.00000E+000	4.38400E-004	-3.27672E+002	7	...........
	486	487	3.57376E+000	-5.53164E-007	0.00000E+000	-1.97687E-006	0.00000E+000	4.38867E-004	-3.27672E+002	7	...........
	487	488	3.57376E+000	-5.53364E-007	0.00000E+000	-1.97759E-006	0.00000E+000	4.41317E-004	-3.27672E+002	7	...........
	488	489	3.57376E+000	-5.52518E-007	0.00000E+000	-1.97456E-006	0.00000E+000	4.40583E-004	-3.27672E+002	7	...........
	489	490	3.57375E+000	-5.53005E-007	0.00000E+000	-1.97630E-006	0.00000E+000	4.40667E-004	-3.27672E+002	7	...........
	490	491	3.57374E+000	-5.53504E-007	0.00000E+000	-1.97808E-006	0.00000E+000	4.40017E-004	-3.27672E+002	7	...........
	491	492	3.57374E+000	-5.53601E-007	0.00000E+000	-1.97843E-006	0.00000E+000	4.41350E-004	-3.27672E+002	7	...........
	492	493	3.57373E+000	-5.54087E-007	0.00000E+000	-1.98016E-006	0.00000E+000	4.40717E-004	-3.27672E+002	7	...........
	493	494	3.57373E+000	-5.54195E-007	0.00000E+000	-1.98055E-006	0.00000E+000	4.38917E-004	-3.27672E+002	7	...........
	494	495	3.57373E+000	-5.53777E-007	0.00000E+000	-1.97905E-006	0.00000E+000	4.39200E-004	-3.27672E+002	7	...........
	495	496	3.57373E+000	-5.53432E-007	0.00000E+000	-1.97782E-006	0.00000E+000	4.39133E-004	-3.27672E+002	7	...........
	496	497	3.57372E+000	-5.54039E-007	0.00000E+000	-1.97998E-006	0.00000E+000	4.42350E-004	-3.27672E+002	7	...........
	497	498	3.57372E+000	-5.53845E-007	0.00000E+000	-1.97929E-006	0.00000E+000	4.38750E-004	-3.27672E+002	7	...........
	498	499	3.57372E+000	-5.53315E-007	0.00000E+000	-1.97739E-006	0.00000E+000	4.40567E-004	-3.27672E+002	7	...........
	499	500	3.57372E+000	-5.52869E-007	0.00000E+000	-1.97580E-006	0.00000E+000	4.38467E-004	-3.27672E+002	7	...........
	500	501	3.57371E+000	-5.53113E-007	0.00000E+000	-1.97667E-006	0.00000E+000	4.38883E-004	-3.27672E+002	7	...........
	501	502	3.57371E+000	-5.53570E-007	0.00000E+000	-1.97830E-006	0.00000E+000	4.38250E-004	-3.27672E+002	7	...........
	502	503	3.57370E+000	-5.53248E-007	0.00000E+000	-1.97714E-006	0.00000E+000	4.38517E-004	-3.27672E+002	7	...........
	503	504	3.57370E+000	-5.53557E-007	0.00000E+000	-1.97824E-006	0.00000E+000	4.41517E-004	-3.27672E+002	7	...........
	504	505	3.57370E+000	-5.53069E-007	0.00000E+000	-1.97650E-006	0.00000E+000	4.42633E-004	-3.27672E+002	7	...........
	505	506	3.57369E+000	-5.52317E-007	0.00000E+000	-1.97381E-006	0.00000E+000	4.39333E-004	-3.27672E+002	7	...........
	506	507	3.57369E+000	-5.52044E-007	0.00000E+000	-1.97283E-006	0.00000E+000	4.39783E-004	-3.27672E+002	7	...........
	507	508	3.57368E+000	-5.52562E-007	0.00000E+000	-1.97468E-006	0.00000E+000	4.41050E-004	-3.27672E+002	7	...........
	508	509	3.57368E+000	-5.52060E-007	0.00000E+000	-1.97289E-006	0.00000E+000	4.40450E-004	-3.27672E+002	7	...........
	509	510	3.57367E+000	-5.52128E-007	0.00000E+000	-1.97312E-006	0.00000E+000	4.42550E-004	-3.27672E+002	7	...........
	510	511	3.57366E+000	-5.52848E-007	0.00000E+000	-1.97569E-006	0.00000E+000	4.41133E-004	-3.27672E+002	7	...........
	511	512	3.57367E+000	-5.52836E-007	0.00000E+000	-1.97565E-006	0.00000E+000	4.41050E-004	-3.27672E+002	7	...........
	512	513	3.57367E+000	-5.52736E-007	0.00000E+000	-1.97530E-006	0.00000E+000	4.40883E-004	-3.27672E+002	7	...........
	513	514	3.57367E+000	-5.52865E-007	0.00000E+000	-1.97576E-006	0.00000E+000	4.37117E-004	-3.27672E+002	7	...........
	514	515	3.57366E+000	-5.53468E-007	0.00000E+000	-1.97791E-006	0.00000E+000	4.36667E-004	-3.27672E+002	7	...........
	515	516	3.57366E+000	-5.53267E-007	0.00000E+000	-1.97719E-006	0.00000E+000	4.40433E-004	-3.27672E+002	7	...........
	516	517	3.57365E+000	-5.53970E-007	0.00000E+000	-1.97970E-006	0.00000E+000	4.39617E-004	-3.27672E+002	7	...........
	517	518	3.57365E+000	-5.53996E-007	0.00000E+000	-1.97978E-006	0.00000E+000	4.37367E-004	-3.27672E+002	7	...........
	518	519	3.57364E+000	-5.53889E-007	0.00000E+000	-1.97940E-006	0.00000E+000	4.38667E-004	-3.27672E+002	7	...........
	519	520	3.57363E+000	-5.53788E-007	0.00000E+000	-1.97904E-006	0.00000E+000	4.41417E-004	-3.27672E+002	7	...........
	520	521	3.57362E+000	-5.53217E-007	0.00000E+000	-1.97699E-006	0.00000E+000	4.39050E-004	-3.27672E+002	7	...........
	521	522	3.57363E+000	-5.53156E-007	0.00000E+000	-1.97677E-006	0.00000E+000	4.41600E-004	-3.27672E+002	7	...........
	522	523	3.57363E+000	-5.53082E-007	0.00000E+000	-1.97651E-006	0.00000E+000	4.41333E-004	-3.27672E+002	7	...........
	523	524	3.57362E+000	-5.53311E-007	0.00000E+000	-1.97732E-006	0.00000E+000	4.40900E-004	-3.27672E+002	7	...........
	524	525	3.57362E+000	-5.53143E-007	0.00000E+000	-1.97672E-006	0.00000E+000	4.42633E-004	-3.27672E+002	7	...........
	525	526	3.57362E+000	-5.52854E-007	0.00000E+000	-1.97569E-006	0.00000E+000	4.41733E-004	-3.27672E+002	7	...........
	526	527	3.57362E+000	-5.52558E-007	0.00000E+000	-1.97463E-006	0.00000E+000	4.41933E-004	-3.27672E+002	7	...........
	527	528	3.57361E+000	-5.53575E-007	0.00000E+000	-1.97826E-006	0.00000E+000	4.42200E-004	-3.27672E+002	7	...........
	528	529	3.57360E+000	-5.53730E-007	0.00000E+000	-1.97881E-006	0.00000E+000	4.41533E-004	-3.27672E+002	7	...........
	529	530	3.57360E+000	-5.53813E-007	0.00000E+000	-1.97911E-006	0.00000E+000	4.43617E-004	-3.27672E+002	7	...........
	530	531	3.57359E+000	-5.53297E-007	0.00000E+000	-1.97726E-006	0.00000E+000	4.44433E-004	-3.27672E+002	7	...........
	531	532	3.57359E+000	-5.53679E-007	0.00000E+000	-1.97862E-006	0.00000E+000	4.42883E-004	-3.27672E+002	7	...........
	532	533	3.57359E+000	-5.53530E-007	0.00000E+000	-1.97809E-006	0.00000E+000	4.40567E-004	-3.27672E+002	7	...........
	533	534	3.57359E+000	-5.53291E-007	0.00000E+000	-1.97723E-006	0.00000E+000	4.41517E-004	-3.27672E+002	7	...........
	534	535	3.57358E+000	-5.53683E-007	0.00000E+000	-1.97863E-006	0.00000E+000	4.45367E-004	-3.27672E+002	7	...........
	535	536	3.57358E+000	-5.53745E-007	0.00000E+000	-1.97885E-006	0.00000E+000	4.41517E-004	-3.27672E+002	7	...........
	536	537	3.57358E+000	-5.52929E-007	0.00000E+000	-1.97594E-006	0.00000E+000	4.40700E-004	-3.27672E+002	7	...........
	537	538	3.57358E+000	-5.53106E-007	0.00000E+000	-1.97657E-006	0.00000E+000	4.43600E-004	-3.27672E+002	7	...........
	538	539	3.57358E+000	-5.53334E-007	0.00000E+000	-1.97738E-006	0.00000E+000	4.41283E-004	-3.27672E+002	7	...........
	539	540	3.57357E+000	-5.52445E-007	0.00000E+000	-1.97420E-006	0.00000E+000	4.43200E-004	-3.27672E+002	7	...........
	540	541	3.57356E+000	-5.53294E-007	0.00000E+000	-1.97723E-006	0.00000E+000	4.42150E-004	-3.27672E+002	7	...........
	541	542	3.57356E+000	-5.52846E-007	0.00000E+000	-1.97563E-006	0.00000E+000	4.44800E-004	-3.27672E+002	7	...........
	542	543	3.57354E+000	-5.52664E-007	0.00000E+000	-1.97497E-006	0.00000E+000	4.44133E-004	-3.27672E+002	7	...........
	543	544	3.57355E+000	-5.53121E-007	0.00000E+000	-1.97660E-006	0.00000E+000	4.41400E-004	-3.27672E+002	7	...........
	544	545	3.57355E+000	-5.52791E-007	0.00000E+000	-1.97543E-006	0.00000E+000	4.44867E-004	-3.27672E+002	7	...........
	545	546	3.57354E+000	-5.52854E-007	0.00000E+000	-1.97565E-006	0.00000E+000	4.42500E-004	-3.27672E+002	7	...........
	546	547	3.57355E+000	-5.52720E-007	0.00000E+000	-1.97517E-006	0.00000E+000	4.44600E-004	-3.27672E+002	7	...........
	547	548	3.57355E+000	-5.52201E-007	0.00000E+000	-1.97332E-006	0.00000E+000	4.43850E-004	-3.27672E+002	7	...........
	548	549	3.57354E+000	-5.52756E-007	0.00000E+000	-1.97530E-006	0.00000E+000	4.40233E-004	-3.27672E+002	7	...........
	549	550	3.57354E+000	-5.52744E-007	0.00000E+000	-1.97525E-006	0.00000E+000	4.44183E-004	-3.27672E+002	7	...........
	550	551	3.57353E+000	-5.52110E-007	0.00000E+000	-1.97298E-006	0.00000E+000	4.42117E-004	-3.27672E+002	7	...........
	551	552	3.57353E+000	-5.51435E-007	0.00000E+000	-1.97057E-006	0.00000E+000	4.39550E-004	-3.27672E+002	7	...........
	552	553	3.57353E+000	-5.52526E-007	0.00000E+000	-1.97447E-006	0.00000E+000	4.44683E-004	-3.27672E+002	7	...........
	553	554	3.57353E+000	-5.52482E-007	0.00000E+000	-1.97431E-006	0.00000E+000	4.41133E-004	-3.27672E+002	7	...........
	554	555	3.57353E+000	-5.52287E-007	0.00000E+000	-1.97361E-006	0.00000E+000	4.41900E-004	-3.27672E+002	7	...........
	555	556	3.57352E+000	-5.52408E-007	0.00000E+000	-1.97404E-006	0.00000E+000	4.41533E-004	-3.27672E+002	7	...........
	556	557	3.57352E+000	-5.52693E-007	0.00000E+000	-1.97506E-006	0.00000E+000	4.44383E-004	-3.27672E+002	7	...........
	557	558	3.57351E+000	-5.52361E-007	0.00000E+000	-1.97387E-006	0.00000E+000	4.43517E-004	-3.27672E+002	7	...........
	558	559	3.57351E+000	-5.51919E-007	0.00000E+000	-1.97229E-006	0.00000E+000	4.43650E-004	-3.27672E+002	7	...........
	559	560	3.57349E+000	-5.51377E-007	0.00000E+000	-1.97034E-006	0.00000E+000	4.43650E-004	-3.27672E+002	7	...........
	560	561	3.57350E+000	-5.52030E-007	0.00000E+000	-1.97268E-006	0.00000E+000	4.41633E-004	-3.27672E+002	7	...........
	561	562	3.57350E+000	-5.51570E-007	0.00000E+000	-1.97103E-006	0.00000E+000	4.43700E-004	-3.27672E+002	7	...........
	562	563	3.57350E+000	-5.52277E-007	0.00000E+000	-1.97356E-006	0.00000E+000	4.43183E-004	-3.27672E+002	7	...........
	563	564	3.57350E+000	-5.52061E-007	0.00000E+000	-1.97279E-006	0.00000E+000	4.42983E-004	-3.27672E+002	7	...........
	564	565	3.57349E+000	-5.52302E-007	0.00000E+000	-1.97365E-006	0.00000E+000	4.42600E-004	-3.27672E+002	7	...........
	565	566	3.57348E+000	-5.51535E-007	0.00000E+000	-1.97090E-006	0.00000E+000	4.44750E-004	-3.27672E+002	7	...........
	566	567	3.57349E+000	-5.51741E-007	0.00000E+000	-1.97164E-006	0.00000E+000	4.43400E-004	-3.27672E+002	7	...........
	567	568	3.57349E+000	-5.51505E-007	0.00000E+000	-1.97080E-006	0.00000E+000	4.42783E-004	-3.27672E+002	7	...........
	568	569	3.57348E+000	-5.51975E-007	0.00000E+000	-1.97247E-006	0.00000E+000	4.41917E-004	-3.27672E+002	7	...........
	569	570	3.57348E+000	-5.51548E-007	0.00000E+000	-1.97095E-006	0.00000E+000	4.42233E-004	-3.27672E+002	7	...........
	570	571	3.57348E+000	-5.52576E-007	0.00000E+000	-1.97462E-006	0.00000E+000	4.42583E-004	-3.27672E+002	7	...........
	571	572	3.57348E+000	-5.52108E-007	0.00000E+000	-1.97295E-006	0.00000E+000	4.42433E-004	-3.27672E+002	7	...........
	572	573	3.57348E+000	-5.52229E-007	0.00000E+000	-1.97338E-006	0.00000E+000	4.45217E-004	-3.27672E+002	7	...........
	573	574	3.57347E+000	-5.52918E-007	0.00000E+000	-1.97584E-006	0.00000E+000	4.41433E-004	-3.27672E+002	7	...........
	574	575	3.57347E+000	-5.52833E-007	0.00000E+000	-1.97553E-006	0.00000E+000	4.41733E-004	-3.27672E+002	7	...........
	575	576	3.57347E+000	-5.52845E-007	0.00000E+000	-1.97557E-006	0.00000E+000	4.44350E-004	-3.27672E+002	7	...........
	576	577	3.57346E+000	-5.51977E-007	0.00000E+000	-1.97247E-006	0.00000E+000	4.43417E-004	-3.27672E+002	7	...........
	577	578	3.57346E+000	-5.52577E-007	0.00000E+000	-1.97461E-006	0.00000E+000	4.40800E-004	-3.27672E+002	7	...........
	578	579	3.57345E+000	-5.52389E-007	0.00000E+000	-1.97394E-006	0.00000E+000	4.44250E-004	-3.27672E+002	7	...........
	579	580	3.57346E+000	-5.52220E-007	0.00000E+000	-1.97334E-006	0.00000E+000	4.46367E-004	-3.27672E+002	7	...........
	580	581	3.57346E+000	-5.52889E-007	0.00000E+000	-1.97572E-006	0.00000E+000	4.44850E-004	-3.27672E+002	7	...........
	581	582	3.57345E+000	-5.52175E-007	0.00000E+000	-1.97317E-006	0.00000E+000	4.45900E-004	-3.27672E+002	7	...........
	582	583	3.57345E+000	-5.52337E-007	0.00000E+000	-1.97375E-006	0.00000E+000	4.43850E-004	-3.27672E+002	7	...........
	583	584	3.57345E+000	-5.52136E-007	0.00000E+000	-1.97303E-006	0.00000E+000	4.43567E-004	-3.27672E+002	7	...........
	584	585	3.57344E+000	-5.52266E-007	0.00000E+000	-1.97349E-006	0.00000E+000	4.41883E-004	-3.27672E+002	7	...........
	585	586	3.57345E+000	-5.51835E-007	0.00000E+000	-1.97195E-006	0.00000E+000	4.42317E-004	-3.27672E+002	7	...........
	586	587	3.57345E+000	-5.51547E-007	0.00000E+000	-1.97093E-006	0.00000E+000	4.42067E-004	-3.27672E+002	7	...........
	587	588	3.57344E+000	-5.50438E-007	0.00000E+000	-1.96696E-006	0.00000E+000	4.41533E-004	-3.27672E+002	7	...........
	588	589	3.57344E+000	-5.50298E-007	0.00000E+000	-1.96646E-006	0.00000E+000	4.41617E-004	-3.27672E+002	7	...........
	589	590	3.57343E+000	-5.50455E-007	0.00000E+000	-1.96701E-006	0.00000E+000	4.40350E-004	-3.27672E+002	7	...........
	590	591	3.57343E+000	-5.50667E-007	0.00000E+000	-1.96777E-006	0.00000E+000	4.40017E-004	-3.27672E+002	7	...........
	591	592	3.57343E+000	-5.51309E-007	0.00000E+000	-1.97007E-006	0.00000E+000	4.41567E-004	-3.27672E+002	7	...........
	592	593	3.57343E+000	-5.51444E-007	0.00000E+000	-1.97055E-006	0.00000E+000	4.41867E-004	-3.27672E+002	7	...........
	593	594	3.57341E+000	-5.51412E-007	0.00000E+000	-1.97042E-006	0.00000E+000	4.43583E-004	-3.27672E+002	7	...........
	594	595	3.57341E+000	-5.51312E-007	0.00000E+000	-1.97007E-006	0.00000E+000	4.42500E-004	-3.27672E+002	7	...........
	595	596	3.57342E+000	-5.51525E-007	0.00000E+000	-1.97083E-006	0.00000E+000	4.40700E-004	-3.27672E+002	7	...........
	596	597	3.57341E+000	-5.51453E-007	0.00000E+000	-1.97057E-006	0.00000E+000	4.39117E-004	-3.27672E+002	7	...........
	597	598	3.57340E+000	-5.52015E-007	0.00000E+000	-1.97257E-006	0.00000E+000	4.39300E-004	-3.27672E+002	7	...........
	598	599	3.57340E+000	-5.52225E-007	0.00000E+000	-1.97332E-006	0.00000E+000	4.41917E-004	-3.27672E+002	7	...........
	599	600	3.57340E+000	-5.52264E-007	0.00000E+000	-1.97346E-006	0.00000E+000	4.42017E-004	-3.27672E+002	7	...........
