EXPLAIN
TAG	PWR800_READVOLTAGE
TITLE	LABEL	PWR Read Voltage	Test Identifier
DATE	LABEL	2.2.2024	Date
TIME	LABEL	23:44:34	Time
NOTES	NOTES	1	Notes...
	
PSTAT	PSTAT	REF600-12055	Potentiostat
CAPACITY	QUANT	1.00000E+000	Capacity (A-hr)
CELLTYPE	SELECTOR	1	Cell Type
WORKINGCONNECTION	SELECTOR	0	Working Connection
MAXTIME	VARIABLEANDUNITS	6.00000E+002	s	6.00000E+002	second(s)	Max Time
SAMPLETIME	QUANT	1.00000E+000	Sample Period (s)
STOPAT1	MULTIPARAM	0	0.00000E+000	Stop At 1	None	N/A
STOPAT2	MULTIPARAM	0	0.00000E+000	Stop At 2	None	N/A
AESBHCSELECTOR	TOGGLE	F	Save Both Half Cells
EOC	QUANT	3.719764	Open Circuit (V)
SEQUENCER	TOGGLE	TRUE	Run as Sequence
PSTATMODEL	IQUANT	4	Pstat Model
PSTATSECTION	LABEL	REF600-12055	Pstat Section
PSTATSERIALNO	LABEL	12055	Pstat Serial Number
CTRLMODE	IQUANT	0	Control Mode
ELECTROMETER	IQUANT	0	RE=0 or CS=1
IESTAB	IQUANT	0	I/E Stability
CASPEED	IQUANT	4	Control Amp Speed
CONVENTION	IQUANT	1	Current Convention
ICHRANGE	IQUANT	2	Ich Range
ICHRANGEMODE	TOGGLE	T	Ich Auto Range
ICHOFFSETENABLE	TOGGLE	F	Ich Offset Enable
ICHOFFSET	QUANT	0	Ich Offset (V)
ICHFILTER	IQUANT	1	Ich Filter
VCHRANGE	IQUANT	3	Vch Range
VCHRANGEMODE	TOGGLE	T	Vch Auto Range
VCHOFFSETENABLE	TOGGLE	F	Vch Offset Enable
VCHOFFSET	QUANT	0	Vch Offset (V)
VCHFILTER	IQUANT	1	Vch Filter
ACHRANGE	IQUANT	2	Ach Range
ACHOFFSETENABLE	TOGGLE	F	Ach Offset Enable
ACHOFFSET	QUANT	0	Ach Offset (V)
ACHFILTER	IQUANT	1	Ach Filter
IERANGELOWERLIMIT	IQUANT	7	I/E Range Lower Limit
IERANGEMODE	TOGGLE	F	I/E AutoRange
IERANGE	IQUANT	11	I/E Range
POSFEEDENABLE	TOGGLE	F	Positive Feedback IR Comp
POSFEEDRESISTANCE	QUANT	0	Positive Feedback Resistance (ohm)
ACHSELECT	IQUANT	4	Ach Select
SENSECABLEID	IQUANT	14	Sense Cable ID
PWRCABLEID	IQUANT	14	Power Cable ID
DCCALDATE	LABEL		DC Calibration Date
ACCALDATE	LABEL		AC Calibration Date
THERMOSELECT	IQUANT	1	Thermo Select
FRAMEWORKVERSION	LABEL	7.10.3	Framework Version
INSTRUMENTVERSION	LABEL	4.91	Instrument Version
COMMVERSION	LABEL	2.24	Communications Version
CPUPLDVERSION	LABEL	0.00	CPU PLD Version
CTRLPLDVERSION	LABEL	0.00	CTRL PLD Version
PSTATPLDVERSION	LABEL	0.00	PSTAT PLD Version
CURVE	TABLE	600
	Pt	T	Vf	Im	Vu	Pwr	Sig	Ach	Temp	IERange	Over
	#	s	V	A	V	W	V	V	deg C	#	bits
	0	1	3.82686E+000	-1.25996E-006	0.00000E+000	-4.82168E-006	0.00000E+000	6.76683E-004	-3.27672E+002	7	...........
	1	2	3.82643E+000	-1.25931E-006	0.00000E+000	-4.81866E-006	0.00000E+000	6.75883E-004	-3.27672E+002	7	...........
	2	3	3.82610E+000	-1.25901E-006	0.00000E+000	-4.81709E-006	0.00000E+000	6.77433E-004	-3.27672E+002	7	...........
	3	4	3.82584E+000	-1.25904E-006	0.00000E+000	-4.81689E-006	0.00000E+000	6.75767E-004	-3.27672E+002	7	...........
	4	5	3.82563E+000	-1.25843E-006	0.00000E+000	-4.81430E-006	0.00000E+000	6.74100E-004	-3.27672E+002	7	...........
	5	6	3.82544E+000	-1.25784E-006	0.00000E+000	-4.81179E-006	0.00000E+000	6.71217E-004	-3.27672E+002	7	...........
	6	7	3.82526E+000	-1.25764E-006	0.00000E+000	-4.81080E-006	0.00000E+000	6.72383E-004	-3.27672E+002	7	...........
	7	8	3.82509E+000	-1.25721E-006	0.00000E+000	-4.80894E-006	0.00000E+000	6.77367E-004	-3.27672E+002	7	...........
	8	9	3.82493E+000	-1.25680E-006	0.00000E+000	-4.80717E-006	0.00000E+000	6.80117E-004	-3.27672E+002	7	...........
	9	10	3.82477E+000	-1.25754E-006	0.00000E+000	-4.80980E-006	0.00000E+000	6.81950E-004	-3.27672E+002	7	...........
	10	11	3.82462E+000	-1.25740E-006	0.00000E+000	-4.80907E-006	0.00000E+000	6.85100E-004	-3.27672E+002	7	...........
	11	12	3.82448E+000	-1.25712E-006	0.00000E+000	-4.80782E-006	0.00000E+000	6.86767E-004	-3.27672E+002	7	...........
	12	13	3.82434E+000	-1.25732E-006	0.00000E+000	-4.80840E-006	0.00000E+000	6.86133E-004	-3.27672E+002	7	...........
	13	14	3.82421E+000	-1.25689E-006	0.00000E+000	-4.80660E-006	0.00000E+000	6.87150E-004	-3.27672E+002	7	...........
	14	15	3.82409E+000	-1.25633E-006	0.00000E+000	-4.80431E-006	0.00000E+000	6.83250E-004	-3.27672E+002	7	...........
	15	16	3.82398E+000	-1.25607E-006	0.00000E+000	-4.80320E-006	0.00000E+000	6.84400E-004	-3.27672E+002	7	...........
	16	17	3.82386E+000	-1.25575E-006	0.00000E+000	-4.80183E-006	0.00000E+000	6.77900E-004	-3.27672E+002	7	...........
	17	18	3.82376E+000	-1.25528E-006	0.00000E+000	-4.79988E-006	0.00000E+000	6.81200E-004	-3.27672E+002	7	...........
	18	19	3.82366E+000	-1.25595E-006	0.00000E+000	-4.80233E-006	0.00000E+000	6.77550E-004	-3.27672E+002	7	...........
	19	20	3.82355E+000	-1.25520E-006	0.00000E+000	-4.79932E-006	0.00000E+000	6.77683E-004	-3.27672E+002	7	...........
	20	21	3.82346E+000	-1.25536E-006	0.00000E+000	-4.79983E-006	0.00000E+000	4.95433E-004	-3.27672E+002	7	...........
	21	22	3.82337E+000	-1.25524E-006	0.00000E+000	-4.79923E-006	0.00000E+000	4.10567E-004	-3.27672E+002	7	...........
	22	23	3.82327E+000	-1.25483E-006	0.00000E+000	-4.79756E-006	0.00000E+000	4.10833E-004	-3.27672E+002	7	...........
	23	24	3.82317E+000	-1.25450E-006	0.00000E+000	-4.79617E-006	0.00000E+000	4.13733E-004	-3.27672E+002	7	...........
	24	25	3.82307E+000	-1.25455E-006	0.00000E+000	-4.79625E-006	0.00000E+000	4.09817E-004	-3.27672E+002	7	...........
	25	26	3.82299E+000	-1.25486E-006	0.00000E+000	-4.79732E-006	0.00000E+000	4.12700E-004	-3.27672E+002	7	...........
	26	27	3.82290E+000	-1.25434E-006	0.00000E+000	-4.79522E-006	0.00000E+000	4.18683E-004	-3.27672E+002	7	...........
	27	28	3.82282E+000	-1.25422E-006	0.00000E+000	-4.79466E-006	0.00000E+000	4.18450E-004	-3.27672E+002	7	...........
	28	29	3.82273E+000	-1.25438E-006	0.00000E+000	-4.79515E-006	0.00000E+000	4.20417E-004	-3.27672E+002	7	...........
	29	30	3.82265E+000	-1.25424E-006	0.00000E+000	-4.79451E-006	0.00000E+000	4.19283E-004	-3.27672E+002	7	...........
	30	31	3.82258E+000	-1.25323E-006	0.00000E+000	-4.79059E-006	0.00000E+000	4.22483E-004	-3.27672E+002	7	...........
	31	32	3.82250E+000	-1.25387E-006	0.00000E+000	-4.79291E-006	0.00000E+000	4.25283E-004	-3.27672E+002	7	...........
	32	33	3.82243E+000	-1.25375E-006	0.00000E+000	-4.79237E-006	0.00000E+000	4.29300E-004	-3.27672E+002	7	...........
	33	34	3.82237E+000	-1.25408E-006	0.00000E+000	-4.79355E-006	0.00000E+000	4.25700E-004	-3.27672E+002	7	...........
	34	35	3.82229E+000	-1.25361E-006	0.00000E+000	-4.79167E-006	0.00000E+000	4.27100E-004	-3.27672E+002	7	...........
	35	36	3.82222E+000	-1.25337E-006	0.00000E+000	-4.79067E-006	0.00000E+000	4.25417E-004	-3.27672E+002	7	...........
	36	37	3.82216E+000	-1.25315E-006	0.00000E+000	-4.78974E-006	0.00000E+000	4.27017E-004	-3.27672E+002	7	...........
	37	38	3.82209E+000	-1.25296E-006	0.00000E+000	-4.78894E-006	0.00000E+000	4.26667E-004	-3.27672E+002	7	...........
	38	39	3.82204E+000	-1.25255E-006	0.00000E+000	-4.78729E-006	0.00000E+000	4.28033E-004	-3.27672E+002	7	...........
	39	40	3.82198E+000	-1.25263E-006	0.00000E+000	-4.78753E-006	0.00000E+000	4.30700E-004	-3.27672E+002	7	...........
	40	41	3.82191E+000	-1.25245E-006	0.00000E+000	-4.78677E-006	0.00000E+000	4.30450E-004	-3.27672E+002	7	...........
	41	42	3.82185E+000	-1.25310E-006	0.00000E+000	-4.78917E-006	0.00000E+000	4.28650E-004	-3.27672E+002	7	...........
	42	43	3.82179E+000	-1.25269E-006	0.00000E+000	-4.78752E-006	0.00000E+000	4.26867E-004	-3.27672E+002	7	...........
	43	44	3.82172E+000	-1.25310E-006	0.00000E+000	-4.78902E-006	0.00000E+000	4.29133E-004	-3.27672E+002	7	...........
	44	45	3.82166E+000	-1.25179E-006	0.00000E+000	-4.78393E-006	0.00000E+000	4.32250E-004	-3.27672E+002	7	...........
	45	46	3.82160E+000	-1.25191E-006	0.00000E+000	-4.78429E-006	0.00000E+000	4.29183E-004	-3.27672E+002	7	...........
	46	47	3.82153E+000	-1.25132E-006	0.00000E+000	-4.78196E-006	0.00000E+000	4.32333E-004	-3.27672E+002	7	...........
	47	48	3.82147E+000	-1.25126E-006	0.00000E+000	-4.78165E-006	0.00000E+000	4.28700E-004	-3.27672E+002	7	...........
	48	49	3.82139E+000	-1.25102E-006	0.00000E+000	-4.78063E-006	0.00000E+000	4.27633E-004	-3.27672E+002	7	...........
	49	50	3.82132E+000	-1.25096E-006	0.00000E+000	-4.78032E-006	0.00000E+000	4.30200E-004	-3.27672E+002	7	...........
	50	51	3.82125E+000	-1.25078E-006	0.00000E+000	-4.77956E-006	0.00000E+000	4.24817E-004	-3.27672E+002	7	...........
	51	52	3.82118E+000	-1.25149E-006	0.00000E+000	-4.78218E-006	0.00000E+000	4.24483E-004	-3.27672E+002	7	...........
	52	53	3.82113E+000	-1.25073E-006	0.00000E+000	-4.77920E-006	0.00000E+000	4.23250E-004	-3.27672E+002	7	...........
	53	54	3.82108E+000	-1.25031E-006	0.00000E+000	-4.77754E-006	0.00000E+000	4.24167E-004	-3.27672E+002	7	...........
	54	55	3.82102E+000	-1.25059E-006	0.00000E+000	-4.77853E-006	0.00000E+000	4.22833E-004	-3.27672E+002	7	...........
	55	56	3.82096E+000	-1.25016E-006	0.00000E+000	-4.77682E-006	0.00000E+000	4.18200E-004	-3.27672E+002	7	...........
	56	57	3.82092E+000	-1.24995E-006	0.00000E+000	-4.77597E-006	0.00000E+000	4.18883E-004	-3.27672E+002	7	...........
	57	58	3.82088E+000	-1.24989E-006	0.00000E+000	-4.77567E-006	0.00000E+000	4.18417E-004	-3.27672E+002	7	...........
	58	59	3.82084E+000	-1.24916E-006	0.00000E+000	-4.77285E-006	0.00000E+000	4.15233E-004	-3.27672E+002	7	...........
	59	60	3.82080E+000	-1.24993E-006	0.00000E+000	-4.77572E-006	0.00000E+000	4.14300E-004	-3.27672E+002	7	...........
	60	61	3.82077E+000	-1.24971E-006	0.00000E+000	-4.77485E-006	0.00000E+000	4.14650E-004	-3.27672E+002	7	...........
	61	62	3.82072E+000	-1.25005E-006	0.00000E+000	-4.77611E-006	0.00000E+000	4.11800E-004	-3.27672E+002	7	...........
	62	63	3.82069E+000	-1.24926E-006	0.00000E+000	-4.77302E-006	0.00000E+000	4.12167E-004	-3.27672E+002	7	...........
	63	64	3.82066E+000	-1.24856E-006	0.00000E+000	-4.77031E-006	0.00000E+000	4.11817E-004	-3.27672E+002	7	...........
	64	65	3.82063E+000	-1.24900E-006	0.00000E+000	-4.77197E-006	0.00000E+000	4.12067E-004	-3.27672E+002	7	...........
	65	66	3.82059E+000	-1.24923E-006	0.00000E+000	-4.77279E-006	0.00000E+000	4.07533E-004	-3.27672E+002	7	...........
	66	67	3.82057E+000	-1.24865E-006	0.00000E+000	-4.77057E-006	0.00000E+000	4.08900E-004	-3.27672E+002	7	...........
	67	68	3.82053E+000	-1.24849E-006	0.00000E+000	-4.76990E-006	0.00000E+000	4.08500E-004	-3.27672E+002	7	...........
	68	69	3.82051E+000	-1.24833E-006	0.00000E+000	-4.76926E-006	0.00000E+000	4.08700E-004	-3.27672E+002	7	...........
	69	70	3.82048E+000	-1.24828E-006	0.00000E+000	-4.76905E-006	0.00000E+000	4.08700E-004	-3.27672E+002	7	...........
	70	71	3.82045E+000	-1.24866E-006	0.00000E+000	-4.77043E-006	0.00000E+000	4.05983E-004	-3.27672E+002	7	...........
	71	72	3.82042E+000	-1.24804E-006	0.00000E+000	-4.76805E-006	0.00000E+000	4.06467E-004	-3.27672E+002	7	...........
	72	73	3.82040E+000	-1.24794E-006	0.00000E+000	-4.76761E-006	0.00000E+000	4.04600E-004	-3.27672E+002	7	...........
	73	74	3.82036E+000	-1.24782E-006	0.00000E+000	-4.76711E-006	0.00000E+000	4.04900E-004	-3.27672E+002	7	...........
	74	75	3.82033E+000	-1.24776E-006	0.00000E+000	-4.76686E-006	0.00000E+000	4.04467E-004	-3.27672E+002	7	...........
	75	76	3.82030E+000	-1.24807E-006	0.00000E+000	-4.76800E-006	0.00000E+000	4.07033E-004	-3.27672E+002	7	...........
	76	77	3.82028E+000	-1.24751E-006	0.00000E+000	-4.76584E-006	0.00000E+000	4.04917E-004	-3.27672E+002	7	...........
	77	78	3.82025E+000	-1.24729E-006	0.00000E+000	-4.76497E-006	0.00000E+000	4.06767E-004	-3.27672E+002	7	...........
	78	79	3.82022E+000	-1.24662E-006	0.00000E+000	-4.76238E-006	0.00000E+000	4.08517E-004	-3.27672E+002	7	...........
	79	80	3.82020E+000	-1.24671E-006	0.00000E+000	-4.76269E-006	0.00000E+000	4.07167E-004	-3.27672E+002	7	...........
	80	81	3.82017E+000	-1.24700E-006	0.00000E+000	-4.76374E-006	0.00000E+000	4.07017E-004	-3.27672E+002	7	...........
	81	82	3.82013E+000	-1.24627E-006	0.00000E+000	-4.76091E-006	0.00000E+000	4.08200E-004	-3.27672E+002	7	...........
	82	83	3.82010E+000	-1.24641E-006	0.00000E+000	-4.76141E-006	0.00000E+000	4.05933E-004	-3.27672E+002	7	...........
	83	84	3.82007E+000	-1.24720E-006	0.00000E+000	-4.76440E-006	0.00000E+000	4.07200E-004	-3.27672E+002	7	...........
	84	85	3.82004E+000	-1.24620E-006	0.00000E+000	-4.76055E-006	0.00000E+000	4.08533E-004	-3.27672E+002	7	...........
	85	86	3.82001E+000	-1.24634E-006	0.00000E+000	-4.76102E-006	0.00000E+000	4.09983E-004	-3.27672E+002	7	...........
	86	87	3.81998E+000	-1.24665E-006	0.00000E+000	-4.76217E-006	0.00000E+000	4.08083E-004	-3.27672E+002	7	...........
	87	88	3.81995E+000	-1.24646E-006	0.00000E+000	-4.76141E-006	0.00000E+000	4.06167E-004	-3.27672E+002	7	...........
	88	89	3.81991E+000	-1.24622E-006	0.00000E+000	-4.76046E-006	0.00000E+000	4.11950E-004	-3.27672E+002	7	...........
	89	90	3.81989E+000	-1.24648E-006	0.00000E+000	-4.76141E-006	0.00000E+000	4.10633E-004	-3.27672E+002	7	...........
	90	91	3.81985E+000	-1.24669E-006	0.00000E+000	-4.76218E-006	0.00000E+000	4.08400E-004	-3.27672E+002	7	...........
	91	92	3.81982E+000	-1.24594E-006	0.00000E+000	-4.75928E-006	0.00000E+000	4.09683E-004	-3.27672E+002	7	...........
	92	93	3.81980E+000	-1.24566E-006	0.00000E+000	-4.75817E-006	0.00000E+000	4.09183E-004	-3.27672E+002	7	...........
	93	94	3.81978E+000	-1.24552E-006	0.00000E+000	-4.75760E-006	0.00000E+000	4.10383E-004	-3.27672E+002	7	...........
	94	95	3.81975E+000	-1.24522E-006	0.00000E+000	-4.75641E-006	0.00000E+000	4.08750E-004	-3.27672E+002	7	...........
	95	96	3.81972E+000	-1.24571E-006	0.00000E+000	-4.75826E-006	0.00000E+000	4.10717E-004	-3.27672E+002	7	...........
	96	97	3.81969E+000	-1.24592E-006	0.00000E+000	-4.75904E-006	0.00000E+000	4.10200E-004	-3.27672E+002	7	...........
	97	98	3.81967E+000	-1.24584E-006	0.00000E+000	-4.75870E-006	0.00000E+000	4.12550E-004	-3.27672E+002	7	...........
	98	99	3.81964E+000	-1.24545E-006	0.00000E+000	-4.75718E-006	0.00000E+000	4.13183E-004	-3.27672E+002	7	...........
	99	100	3.81961E+000	-1.24514E-006	0.00000E+000	-4.75595E-006	0.00000E+000	4.11833E-004	-3.27672E+002	7	...........
	100	101	3.81958E+000	-1.24522E-006	0.00000E+000	-4.75622E-006	0.00000E+000	4.12433E-004	-3.27672E+002	7	...........
	101	102	3.81956E+000	-1.24472E-006	0.00000E+000	-4.75428E-006	0.00000E+000	4.13783E-004	-3.27672E+002	7	...........
	102	103	3.81954E+000	-1.24466E-006	0.00000E+000	-4.75401E-006	0.00000E+000	4.12250E-004	-3.27672E+002	7	...........
	103	104	3.81951E+000	-1.24442E-006	0.00000E+000	-4.75307E-006	0.00000E+000	4.13267E-004	-3.27672E+002	7	...........
	104	105	3.81949E+000	-1.24461E-006	0.00000E+000	-4.75379E-006	0.00000E+000	4.15083E-004	-3.27672E+002	7	...........
	105	106	3.81946E+000	-1.24455E-006	0.00000E+000	-4.75352E-006	0.00000E+000	4.13050E-004	-3.27672E+002	7	...........
	106	107	3.81944E+000	-1.24551E-006	0.00000E+000	-4.75714E-006	0.00000E+000	4.14467E-004	-3.27672E+002	7	...........
	107	108	3.81942E+000	-1.24450E-006	0.00000E+000	-4.75325E-006	0.00000E+000	4.14400E-004	-3.27672E+002	7	...........
	108	109	3.81940E+000	-1.24434E-006	0.00000E+000	-4.75265E-006	0.00000E+000	4.15583E-004	-3.27672E+002	7	...........
	109	110	3.81938E+000	-1.24379E-006	0.00000E+000	-4.75051E-006	0.00000E+000	4.14983E-004	-3.27672E+002	7	...........
	110	111	3.81936E+000	-1.24339E-006	0.00000E+000	-4.74897E-006	0.00000E+000	4.14267E-004	-3.27672E+002	7	...........
	111	112	3.81933E+000	-1.24389E-006	0.00000E+000	-4.75083E-006	0.00000E+000	4.13667E-004	-3.27672E+002	7	...........
	112	113	3.81932E+000	-1.24371E-006	0.00000E+000	-4.75014E-006	0.00000E+000	4.16533E-004	-3.27672E+002	7	...........
	113	114	3.81929E+000	-1.24367E-006	0.00000E+000	-4.74995E-006	0.00000E+000	4.12633E-004	-3.27672E+002	7	...........
	114	115	3.81927E+000	-1.24397E-006	0.00000E+000	-4.75105E-006	0.00000E+000	4.14000E-004	-3.27672E+002	7	...........
	115	116	3.81925E+000	-1.24334E-006	0.00000E+000	-4.74865E-006	0.00000E+000	4.17433E-004	-3.27672E+002	7	...........
	116	117	3.81924E+000	-1.24341E-006	0.00000E+000	-4.74889E-006	0.00000E+000	4.14467E-004	-3.27672E+002	7	...........
	117	118	3.81922E+000	-1.24305E-006	0.00000E+000	-4.74748E-006	0.00000E+000	4.13467E-004	-3.27672E+002	7	...........
	118	119	3.81920E+000	-1.24345E-006	0.00000E+000	-4.74900E-006	0.00000E+000	4.14717E-004	-3.27672E+002	7	...........
	119	120	3.81918E+000	-1.24397E-006	0.00000E+000	-4.75094E-006	0.00000E+000	4.13883E-004	-3.27672E+002	7	...........
	120	121	3.81916E+000	-1.24314E-006	0.00000E+000	-4.74774E-006	0.00000E+000	4.15700E-004	-3.27672E+002	7	...........
	121	122	3.81915E+000	-1.24364E-006	0.00000E+000	-4.74966E-006	0.00000E+000	4.18383E-004	-3.27672E+002	7	...........
	122	123	3.81912E+000	-1.24351E-006	0.00000E+000	-4.74911E-006	0.00000E+000	4.15367E-004	-3.27672E+002	7	...........
	123	124	3.81910E+000	-1.24330E-006	0.00000E+000	-4.74828E-006	0.00000E+000	4.14133E-004	-3.27672E+002	7	...........
	124	125	3.81908E+000	-1.24336E-006	0.00000E+000	-4.74848E-006	0.00000E+000	4.14600E-004	-3.27672E+002	7	...........
	125	126	3.81907E+000	-1.24236E-006	0.00000E+000	-4.74465E-006	0.00000E+000	4.14383E-004	-3.27672E+002	7	...........
	126	127	3.81906E+000	-1.24270E-006	0.00000E+000	-4.74596E-006	0.00000E+000	4.11783E-004	-3.27672E+002	7	...........
	127	128	3.81904E+000	-1.24293E-006	0.00000E+000	-4.74681E-006	0.00000E+000	4.16017E-004	-3.27672E+002	7	...........
	128	129	3.81901E+000	-1.24318E-006	0.00000E+000	-4.74771E-006	0.00000E+000	4.14817E-004	-3.27672E+002	7	...........
	129	130	3.81900E+000	-1.24263E-006	0.00000E+000	-4.74562E-006	0.00000E+000	4.15183E-004	-3.27672E+002	7	...........
	130	131	3.81899E+000	-1.24288E-006	0.00000E+000	-4.74655E-006	0.00000E+000	4.13283E-004	-3.27672E+002	7	...........
	131	132	3.81896E+000	-1.24236E-006	0.00000E+000	-4.74453E-006	0.00000E+000	4.16183E-004	-3.27672E+002	7	...........
	132	133	3.81894E+000	-1.24279E-006	0.00000E+000	-4.74614E-006	0.00000E+000	4.14250E-004	-3.27672E+002	7	...........
	133	134	3.81892E+000	-1.24271E-006	0.00000E+000	-4.74581E-006	0.00000E+000	4.16983E-004	-3.27672E+002	7	...........
	134	135	3.81891E+000	-1.24283E-006	0.00000E+000	-4.74626E-006	0.00000E+000	4.16850E-004	-3.27672E+002	7	...........
	135	136	3.81889E+000	-1.24204E-006	0.00000E+000	-4.74322E-006	0.00000E+000	4.17783E-004	-3.27672E+002	7	...........
	136	137	3.81888E+000	-1.24257E-006	0.00000E+000	-4.74525E-006	0.00000E+000	4.18617E-004	-3.27672E+002	7	...........
	137	138	3.81886E+000	-1.24260E-006	0.00000E+000	-4.74534E-006	0.00000E+000	4.18117E-004	-3.27672E+002	7	...........
	138	139	3.81885E+000	-1.24239E-006	0.00000E+000	-4.74448E-006	0.00000E+000	4.18767E-004	-3.27672E+002	7	...........
	139	140	3.81883E+000	-1.24227E-006	0.00000E+000	-4.74400E-006	0.00000E+000	4.17867E-004	-3.27672E+002	7	...........
	140	141	3.81882E+000	-1.24222E-006	0.00000E+000	-4.74380E-006	0.00000E+000	4.16667E-004	-3.27672E+002	7	...........
	141	142	3.81879E+000	-1.24104E-006	0.00000E+000	-4.73927E-006	0.00000E+000	4.16567E-004	-3.27672E+002	7	...........
	142	143	3.81878E+000	-1.24111E-006	0.00000E+000	-4.73952E-006	0.00000E+000	4.19617E-004	-3.27672E+002	7	...........
	143	144	3.81876E+000	-1.24237E-006	0.00000E+000	-4.74433E-006	0.00000E+000	4.20667E-004	-3.27672E+002	7	...........
	144	145	3.81875E+000	-1.24180E-006	0.00000E+000	-4.74212E-006	0.00000E+000	4.19983E-004	-3.27672E+002	7	...........
	145	146	3.81873E+000	-1.24118E-006	0.00000E+000	-4.73973E-006	0.00000E+000	4.18833E-004	-3.27672E+002	7	...........
	146	147	3.81871E+000	-1.24056E-006	0.00000E+000	-4.73734E-006	0.00000E+000	4.18150E-004	-3.27672E+002	7	...........
	147	148	3.81870E+000	-1.24092E-006	0.00000E+000	-4.73868E-006	0.00000E+000	4.20283E-004	-3.27672E+002	7	...........
	148	149	3.81867E+000	-1.24048E-006	0.00000E+000	-4.73700E-006	0.00000E+000	4.18917E-004	-3.27672E+002	7	...........
	149	150	3.81866E+000	-1.24103E-006	0.00000E+000	-4.73909E-006	0.00000E+000	4.21483E-004	-3.27672E+002	7	...........
	150	151	3.81865E+000	-1.24177E-006	0.00000E+000	-4.74188E-006	0.00000E+000	4.20333E-004	-3.27672E+002	7	...........
	151	152	3.81862E+000	-1.24135E-006	0.00000E+000	-4.74023E-006	0.00000E+000	4.20817E-004	-3.27672E+002	7	...........
	152	153	3.81861E+000	-1.24126E-006	0.00000E+000	-4.73988E-006	0.00000E+000	4.22517E-004	-3.27672E+002	7	...........
	153	154	3.81860E+000	-1.24147E-006	0.00000E+000	-4.74069E-006	0.00000E+000	4.25167E-004	-3.27672E+002	7	...........
	154	155	3.81858E+000	-1.24140E-006	0.00000E+000	-4.74041E-006	0.00000E+000	4.24117E-004	-3.27672E+002	7	...........
	155	156	3.81857E+000	-1.24103E-006	0.00000E+000	-4.73895E-006	0.00000E+000	4.22067E-004	-3.27672E+002	7	...........
	156	157	3.81856E+000	-1.24073E-006	0.00000E+000	-4.73781E-006	0.00000E+000	4.22067E-004	-3.27672E+002	7	...........
	157	158	3.81854E+000	-1.24051E-006	0.00000E+000	-4.73692E-006	0.00000E+000	4.23750E-004	-3.27672E+002	7	...........
	158	159	3.81853E+000	-1.24107E-006	0.00000E+000	-4.73908E-006	0.00000E+000	4.25133E-004	-3.27672E+002	7	...........
	159	160	3.81851E+000	-1.24064E-006	0.00000E+000	-4.73740E-006	0.00000E+000	4.23650E-004	-3.27672E+002	7	...........
	160	161	3.81849E+000	-1.24069E-006	0.00000E+000	-4.73756E-006	0.00000E+000	4.22267E-004	-3.27672E+002	7	...........
	161	162	3.81848E+000	-1.24074E-006	0.00000E+000	-4.73776E-006	0.00000E+000	4.23700E-004	-3.27672E+002	7	...........
	162	163	3.81846E+000	-1.24069E-006	0.00000E+000	-4.73754E-006	0.00000E+000	4.28083E-004	-3.27672E+002	7	...........
	163	164	3.81844E+000	-1.23967E-006	0.00000E+000	-4.73361E-006	0.00000E+000	4.26317E-004	-3.27672E+002	7	...........
	164	165	3.81843E+000	-1.23968E-006	0.00000E+000	-4.73361E-006	0.00000E+000	4.24183E-004	-3.27672E+002	7	...........
	165	166	3.81841E+000	-1.24051E-006	0.00000E+000	-4.73678E-006	0.00000E+000	4.26267E-004	-3.27672E+002	7	...........
	166	167	3.81840E+000	-1.24007E-006	0.00000E+000	-4.73509E-006	0.00000E+000	4.26683E-004	-3.27672E+002	7	...........
	167	168	3.81838E+000	-1.24063E-006	0.00000E+000	-4.73721E-006	0.00000E+000	4.25217E-004	-3.27672E+002	7	...........
	168	169	3.81838E+000	-1.24048E-006	0.00000E+000	-4.73664E-006	0.00000E+000	4.27150E-004	-3.27672E+002	7	...........
	169	170	3.81836E+000	-1.23996E-006	0.00000E+000	-4.73463E-006	0.00000E+000	4.27783E-004	-3.27672E+002	7	...........
	170	171	3.81834E+000	-1.23956E-006	0.00000E+000	-4.73306E-006	0.00000E+000	4.23400E-004	-3.27672E+002	7	...........
	171	172	3.81833E+000	-1.24021E-006	0.00000E+000	-4.73555E-006	0.00000E+000	4.27033E-004	-3.27672E+002	7	...........
	172	173	3.81832E+000	-1.23965E-006	0.00000E+000	-4.73339E-006	0.00000E+000	4.28200E-004	-3.27672E+002	7	...........
	173	174	3.81829E+000	-1.24030E-006	0.00000E+000	-4.73583E-006	0.00000E+000	4.27083E-004	-3.27672E+002	7	...........
	174	175	3.81828E+000	-1.24023E-006	0.00000E+000	-4.73553E-006	0.00000E+000	4.30200E-004	-3.27672E+002	7	...........
	175	176	3.81827E+000	-1.24010E-006	0.00000E+000	-4.73505E-006	0.00000E+000	4.29800E-004	-3.27672E+002	7	...........
	176	177	3.81825E+000	-1.23950E-006	0.00000E+000	-4.73272E-006	0.00000E+000	4.27933E-004	-3.27672E+002	7	...........
	177	178	3.81824E+000	-1.23980E-006	0.00000E+000	-4.73383E-006	0.00000E+000	4.29817E-004	-3.27672E+002	7	...........
	178	179	3.81821E+000	-1.23950E-006	0.00000E+000	-4.73267E-006	0.00000E+000	4.26683E-004	-3.27672E+002	7	...........
	179	180	3.81820E+000	-1.23939E-006	0.00000E+000	-4.73222E-006	0.00000E+000	4.27750E-004	-3.27672E+002	7	...........
	180	181	3.81817E+000	-1.24033E-006	0.00000E+000	-4.73580E-006	0.00000E+000	4.27133E-004	-3.27672E+002	7	...........
	181	182	3.81817E+000	-1.23966E-006	0.00000E+000	-4.73322E-006	0.00000E+000	4.28083E-004	-3.27672E+002	7	...........
	182	183	3.81816E+000	-1.24018E-006	0.00000E+000	-4.73518E-006	0.00000E+000	4.27333E-004	-3.27672E+002	7	...........
	183	184	3.81814E+000	-1.24045E-006	0.00000E+000	-4.73623E-006	0.00000E+000	4.29600E-004	-3.27672E+002	7	...........
	184	185	3.81814E+000	-1.23959E-006	0.00000E+000	-4.73292E-006	0.00000E+000	4.30650E-004	-3.27672E+002	7	...........
	185	186	3.81811E+000	-1.23957E-006	0.00000E+000	-4.73281E-006	0.00000E+000	4.29850E-004	-3.27672E+002	7	...........
	186	187	3.81810E+000	-1.24006E-006	0.00000E+000	-4.73467E-006	0.00000E+000	4.28633E-004	-3.27672E+002	7	...........
	187	188	3.81810E+000	-1.23919E-006	0.00000E+000	-4.73137E-006	0.00000E+000	4.29433E-004	-3.27672E+002	7	...........
	188	189	3.81808E+000	-1.23917E-006	0.00000E+000	-4.73125E-006	0.00000E+000	4.26983E-004	-3.27672E+002	7	...........
	189	190	3.81807E+000	-1.23859E-006	0.00000E+000	-4.72901E-006	0.00000E+000	4.29967E-004	-3.27672E+002	7	...........
	190	191	3.81806E+000	-1.23914E-006	0.00000E+000	-4.73109E-006	0.00000E+000	4.28567E-004	-3.27672E+002	7	...........
	191	192	3.81803E+000	-1.23947E-006	0.00000E+000	-4.73233E-006	0.00000E+000	4.29367E-004	-3.27672E+002	7	...........
	192	193	3.81803E+000	-1.23910E-006	0.00000E+000	-4.73093E-006	0.00000E+000	4.30833E-004	-3.27672E+002	7	...........
	193	194	3.81802E+000	-1.23922E-006	0.00000E+000	-4.73137E-006	0.00000E+000	4.30633E-004	-3.27672E+002	7	...........
	194	195	3.81800E+000	-1.23919E-006	0.00000E+000	-4.73124E-006	0.00000E+000	4.30183E-004	-3.27672E+002	7	...........
	195	196	3.81799E+000	-1.23910E-006	0.00000E+000	-4.73089E-006	0.00000E+000	4.26250E-004	-3.27672E+002	7	...........
	196	197	3.81798E+000	-1.23884E-006	0.00000E+000	-4.72987E-006	0.00000E+000	4.26417E-004	-3.27672E+002	7	...........
	197	198	3.81796E+000	-1.23921E-006	0.00000E+000	-4.73124E-006	0.00000E+000	4.28867E-004	-3.27672E+002	7	...........
	198	199	3.81795E+000	-1.23939E-006	0.00000E+000	-4.73193E-006	0.00000E+000	4.27850E-004	-3.27672E+002	7	...........
	199	200	3.81794E+000	-1.23936E-006	0.00000E+000	-4.73181E-006	0.00000E+000	4.25767E-004	-3.27672E+002	7	...........
	200	201	3.81793E+000	-1.23931E-006	0.00000E+000	-4.73158E-006	0.00000E+000	4.26183E-004	-3.27672E+002	7	...........
	201	202	3.81792E+000	-1.23880E-006	0.00000E+000	-4.72965E-006	0.00000E+000	4.28667E-004	-3.27672E+002	7	...........
	202	203	3.81791E+000	-1.23872E-006	0.00000E+000	-4.72932E-006	0.00000E+000	4.25233E-004	-3.27672E+002	7	...........
	203	204	3.81791E+000	-1.23829E-006	0.00000E+000	-4.72769E-006	0.00000E+000	4.28917E-004	-3.27672E+002	7	...........
	204	205	3.81790E+000	-1.23860E-006	0.00000E+000	-4.72884E-006	0.00000E+000	4.27967E-004	-3.27672E+002	7	...........
	205	206	3.81789E+000	-1.23821E-006	0.00000E+000	-4.72737E-006	0.00000E+000	4.25833E-004	-3.27672E+002	7	...........
	206	207	3.81786E+000	-1.23834E-006	0.00000E+000	-4.72782E-006	0.00000E+000	4.24633E-004	-3.27672E+002	7	...........
	207	208	3.81786E+000	-1.23839E-006	0.00000E+000	-4.72801E-006	0.00000E+000	4.26100E-004	-3.27672E+002	7	...........
	208	209	3.81785E+000	-1.23833E-006	0.00000E+000	-4.72775E-006	0.00000E+000	4.24467E-004	-3.27672E+002	7	...........
	209	210	3.81784E+000	-1.23844E-006	0.00000E+000	-4.72814E-006	0.00000E+000	4.27133E-004	-3.27672E+002	7	...........
	210	211	3.81782E+000	-1.23784E-006	0.00000E+000	-4.72584E-006	0.00000E+000	4.24067E-004	-3.27672E+002	7	...........
	211	212	3.81781E+000	-1.23816E-006	0.00000E+000	-4.72708E-006	0.00000E+000	4.26983E-004	-3.27672E+002	7	...........
	212	213	3.81780E+000	-1.23826E-006	0.00000E+000	-4.72741E-006	0.00000E+000	4.26383E-004	-3.27672E+002	7	...........
	213	214	3.81779E+000	-1.23854E-006	0.00000E+000	-4.72850E-006	0.00000E+000	4.24567E-004	-3.27672E+002	7	...........
	214	215	3.81779E+000	-1.23813E-006	0.00000E+000	-4.72690E-006	0.00000E+000	4.24117E-004	-3.27672E+002	7	...........
	215	216	3.81778E+000	-1.23837E-006	0.00000E+000	-4.72781E-006	0.00000E+000	4.23950E-004	-3.27672E+002	7	...........
	216	217	3.81777E+000	-1.23819E-006	0.00000E+000	-4.72715E-006	0.00000E+000	4.25367E-004	-3.27672E+002	7	...........
	217	218	3.81775E+000	-1.23807E-006	0.00000E+000	-4.72665E-006	0.00000E+000	4.22633E-004	-3.27672E+002	7	...........
	218	219	3.81774E+000	-1.23825E-006	0.00000E+000	-4.72734E-006	0.00000E+000	4.25233E-004	-3.27672E+002	7	...........
	219	220	3.81773E+000	-1.23772E-006	0.00000E+000	-4.72527E-006	0.00000E+000	4.22250E-004	-3.27672E+002	7	...........
	220	221	3.81772E+000	-1.23730E-006	0.00000E+000	-4.72366E-006	0.00000E+000	4.23967E-004	-3.27672E+002	7	...........
	221	222	3.81771E+000	-1.23824E-006	0.00000E+000	-4.72723E-006	0.00000E+000	4.24167E-004	-3.27672E+002	7	...........
	222	223	3.81770E+000	-1.23832E-006	0.00000E+000	-4.72754E-006	0.00000E+000	4.23300E-004	-3.27672E+002	7	...........
	223	224	3.81769E+000	-1.23803E-006	0.00000E+000	-4.72641E-006	0.00000E+000	4.22083E-004	-3.27672E+002	7	...........
	224	225	3.81767E+000	-1.23826E-006	0.00000E+000	-4.72726E-006	0.00000E+000	4.21200E-004	-3.27672E+002	7	...........
	225	226	3.81766E+000	-1.23811E-006	0.00000E+000	-4.72670E-006	0.00000E+000	4.22417E-004	-3.27672E+002	7	...........
	226	227	3.81766E+000	-1.23773E-006	0.00000E+000	-4.72523E-006	0.00000E+000	4.22817E-004	-3.27672E+002	7	...........
	227	228	3.81765E+000	-1.23768E-006	0.00000E+000	-4.72503E-006	0.00000E+000	4.21983E-004	-3.27672E+002	7	...........
	228	229	3.81764E+000	-1.23729E-006	0.00000E+000	-4.72351E-006	0.00000E+000	4.20100E-004	-3.27672E+002	7	...........
	229	230	3.81764E+000	-1.23790E-006	0.00000E+000	-4.72587E-006	0.00000E+000	4.24467E-004	-3.27672E+002	7	...........
	230	231	3.81762E+000	-1.23790E-006	0.00000E+000	-4.72585E-006	0.00000E+000	4.22050E-004	-3.27672E+002	7	...........
	231	232	3.81761E+000	-1.23755E-006	0.00000E+000	-4.72448E-006	0.00000E+000	4.24317E-004	-3.27672E+002	7	...........
	232	233	3.81760E+000	-1.23809E-006	0.00000E+000	-4.72652E-006	0.00000E+000	4.21500E-004	-3.27672E+002	7	...........
	233	234	3.81759E+000	-1.23774E-006	0.00000E+000	-4.72517E-006	0.00000E+000	4.20367E-004	-3.27672E+002	7	...........
	234	235	3.81757E+000	-1.23853E-006	0.00000E+000	-4.72820E-006	0.00000E+000	4.16833E-004	-3.27672E+002	7	...........
	235	236	3.81757E+000	-1.23758E-006	0.00000E+000	-4.72454E-006	0.00000E+000	4.19583E-004	-3.27672E+002	7	...........
	236	237	3.81755E+000	-1.23702E-006	0.00000E+000	-4.72237E-006	0.00000E+000	4.20733E-004	-3.27672E+002	7	...........
	237	238	3.81755E+000	-1.23762E-006	0.00000E+000	-4.72466E-006	0.00000E+000	4.22367E-004	-3.27672E+002	7	...........
	238	239	3.81754E+000	-1.23812E-006	0.00000E+000	-4.72656E-006	0.00000E+000	4.20950E-004	-3.27672E+002	7	...........
	239	240	3.81753E+000	-1.23771E-006	0.00000E+000	-4.72498E-006	0.00000E+000	4.19300E-004	-3.27672E+002	7	...........
	240	241	3.81753E+000	-1.23780E-006	0.00000E+000	-4.72531E-006	0.00000E+000	4.19183E-004	-3.27672E+002	7	...........
	241	242	3.81751E+000	-1.23790E-006	0.00000E+000	-4.72570E-006	0.00000E+000	4.21917E-004	-3.27672E+002	7	...........
	242	243	3.81750E+000	-1.23718E-006	0.00000E+000	-4.72293E-006	0.00000E+000	4.18017E-004	-3.27672E+002	7	...........
	243	244	3.81748E+000	-1.23698E-006	0.00000E+000	-4.72217E-006	0.00000E+000	4.20717E-004	-3.27672E+002	7	...........
	244	245	3.81749E+000	-1.23753E-006	0.00000E+000	-4.72425E-006	0.00000E+000	4.19933E-004	-3.27672E+002	7	...........
	245	246	3.81748E+000	-1.23695E-006	0.00000E+000	-4.72205E-006	0.00000E+000	4.20350E-004	-3.27672E+002	7	...........
	246	247	3.81747E+000	-1.23738E-006	0.00000E+000	-4.72366E-006	0.00000E+000	4.19183E-004	-3.27672E+002	7	...........
	247	248	3.81745E+000	-1.23671E-006	0.00000E+000	-4.72110E-006	0.00000E+000	4.18350E-004	-3.27672E+002	7	...........
	248	249	3.81744E+000	-1.23798E-006	0.00000E+000	-4.72594E-006	0.00000E+000	4.18267E-004	-3.27672E+002	7	...........
	249	250	3.81744E+000	-1.23727E-006	0.00000E+000	-4.72320E-006	0.00000E+000	4.19600E-004	-3.27672E+002	7	...........
	250	251	3.81743E+000	-1.23722E-006	0.00000E+000	-4.72301E-006	0.00000E+000	4.20617E-004	-3.27672E+002	7	...........
	251	252	3.81742E+000	-1.23686E-006	0.00000E+000	-4.72162E-006	0.00000E+000	4.18150E-004	-3.27672E+002	7	...........
	252	253	3.81740E+000	-1.23586E-006	0.00000E+000	-4.71779E-006	0.00000E+000	4.19267E-004	-3.27672E+002	7	...........
	253	254	3.81740E+000	-1.23712E-006	0.00000E+000	-4.72258E-006	0.00000E+000	4.16317E-004	-3.27672E+002	7	...........
	254	255	3.81739E+000	-1.23677E-006	0.00000E+000	-4.72122E-006	0.00000E+000	4.15233E-004	-3.27672E+002	7	...........
	255	256	3.81738E+000	-1.23675E-006	0.00000E+000	-4.72113E-006	0.00000E+000	4.17100E-004	-3.27672E+002	7	...........
	256	257	3.81737E+000	-1.23697E-006	0.00000E+000	-4.72198E-006	0.00000E+000	4.20600E-004	-3.27672E+002	7	...........
	257	258	3.81736E+000	-1.23683E-006	0.00000E+000	-4.72142E-006	0.00000E+000	4.19283E-004	-3.27672E+002	7	...........
	258	259	3.81735E+000	-1.23719E-006	0.00000E+000	-4.72279E-006	0.00000E+000	4.18333E-004	-3.27672E+002	7	...........
	259	260	3.81734E+000	-1.23708E-006	0.00000E+000	-4.72235E-006	0.00000E+000	4.18450E-004	-3.27672E+002	7	...........
	260	261	3.81733E+000	-1.23787E-006	0.00000E+000	-4.72536E-006	0.00000E+000	4.18250E-004	-3.27672E+002	7	...........
	261	262	3.81732E+000	-1.23730E-006	0.00000E+000	-4.72316E-006	0.00000E+000	4.19783E-004	-3.27672E+002	7	...........
	262	263	3.81732E+000	-1.23721E-006	0.00000E+000	-4.72283E-006	0.00000E+000	4.18567E-004	-3.27672E+002	7	...........
	263	264	3.81731E+000	-1.23720E-006	0.00000E+000	-4.72276E-006	0.00000E+000	4.17733E-004	-3.27672E+002	7	...........
	264	265	3.81730E+000	-1.23696E-006	0.00000E+000	-4.72186E-006	0.00000E+000	4.18267E-004	-3.27672E+002	7	...........
	265	266	3.81729E+000	-1.23663E-006	0.00000E+000	-4.72060E-006	0.00000E+000	4.21017E-004	-3.27672E+002	7	...........
	266	267	3.81727E+000	-1.23661E-006	0.00000E+000	-4.72047E-006	0.00000E+000	4.18450E-004	-3.27672E+002	7	...........
	267	268	3.81728E+000	-1.23619E-006	0.00000E+000	-4.71888E-006	0.00000E+000	4.17733E-004	-3.27672E+002	7	...........
	268	269	3.81726E+000	-1.23605E-006	0.00000E+000	-4.71833E-006	0.00000E+000	4.18783E-004	-3.27672E+002	7	...........
	269	270	3.81726E+000	-1.23637E-006	0.00000E+000	-4.71954E-006	0.00000E+000	4.16567E-004	-3.27672E+002	7	...........
	270	271	3.81725E+000	-1.23607E-006	0.00000E+000	-4.71840E-006	0.00000E+000	4.18900E-004	-3.27672E+002	7	...........
	271	272	3.81724E+000	-1.23701E-006	0.00000E+000	-4.72197E-006	0.00000E+000	4.17333E-004	-3.27672E+002	7	...........
	272	273	3.81724E+000	-1.23650E-006	0.00000E+000	-4.72001E-006	0.00000E+000	4.15583E-004	-3.27672E+002	7	...........
	273	274	3.81722E+000	-1.23619E-006	0.00000E+000	-4.71880E-006	0.00000E+000	4.16267E-004	-3.27672E+002	7	...........
	274	275	3.81721E+000	-1.23621E-006	0.00000E+000	-4.71886E-006	0.00000E+000	4.18933E-004	-3.27672E+002	7	...........
	275	276	3.81720E+000	-1.23663E-006	0.00000E+000	-4.72044E-006	0.00000E+000	4.19650E-004	-3.27672E+002	7	...........
	276	277	3.81719E+000	-1.23653E-006	0.00000E+000	-4.72005E-006	0.00000E+000	4.18867E-004	-3.27672E+002	7	...........
	277	278	3.81718E+000	-1.23698E-006	0.00000E+000	-4.72177E-006	0.00000E+000	4.22767E-004	-3.27672E+002	7	...........
	278	279	3.81718E+000	-1.23681E-006	0.00000E+000	-4.72113E-006	0.00000E+000	4.19433E-004	-3.27672E+002	7	...........
	279	280	3.81717E+000	-1.23709E-006	0.00000E+000	-4.72217E-006	0.00000E+000	4.19500E-004	-3.27672E+002	7	...........
	280	281	3.81716E+000	-1.23672E-006	0.00000E+000	-4.72074E-006	0.00000E+000	4.23233E-004	-3.27672E+002	7	...........
	281	282	3.81715E+000	-1.23700E-006	0.00000E+000	-4.72181E-006	0.00000E+000	4.21667E-004	-3.27672E+002	7	...........
	282	283	3.81714E+000	-1.23622E-006	0.00000E+000	-4.71882E-006	0.00000E+000	4.19483E-004	-3.27672E+002	7	...........
	283	284	3.81714E+000	-1.23695E-006	0.00000E+000	-4.72160E-006	0.00000E+000	4.18100E-004	-3.27672E+002	7	...........
	284	285	3.81713E+000	-1.23565E-006	0.00000E+000	-4.71664E-006	0.00000E+000	4.23583E-004	-3.27672E+002	7	...........
	285	286	3.81711E+000	-1.23635E-006	0.00000E+000	-4.71929E-006	0.00000E+000	4.19483E-004	-3.27672E+002	7	...........
	286	287	3.81711E+000	-1.23671E-006	0.00000E+000	-4.72066E-006	0.00000E+000	4.18017E-004	-3.27672E+002	7	...........
	287	288	3.81710E+000	-1.23605E-006	0.00000E+000	-4.71812E-006	0.00000E+000	4.18817E-004	-3.27672E+002	7	...........
	288	289	3.81710E+000	-1.23599E-006	0.00000E+000	-4.71790E-006	0.00000E+000	4.21517E-004	-3.27672E+002	7	...........
	289	290	3.81708E+000	-1.23632E-006	0.00000E+000	-4.71914E-006	0.00000E+000	4.20583E-004	-3.27672E+002	7	...........
	290	291	3.81708E+000	-1.23605E-006	0.00000E+000	-4.71808E-006	0.00000E+000	4.19917E-004	-3.27672E+002	7	...........
	291	292	3.81706E+000	-1.23591E-006	0.00000E+000	-4.71754E-006	0.00000E+000	4.19733E-004	-3.27672E+002	7	...........
	292	293	3.81705E+000	-1.23657E-006	0.00000E+000	-4.72004E-006	0.00000E+000	4.22350E-004	-3.27672E+002	7	...........
	293	294	3.81705E+000	-1.23585E-006	0.00000E+000	-4.71729E-006	0.00000E+000	4.23550E-004	-3.27672E+002	7	...........
	294	295	3.81703E+000	-1.23668E-006	0.00000E+000	-4.72043E-006	0.00000E+000	4.22633E-004	-3.27672E+002	7	...........
	295	296	3.81703E+000	-1.23717E-006	0.00000E+000	-4.72232E-006	0.00000E+000	4.23250E-004	-3.27672E+002	7	...........
	296	297	3.81702E+000	-1.23596E-006	0.00000E+000	-4.71769E-006	0.00000E+000	4.21450E-004	-3.27672E+002	7	...........
	297	298	3.81702E+000	-1.23572E-006	0.00000E+000	-4.71677E-006	0.00000E+000	4.20750E-004	-3.27672E+002	7	...........
	298	299	3.81701E+000	-1.23577E-006	0.00000E+000	-4.71697E-006	0.00000E+000	4.23800E-004	-3.27672E+002	7	...........
	299	300	3.81702E+000	-1.23540E-006	0.00000E+000	-4.71556E-006	0.00000E+000	4.22033E-004	-3.27672E+002	7	...........
	300	301	3.81700E+000	-1.23520E-006	0.00000E+000	-4.71477E-006	0.00000E+000	4.22283E-004	-3.27672E+002	7	...........
	301	302	3.81700E+000	-1.23590E-006	0.00000E+000	-4.71744E-006	0.00000E+000	4.21700E-004	-3.27672E+002	7	...........
	302	303	3.81699E+000	-1.23575E-006	0.00000E+000	-4.71686E-006	0.00000E+000	4.22817E-004	-3.27672E+002	7	...........
	303	304	3.81698E+000	-1.23601E-006	0.00000E+000	-4.71781E-006	0.00000E+000	4.23283E-004	-3.27672E+002	7	...........
	304	305	3.81697E+000	-1.23557E-006	0.00000E+000	-4.71613E-006	0.00000E+000	4.25467E-004	-3.27672E+002	7	...........
	305	306	3.81696E+000	-1.23481E-006	0.00000E+000	-4.71323E-006	0.00000E+000	4.21400E-004	-3.27672E+002	7	...........
	306	307	3.81695E+000	-1.23573E-006	0.00000E+000	-4.71672E-006	0.00000E+000	4.23633E-004	-3.27672E+002	7	...........
	307	308	3.81694E+000	-1.23606E-006	0.00000E+000	-4.71797E-006	0.00000E+000	4.21933E-004	-3.27672E+002	7	...........
	308	309	3.81693E+000	-1.23528E-006	0.00000E+000	-4.71499E-006	0.00000E+000	4.25617E-004	-3.27672E+002	7	...........
	309	310	3.81693E+000	-1.23543E-006	0.00000E+000	-4.71555E-006	0.00000E+000	4.23217E-004	-3.27672E+002	7	...........
	310	311	3.81691E+000	-1.23540E-006	0.00000E+000	-4.71541E-006	0.00000E+000	4.26217E-004	-3.27672E+002	7	...........
	311	312	3.81691E+000	-1.23599E-006	0.00000E+000	-4.71767E-006	0.00000E+000	4.25617E-004	-3.27672E+002	7	...........
	312	313	3.81689E+000	-1.23525E-006	0.00000E+000	-4.71482E-006	0.00000E+000	4.22483E-004	-3.27672E+002	7	...........
	313	314	3.81689E+000	-1.23521E-006	0.00000E+000	-4.71466E-006	0.00000E+000	4.27183E-004	-3.27672E+002	7	...........
	314	315	3.81688E+000	-1.23507E-006	0.00000E+000	-4.71412E-006	0.00000E+000	4.25467E-004	-3.27672E+002	7	...........
	315	316	3.81686E+000	-1.23454E-006	0.00000E+000	-4.71207E-006	0.00000E+000	4.22100E-004	-3.27672E+002	7	...........
	316	317	3.81686E+000	-1.23445E-006	0.00000E+000	-4.71173E-006	0.00000E+000	4.23833E-004	-3.27672E+002	7	...........
	317	318	3.81684E+000	-1.23526E-006	0.00000E+000	-4.71481E-006	0.00000E+000	4.26100E-004	-3.27672E+002	7	...........
	318	319	3.81685E+000	-1.23577E-006	0.00000E+000	-4.71673E-006	0.00000E+000	4.27933E-004	-3.27672E+002	7	...........
	319	320	3.81684E+000	-1.23548E-006	0.00000E+000	-4.71562E-006	0.00000E+000	4.27700E-004	-3.27672E+002	7	...........
	320	321	3.81683E+000	-1.23492E-006	0.00000E+000	-4.71349E-006	0.00000E+000	4.26333E-004	-3.27672E+002	7	...........
	321	322	3.81682E+000	-1.23462E-006	0.00000E+000	-4.71233E-006	0.00000E+000	4.27850E-004	-3.27672E+002	7	...........
	322	323	3.81682E+000	-1.23496E-006	0.00000E+000	-4.71362E-006	0.00000E+000	4.26650E-004	-3.27672E+002	7	...........
	323	324	3.81680E+000	-1.23511E-006	0.00000E+000	-4.71415E-006	0.00000E+000	4.27133E-004	-3.27672E+002	7	...........
	324	325	3.81680E+000	-1.23551E-006	0.00000E+000	-4.71570E-006	0.00000E+000	4.24267E-004	-3.27672E+002	7	...........
	325	326	3.81679E+000	-1.23549E-006	0.00000E+000	-4.71559E-006	0.00000E+000	4.26600E-004	-3.27672E+002	7	...........
	326	327	3.81678E+000	-1.23622E-006	0.00000E+000	-4.71839E-006	0.00000E+000	4.27917E-004	-3.27672E+002	7	...........
	327	328	3.81677E+000	-1.23555E-006	0.00000E+000	-4.71581E-006	0.00000E+000	4.27500E-004	-3.27672E+002	7	...........
	328	329	3.81676E+000	-1.23572E-006	0.00000E+000	-4.71643E-006	0.00000E+000	4.27067E-004	-3.27672E+002	7	...........
	329	330	3.81675E+000	-1.23537E-006	0.00000E+000	-4.71508E-006	0.00000E+000	4.28033E-004	-3.27672E+002	7	...........
	330	331	3.81675E+000	-1.23587E-006	0.00000E+000	-4.71701E-006	0.00000E+000	4.27900E-004	-3.27672E+002	7	...........
	331	332	3.81674E+000	-1.23529E-006	0.00000E+000	-4.71478E-006	0.00000E+000	4.26300E-004	-3.27672E+002	7	...........
	332	333	3.81672E+000	-1.23448E-006	0.00000E+000	-4.71166E-006	0.00000E+000	4.29150E-004	-3.27672E+002	7	...........
	333	334	3.81673E+000	-1.23520E-006	0.00000E+000	-4.71441E-006	0.00000E+000	4.29967E-004	-3.27672E+002	7	...........
	334	335	3.81673E+000	-1.23543E-006	0.00000E+000	-4.71530E-006	0.00000E+000	4.28100E-004	-3.27672E+002	7	...........
	335	336	3.81671E+000	-1.23539E-006	0.00000E+000	-4.71511E-006	0.00000E+000	4.29967E-004	-3.27672E+002	7	...........
	336	337	3.81671E+000	-1.23457E-006	0.00000E+000	-4.71201E-006	0.00000E+000	4.32650E-004	-3.27672E+002	7	...........
	337	338	3.81669E+000	-1.23456E-006	0.00000E+000	-4.71192E-006	0.00000E+000	4.28467E-004	-3.27672E+002	7	...........
	338	339	3.81669E+000	-1.23498E-006	0.00000E+000	-4.71355E-006	0.00000E+000	4.31200E-004	-3.27672E+002	7	...........
	339	340	3.81668E+000	-1.23488E-006	0.00000E+000	-4.71316E-006	0.00000E+000	4.32450E-004	-3.27672E+002	7	...........
	340	341	3.81668E+000	-1.23520E-006	0.00000E+000	-4.71437E-006	0.00000E+000	4.29867E-004	-3.27672E+002	7	...........
	341	342	3.81667E+000	-1.23523E-006	0.00000E+000	-4.71448E-006	0.00000E+000	4.31850E-004	-3.27672E+002	7	...........
	342	343	3.81666E+000	-1.23538E-006	0.00000E+000	-4.71503E-006	0.00000E+000	4.31433E-004	-3.27672E+002	7	...........
	343	344	3.81665E+000	-1.23534E-006	0.00000E+000	-4.71485E-006	0.00000E+000	4.32600E-004	-3.27672E+002	7	...........
	344	345	3.81664E+000	-1.23537E-006	0.00000E+000	-4.71495E-006	0.00000E+000	4.31050E-004	-3.27672E+002	7	...........
	345	346	3.81663E+000	-1.23614E-006	0.00000E+000	-4.71787E-006	0.00000E+000	4.33133E-004	-3.27672E+002	7	...........
	346	347	3.81663E+000	-1.23520E-006	0.00000E+000	-4.71428E-006	0.00000E+000	4.33067E-004	-3.27672E+002	7	...........
	347	348	3.81662E+000	-1.23488E-006	0.00000E+000	-4.71306E-006	0.00000E+000	4.32150E-004	-3.27672E+002	7	...........
	348	349	3.81661E+000	-1.23480E-006	0.00000E+000	-4.71275E-006	0.00000E+000	4.30350E-004	-3.27672E+002	7	...........
	349	350	3.81660E+000	-1.23461E-006	0.00000E+000	-4.71202E-006	0.00000E+000	4.31950E-004	-3.27672E+002	7	...........
	350	351	3.81660E+000	-1.23465E-006	0.00000E+000	-4.71218E-006	0.00000E+000	4.30300E-004	-3.27672E+002	7	...........
	351	352	3.81659E+000	-1.23442E-006	0.00000E+000	-4.71126E-006	0.00000E+000	4.32750E-004	-3.27672E+002	7	...........
	352	353	3.81660E+000	-1.23441E-006	0.00000E+000	-4.71125E-006	0.00000E+000	4.31183E-004	-3.27672E+002	7	...........
	353	354	3.81657E+000	-1.23484E-006	0.00000E+000	-4.71287E-006	0.00000E+000	4.34683E-004	-3.27672E+002	7	...........
	354	355	3.81657E+000	-1.23440E-006	0.00000E+000	-4.71119E-006	0.00000E+000	4.33617E-004	-3.27672E+002	7	...........
	355	356	3.81656E+000	-1.23469E-006	0.00000E+000	-4.71227E-006	0.00000E+000	4.33283E-004	-3.27672E+002	7	...........
	356	357	3.81656E+000	-1.23542E-006	0.00000E+000	-4.71505E-006	0.00000E+000	4.34433E-004	-3.27672E+002	7	...........
	357	358	3.81655E+000	-1.23530E-006	0.00000E+000	-4.71460E-006	0.00000E+000	4.34333E-004	-3.27672E+002	7	...........
	358	359	3.81654E+000	-1.23519E-006	0.00000E+000	-4.71415E-006	0.00000E+000	4.32133E-004	-3.27672E+002	7	...........
	359	360	3.81653E+000	-1.23495E-006	0.00000E+000	-4.71323E-006	0.00000E+000	4.30683E-004	-3.27672E+002	7	...........
	360	361	3.81653E+000	-1.23565E-006	0.00000E+000	-4.71589E-006	0.00000E+000	4.31283E-004	-3.27672E+002	7	...........
	361	362	3.81653E+000	-1.23534E-006	0.00000E+000	-4.71470E-006	0.00000E+000	4.34083E-004	-3.27672E+002	7	...........
	362	363	3.81652E+000	-1.23521E-006	0.00000E+000	-4.71421E-006	0.00000E+000	4.34800E-004	-3.27672E+002	7	...........
	363	364	3.81651E+000	-1.23482E-006	0.00000E+000	-4.71272E-006	0.00000E+000	4.33167E-004	-3.27672E+002	7	...........
	364	365	3.81649E+000	-1.23338E-006	0.00000E+000	-4.70720E-006	0.00000E+000	4.33033E-004	-3.27672E+002	7	...........
	365	366	3.81649E+000	-1.23422E-006	0.00000E+000	-4.71039E-006	0.00000E+000	4.34733E-004	-3.27672E+002	7	...........
	366	367	3.81648E+000	-1.23486E-006	0.00000E+000	-4.71280E-006	0.00000E+000	4.34500E-004	-3.27672E+002	7	...........
	367	368	3.81647E+000	-1.23435E-006	0.00000E+000	-4.71087E-006	0.00000E+000	4.33017E-004	-3.27672E+002	7	...........
	368	369	3.81647E+000	-1.23411E-006	0.00000E+000	-4.70996E-006	0.00000E+000	4.31517E-004	-3.27672E+002	7	...........
	369	370	3.81646E+000	-1.23377E-006	0.00000E+000	-4.70866E-006	0.00000E+000	4.34367E-004	-3.27672E+002	7	...........
	370	371	3.81646E+000	-1.23350E-006	0.00000E+000	-4.70759E-006	0.00000E+000	4.30333E-004	-3.27672E+002	7	...........
	371	372	3.81646E+000	-1.23402E-006	0.00000E+000	-4.70958E-006	0.00000E+000	4.32283E-004	-3.27672E+002	7	...........
	372	373	3.81645E+000	-1.23424E-006	0.00000E+000	-4.71040E-006	0.00000E+000	4.31983E-004	-3.27672E+002	7	...........
	373	374	3.81645E+000	-1.23483E-006	0.00000E+000	-4.71265E-006	0.00000E+000	4.32283E-004	-3.27672E+002	7	...........
	374	375	3.81643E+000	-1.23428E-006	0.00000E+000	-4.71053E-006	0.00000E+000	4.33800E-004	-3.27672E+002	7	...........
	375	376	3.81642E+000	-1.23482E-006	0.00000E+000	-4.71259E-006	0.00000E+000	4.31800E-004	-3.27672E+002	7	...........
	376	377	3.81642E+000	-1.23487E-006	0.00000E+000	-4.71277E-006	0.00000E+000	4.34283E-004	-3.27672E+002	7	...........
	377	378	3.81641E+000	-1.23418E-006	0.00000E+000	-4.71012E-006	0.00000E+000	4.34450E-004	-3.27672E+002	7	...........
	378	379	3.81640E+000	-1.23451E-006	0.00000E+000	-4.71139E-006	0.00000E+000	4.35167E-004	-3.27672E+002	7	...........
	379	380	3.81639E+000	-1.23447E-006	0.00000E+000	-4.71120E-006	0.00000E+000	4.34117E-004	-3.27672E+002	7	...........
	380	381	3.81639E+000	-1.23309E-006	0.00000E+000	-4.70595E-006	0.00000E+000	4.32150E-004	-3.27672E+002	7	...........
	381	382	3.81638E+000	-1.23454E-006	0.00000E+000	-4.71149E-006	0.00000E+000	4.35600E-004	-3.27672E+002	7	...........
	382	383	3.81637E+000	-1.23472E-006	0.00000E+000	-4.71214E-006	0.00000E+000	4.35300E-004	-3.27672E+002	7	...........
	383	384	3.81637E+000	-1.23525E-006	0.00000E+000	-4.71417E-006	0.00000E+000	4.36567E-004	-3.27672E+002	7	...........
	384	385	3.81637E+000	-1.23492E-006	0.00000E+000	-4.71289E-006	0.00000E+000	4.35900E-004	-3.27672E+002	7	...........
	385	386	3.81636E+000	-1.23418E-006	0.00000E+000	-4.71008E-006	0.00000E+000	4.34833E-004	-3.27672E+002	7	...........
	386	387	3.81635E+000	-1.23501E-006	0.00000E+000	-4.71323E-006	0.00000E+000	4.39400E-004	-3.27672E+002	7	...........
	387	388	3.81635E+000	-1.23441E-006	0.00000E+000	-4.71092E-006	0.00000E+000	4.34017E-004	-3.27672E+002	7	...........
	388	389	3.81635E+000	-1.23405E-006	0.00000E+000	-4.70957E-006	0.00000E+000	4.35750E-004	-3.27672E+002	7	...........
	389	390	3.81633E+000	-1.23436E-006	0.00000E+000	-4.71074E-006	0.00000E+000	4.36433E-004	-3.27672E+002	7	...........
	390	391	3.81633E+000	-1.23428E-006	0.00000E+000	-4.71041E-006	0.00000E+000	4.34967E-004	-3.27672E+002	7	...........
	391	392	3.81631E+000	-1.23430E-006	0.00000E+000	-4.71047E-006	0.00000E+000	4.37783E-004	-3.27672E+002	7	...........
	392	393	3.81632E+000	-1.23512E-006	0.00000E+000	-4.71362E-006	0.00000E+000	4.38167E-004	-3.27672E+002	7	...........
	393	394	3.81631E+000	-1.23432E-006	0.00000E+000	-4.71055E-006	0.00000E+000	4.36750E-004	-3.27672E+002	7	...........
	394	395	3.81630E+000	-1.23407E-006	0.00000E+000	-4.70959E-006	0.00000E+000	4.35717E-004	-3.27672E+002	7	...........
	395	396	3.81629E+000	-1.23466E-006	0.00000E+000	-4.71181E-006	0.00000E+000	4.35933E-004	-3.27672E+002	7	...........
	396	397	3.81630E+000	-1.23413E-006	0.00000E+000	-4.70982E-006	0.00000E+000	4.38200E-004	-3.27672E+002	7	...........
	397	398	3.81629E+000	-1.23432E-006	0.00000E+000	-4.71052E-006	0.00000E+000	4.38033E-004	-3.27672E+002	7	...........
	398	399	3.81628E+000	-1.23456E-006	0.00000E+000	-4.71142E-006	0.00000E+000	4.36667E-004	-3.27672E+002	7	...........
	399	400	3.81628E+000	-1.23426E-006	0.00000E+000	-4.71029E-006	0.00000E+000	4.36700E-004	-3.27672E+002	7	...........
	400	401	3.81626E+000	-1.23408E-006	0.00000E+000	-4.70959E-006	0.00000E+000	4.36433E-004	-3.27672E+002	7	...........
	401	402	3.81626E+000	-1.23408E-006	0.00000E+000	-4.70956E-006	0.00000E+000	4.35133E-004	-3.27672E+002	7	...........
	402	403	3.81626E+000	-1.23380E-006	0.00000E+000	-4.70850E-006	0.00000E+000	4.37300E-004	-3.27672E+002	7	...........
	403	404	3.81626E+000	-1.23385E-006	0.00000E+000	-4.70868E-006	0.00000E+000	4.38633E-004	-3.27672E+002	7	...........
	404	405	3.81624E+000	-1.23344E-006	0.00000E+000	-4.70709E-006	0.00000E+000	4.36267E-004	-3.27672E+002	7	...........
	405	406	3.81624E+000	-1.23374E-006	0.00000E+000	-4.70824E-006	0.00000E+000	4.39800E-004	-3.27672E+002	7	...........
	406	407	3.81623E+000	-1.23419E-006	0.00000E+000	-4.70995E-006	0.00000E+000	4.35467E-004	-3.27672E+002	7	...........
	407	408	3.81623E+000	-1.23397E-006	0.00000E+000	-4.70912E-006	0.00000E+000	4.36050E-004	-3.27672E+002	7	...........
	408	409	3.81622E+000	-1.23416E-006	0.00000E+000	-4.70982E-006	0.00000E+000	4.36600E-004	-3.27672E+002	7	...........
	409	410	3.81621E+000	-1.23435E-006	0.00000E+000	-4.71053E-006	0.00000E+000	4.37317E-004	-3.27672E+002	7	...........
	410	411	3.81620E+000	-1.23376E-006	0.00000E+000	-4.70827E-006	0.00000E+000	4.38450E-004	-3.27672E+002	7	...........
	411	412	3.81620E+000	-1.23471E-006	0.00000E+000	-4.71190E-006	0.00000E+000	4.38550E-004	-3.27672E+002	7	...........
	412	413	3.81620E+000	-1.23394E-006	0.00000E+000	-4.70894E-006	0.00000E+000	4.36933E-004	-3.27672E+002	7	...........
	413	414	3.81619E+000	-1.23415E-006	0.00000E+000	-4.70976E-006	0.00000E+000	4.40417E-004	-3.27672E+002	7	...........
	414	415	3.81620E+000	-1.23448E-006	0.00000E+000	-4.71103E-006	0.00000E+000	4.38983E-004	-3.27672E+002	7	...........
	415	416	3.81618E+000	-1.23455E-006	0.00000E+000	-4.71125E-006	0.00000E+000	4.37617E-004	-3.27672E+002	7	...........
	416	417	3.81617E+000	-1.23419E-006	0.00000E+000	-4.70990E-006	0.00000E+000	4.37633E-004	-3.27672E+002	7	...........
	417	418	3.81617E+000	-1.23447E-006	0.00000E+000	-4.71096E-006	0.00000E+000	4.38950E-004	-3.27672E+002	7	...........
	418	419	3.81616E+000	-1.23377E-006	0.00000E+000	-4.70828E-006	0.00000E+000	4.38083E-004	-3.27672E+002	7	...........
	419	420	3.81615E+000	-1.23486E-006	0.00000E+000	-4.71242E-006	0.00000E+000	4.39767E-004	-3.27672E+002	7	...........
	420	421	3.81615E+000	-1.23421E-006	0.00000E+000	-4.70992E-006	0.00000E+000	4.38283E-004	-3.27672E+002	7	...........
	421	422	3.81614E+000	-1.23386E-006	0.00000E+000	-4.70859E-006	0.00000E+000	4.41433E-004	-3.27672E+002	7	...........
	422	423	3.81614E+000	-1.23429E-006	0.00000E+000	-4.71022E-006	0.00000E+000	4.39817E-004	-3.27672E+002	7	...........
	423	424	3.81612E+000	-1.23447E-006	0.00000E+000	-4.71090E-006	0.00000E+000	4.42567E-004	-3.27672E+002	7	...........
	424	425	3.81612E+000	-1.23443E-006	0.00000E+000	-4.71073E-006	0.00000E+000	4.41600E-004	-3.27672E+002	7	...........
	425	426	3.81612E+000	-1.23495E-006	0.00000E+000	-4.71272E-006	0.00000E+000	4.40200E-004	-3.27672E+002	7	...........
	426	427	3.81611E+000	-1.23428E-006	0.00000E+000	-4.71016E-006	0.00000E+000	4.39283E-004	-3.27672E+002	7	...........
	427	428	3.81610E+000	-1.23465E-006	0.00000E+000	-4.71154E-006	0.00000E+000	4.38483E-004	-3.27672E+002	7	...........
	428	429	3.81610E+000	-1.23379E-006	0.00000E+000	-4.70826E-006	0.00000E+000	4.41717E-004	-3.27672E+002	7	...........
	429	430	3.81609E+000	-1.23309E-006	0.00000E+000	-4.70558E-006	0.00000E+000	4.39783E-004	-3.27672E+002	7	...........
	430	431	3.81608E+000	-1.23348E-006	0.00000E+000	-4.70705E-006	0.00000E+000	4.38617E-004	-3.27672E+002	7	...........
	431	432	3.81607E+000	-1.23365E-006	0.00000E+000	-4.70768E-006	0.00000E+000	4.39750E-004	-3.27672E+002	7	...........
	432	433	3.81607E+000	-1.23323E-006	0.00000E+000	-4.70609E-006	0.00000E+000	4.41700E-004	-3.27672E+002	7	...........
	433	434	3.81606E+000	-1.23357E-006	0.00000E+000	-4.70736E-006	0.00000E+000	4.42400E-004	-3.27672E+002	7	...........
	434	435	3.81606E+000	-1.23315E-006	0.00000E+000	-4.70575E-006	0.00000E+000	4.40350E-004	-3.27672E+002	7	...........
	435	436	3.81605E+000	-1.23355E-006	0.00000E+000	-4.70731E-006	0.00000E+000	4.42867E-004	-3.27672E+002	7	...........
	436	437	3.81605E+000	-1.23378E-006	0.00000E+000	-4.70815E-006	0.00000E+000	4.39333E-004	-3.27672E+002	7	...........
	437	438	3.81604E+000	-1.23427E-006	0.00000E+000	-4.71003E-006	0.00000E+000	4.39600E-004	-3.27672E+002	7	...........
	438	439	3.81604E+000	-1.23330E-006	0.00000E+000	-4.70631E-006	0.00000E+000	4.43133E-004	-3.27672E+002	7	...........
	439	440	3.81603E+000	-1.23386E-006	0.00000E+000	-4.70844E-006	0.00000E+000	4.39833E-004	-3.27672E+002	7	...........
	440	441	3.81602E+000	-1.23449E-006	0.00000E+000	-4.71082E-006	0.00000E+000	4.39283E-004	-3.27672E+002	7	...........
	441	442	3.81601E+000	-1.23385E-006	0.00000E+000	-4.70840E-006	0.00000E+000	4.40967E-004	-3.27672E+002	7	...........
	442	443	3.81602E+000	-1.23433E-006	0.00000E+000	-4.71023E-006	0.00000E+000	4.39600E-004	-3.27672E+002	7	...........
	443	444	3.81600E+000	-1.23393E-006	0.00000E+000	-4.70869E-006	0.00000E+000	4.40617E-004	-3.27672E+002	7	...........
	444	445	3.81601E+000	-1.23364E-006	0.00000E+000	-4.70758E-006	0.00000E+000	4.39700E-004	-3.27672E+002	7	...........
	445	446	3.81599E+000	-1.23308E-006	0.00000E+000	-4.70543E-006	0.00000E+000	4.41067E-004	-3.27672E+002	7	...........
	446	447	3.81598E+000	-1.23361E-006	0.00000E+000	-4.70744E-006	0.00000E+000	4.41433E-004	-3.27672E+002	7	...........
	447	448	3.81598E+000	-1.23349E-006	0.00000E+000	-4.70696E-006	0.00000E+000	4.40950E-004	-3.27672E+002	7	...........
	448	449	3.81598E+000	-1.23338E-006	0.00000E+000	-4.70654E-006	0.00000E+000	4.40483E-004	-3.27672E+002	7	...........
	449	450	3.81596E+000	-1.23346E-006	0.00000E+000	-4.70685E-006	0.00000E+000	4.41567E-004	-3.27672E+002	7	...........
	450	451	3.81596E+000	-1.23310E-006	0.00000E+000	-4.70546E-006	0.00000E+000	4.40000E-004	-3.27672E+002	7	...........
	451	452	3.81596E+000	-1.23273E-006	0.00000E+000	-4.70407E-006	0.00000E+000	4.41150E-004	-3.27672E+002	7	...........
	452	453	3.81595E+000	-1.23370E-006	0.00000E+000	-4.70774E-006	0.00000E+000	4.40367E-004	-3.27672E+002	7	...........
	453	454	3.81594E+000	-1.23404E-006	0.00000E+000	-4.70902E-006	0.00000E+000	4.40067E-004	-3.27672E+002	7	...........
	454	455	3.81593E+000	-1.23429E-006	0.00000E+000	-4.70995E-006	0.00000E+000	4.42150E-004	-3.27672E+002	7	...........
	455	456	3.81593E+000	-1.23372E-006	0.00000E+000	-4.70781E-006	0.00000E+000	4.39917E-004	-3.27672E+002	7	...........
	456	457	3.81591E+000	-1.23351E-006	0.00000E+000	-4.70698E-006	0.00000E+000	4.44583E-004	-3.27672E+002	7	...........
	457	458	3.81591E+000	-1.23327E-006	0.00000E+000	-4.70605E-006	0.00000E+000	4.45467E-004	-3.27672E+002	7	...........
	458	459	3.81591E+000	-1.23324E-006	0.00000E+000	-4.70595E-006	0.00000E+000	4.45350E-004	-3.27672E+002	7	...........
	459	460	3.81591E+000	-1.23402E-006	0.00000E+000	-4.70890E-006	0.00000E+000	4.44117E-004	-3.27672E+002	7	...........
	460	461	3.81590E+000	-1.23334E-006	0.00000E+000	-4.70629E-006	0.00000E+000	4.41433E-004	-3.27672E+002	7	...........
	461	462	3.81590E+000	-1.23381E-006	0.00000E+000	-4.70807E-006	0.00000E+000	4.44733E-004	-3.27672E+002	7	...........
	462	463	3.81589E+000	-1.23431E-006	0.00000E+000	-4.70998E-006	0.00000E+000	4.44517E-004	-3.27672E+002	7	...........
	463	464	3.81588E+000	-1.23427E-006	0.00000E+000	-4.70982E-006	0.00000E+000	4.44483E-004	-3.27672E+002	7	...........
	464	465	3.81587E+000	-1.23437E-006	0.00000E+000	-4.71020E-006	0.00000E+000	4.42800E-004	-3.27672E+002	7	...........
	465	466	3.81586E+000	-1.23384E-006	0.00000E+000	-4.70815E-006	0.00000E+000	4.42467E-004	-3.27672E+002	7	...........
	466	467	3.81587E+000	-1.23388E-006	0.00000E+000	-4.70832E-006	0.00000E+000	4.40967E-004	-3.27672E+002	7	...........
	467	468	3.81586E+000	-1.23386E-006	0.00000E+000	-4.70825E-006	0.00000E+000	4.41883E-004	-3.27672E+002	7	...........
	468	469	3.81585E+000	-1.23369E-006	0.00000E+000	-4.70757E-006	0.00000E+000	4.46067E-004	-3.27672E+002	7	...........
	469	470	3.81585E+000	-1.23403E-006	0.00000E+000	-4.70885E-006	0.00000E+000	4.42367E-004	-3.27672E+002	7	...........
	470	471	3.81584E+000	-1.23414E-006	0.00000E+000	-4.70926E-006	0.00000E+000	4.44883E-004	-3.27672E+002	7	...........
	471	472	3.81583E+000	-1.23355E-006	0.00000E+000	-4.70701E-006	0.00000E+000	4.42750E-004	-3.27672E+002	7	...........
	472	473	3.81585E+000	-1.23423E-006	0.00000E+000	-4.70963E-006	0.00000E+000	4.44433E-004	-3.27672E+002	7	...........
	473	474	3.81583E+000	-1.23385E-006	0.00000E+000	-4.70816E-006	0.00000E+000	4.44700E-004	-3.27672E+002	7	...........
	474	475	3.81581E+000	-1.23325E-006	0.00000E+000	-4.70585E-006	0.00000E+000	4.42217E-004	-3.27672E+002	7	...........
	475	476	3.81582E+000	-1.23362E-006	0.00000E+000	-4.70728E-006	0.00000E+000	4.45467E-004	-3.27672E+002	7	...........
	476	477	3.81582E+000	-1.23303E-006	0.00000E+000	-4.70503E-006	0.00000E+000	4.43383E-004	-3.27672E+002	7	...........
	477	478	3.81580E+000	-1.23252E-006	0.00000E+000	-4.70304E-006	0.00000E+000	4.43967E-004	-3.27672E+002	7	...........
	478	479	3.81579E+000	-1.23341E-006	0.00000E+000	-4.70644E-006	0.00000E+000	4.44650E-004	-3.27672E+002	7	...........
	479	480	3.81578E+000	-1.23328E-006	0.00000E+000	-4.70591E-006	0.00000E+000	4.43783E-004	-3.27672E+002	7	...........
	480	481	3.81578E+000	-1.23360E-006	0.00000E+000	-4.70715E-006	0.00000E+000	4.43233E-004	-3.27672E+002	7	...........
	481	482	3.81578E+000	-1.23358E-006	0.00000E+000	-4.70706E-006	0.00000E+000	4.43850E-004	-3.27672E+002	7	...........
	482	483	3.81576E+000	-1.23354E-006	0.00000E+000	-4.70691E-006	0.00000E+000	4.44050E-004	-3.27672E+002	7	...........
	483	484	3.81576E+000	-1.23268E-006	0.00000E+000	-4.70362E-006	0.00000E+000	4.44200E-004	-3.27672E+002	7	...........
	484	485	3.81576E+000	-1.23325E-006	0.00000E+000	-4.70580E-006	0.00000E+000	4.42867E-004	-3.27672E+002	7	...........
	485	486	3.81575E+000	-1.23262E-006	0.00000E+000	-4.70336E-006	0.00000E+000	4.41817E-004	-3.27672E+002	7	...........
	486	487	3.81575E+000	-1.23301E-006	0.00000E+000	-4.70487E-006	0.00000E+000	4.46083E-004	-3.27672E+002	7	...........
	487	488	3.81574E+000	-1.23311E-006	0.00000E+000	-4.70524E-006	0.00000E+000	4.44583E-004	-3.27672E+002	7	...........
	488	489	3.81574E+000	-1.23335E-006	0.00000E+000	-4.70616E-006	0.00000E+000	4.44833E-004	-3.27672E+002	7	...........
	489	490	3.81573E+000	-1.23332E-006	0.00000E+000	-4.70600E-006	0.00000E+000	4.46600E-004	-3.27672E+002	7	...........
	490	491	3.81572E+000	-1.23301E-006	0.00000E+000	-4.70484E-006	0.00000E+000	4.45000E-004	-3.27672E+002	7	...........
	491	492	3.81572E+000	-1.23279E-006	0.00000E+000	-4.70397E-006	0.00000E+000	4.45533E-004	-3.27672E+002	7	...........
	492	493	3.81570E+000	-1.23285E-006	0.00000E+000	-4.70420E-006	0.00000E+000	4.45450E-004	-3.27672E+002	7	...........
	493	494	3.81571E+000	-1.23270E-006	0.00000E+000	-4.70363E-006	0.00000E+000	4.43083E-004	-3.27672E+002	7	...........
	494	495	3.81570E+000	-1.23236E-006	0.00000E+000	-4.70230E-006	0.00000E+000	4.43633E-004	-3.27672E+002	7	...........
	495	496	3.81569E+000	-1.23233E-006	0.00000E+000	-4.70217E-006	0.00000E+000	4.44750E-004	-3.27672E+002	7	...........
	496	497	3.81568E+000	-1.23287E-006	0.00000E+000	-4.70424E-006	0.00000E+000	4.45983E-004	-3.27672E+002	7	...........
	497	498	3.81568E+000	-1.23234E-006	0.00000E+000	-4.70222E-006	0.00000E+000	4.46083E-004	-3.27672E+002	7	...........
	498	499	3.81567E+000	-1.23233E-006	0.00000E+000	-4.70217E-006	0.00000E+000	4.46167E-004	-3.27672E+002	7	...........
	499	500	3.81566E+000	-1.23208E-006	0.00000E+000	-4.70120E-006	0.00000E+000	4.45333E-004	-3.27672E+002	7	...........
	500	501	3.81566E+000	-1.23163E-006	0.00000E+000	-4.69949E-006	0.00000E+000	4.48167E-004	-3.27672E+002	7	...........
	501	502	3.81566E+000	-1.23211E-006	0.00000E+000	-4.70131E-006	0.00000E+000	4.46733E-004	-3.27672E+002	7	...........
	502	503	3.81566E+000	-1.23209E-006	0.00000E+000	-4.70125E-006	0.00000E+000	4.45317E-004	-3.27672E+002	7	...........
	503	504	3.81565E+000	-1.23258E-006	0.00000E+000	-4.70310E-006	0.00000E+000	4.46333E-004	-3.27672E+002	7	...........
	504	505	3.81564E+000	-1.23232E-006	0.00000E+000	-4.70210E-006	0.00000E+000	4.46767E-004	-3.27672E+002	7	...........
	505	506	3.81564E+000	-1.23270E-006	0.00000E+000	-4.70354E-006	0.00000E+000	4.44233E-004	-3.27672E+002	7	...........
	506	507	3.81562E+000	-1.23211E-006	0.00000E+000	-4.70127E-006	0.00000E+000	4.48483E-004	-3.27672E+002	7	...........
	507	508	3.81563E+000	-1.23236E-006	0.00000E+000	-4.70224E-006	0.00000E+000	4.46850E-004	-3.27672E+002	7	...........
	508	509	3.81561E+000	-1.23229E-006	0.00000E+000	-4.70193E-006	0.00000E+000	4.44467E-004	-3.27672E+002	7	...........
	509	510	3.81562E+000	-1.23187E-006	0.00000E+000	-4.70033E-006	0.00000E+000	4.47200E-004	-3.27672E+002	7	...........
	510	511	3.81561E+000	-1.23233E-006	0.00000E+000	-4.70208E-006	0.00000E+000	4.46500E-004	-3.27672E+002	7	...........
	511	512	3.81561E+000	-1.23200E-006	0.00000E+000	-4.70084E-006	0.00000E+000	4.43367E-004	-3.27672E+002	7	...........
	512	513	3.81560E+000	-1.23248E-006	0.00000E+000	-4.70267E-006	0.00000E+000	4.45367E-004	-3.27672E+002	7	...........
	513	514	3.81560E+000	-1.23289E-006	0.00000E+000	-4.70423E-006	0.00000E+000	4.46517E-004	-3.27672E+002	7	...........
	514	515	3.81559E+000	-1.23231E-006	0.00000E+000	-4.70199E-006	0.00000E+000	4.47417E-004	-3.27672E+002	7	...........
	515	516	3.81558E+000	-1.23286E-006	0.00000E+000	-4.70408E-006	0.00000E+000	4.48250E-004	-3.27672E+002	7	...........
	516	517	3.81558E+000	-1.23250E-006	0.00000E+000	-4.70270E-006	0.00000E+000	4.46050E-004	-3.27672E+002	7	...........
	517	518	3.81557E+000	-1.23309E-006	0.00000E+000	-4.70493E-006	0.00000E+000	4.44467E-004	-3.27672E+002	7	...........
	518	519	3.81557E+000	-1.23273E-006	0.00000E+000	-4.70356E-006	0.00000E+000	4.45333E-004	-3.27672E+002	7	...........
	519	520	3.81556E+000	-1.23210E-006	0.00000E+000	-4.70116E-006	0.00000E+000	4.46050E-004	-3.27672E+002	7	...........
	520	521	3.81555E+000	-1.23241E-006	0.00000E+000	-4.70233E-006	0.00000E+000	4.44983E-004	-3.27672E+002	7	...........
	521	522	3.81556E+000	-1.23223E-006	0.00000E+000	-4.70163E-006	0.00000E+000	4.47500E-004	-3.27672E+002	7	...........
	522	523	3.81555E+000	-1.23231E-006	0.00000E+000	-4.70194E-006	0.00000E+000	4.46467E-004	-3.27672E+002	7	...........
	523	524	3.81553E+000	-1.23293E-006	0.00000E+000	-4.70429E-006	0.00000E+000	4.44417E-004	-3.27672E+002	7	...........
	524	525	3.81554E+000	-1.23232E-006	0.00000E+000	-4.70197E-006	0.00000E+000	4.46917E-004	-3.27672E+002	7	...........
	525	526	3.81553E+000	-1.23191E-006	0.00000E+000	-4.70040E-006	0.00000E+000	4.45117E-004	-3.27672E+002	7	...........
	526	527	3.81553E+000	-1.23177E-006	0.00000E+000	-4.69984E-006	0.00000E+000	4.45700E-004	-3.27672E+002	7	...........
	527	528	3.81551E+000	-1.23229E-006	0.00000E+000	-4.70182E-006	0.00000E+000	4.45867E-004	-3.27672E+002	7	...........
	528	529	3.81551E+000	-1.23168E-006	0.00000E+000	-4.69950E-006	0.00000E+000	4.45417E-004	-3.27672E+002	7	...........
	529	530	3.81551E+000	-1.23231E-006	0.00000E+000	-4.70191E-006	0.00000E+000	4.47650E-004	-3.27672E+002	7	...........
	530	531	3.81550E+000	-1.23187E-006	0.00000E+000	-4.70021E-006	0.00000E+000	4.45883E-004	-3.27672E+002	7	...........
	531	532	3.81550E+000	-1.23246E-006	0.00000E+000	-4.70245E-006	0.00000E+000	4.48267E-004	-3.27672E+002	7	...........
	532	533	3.81550E+000	-1.23264E-006	0.00000E+000	-4.70316E-006	0.00000E+000	4.45950E-004	-3.27672E+002	7	...........
	533	534	3.81548E+000	-1.23200E-006	0.00000E+000	-4.70068E-006	0.00000E+000	4.46450E-004	-3.27672E+002	7	...........
	534	535	3.81548E+000	-1.23177E-006	0.00000E+000	-4.69980E-006	0.00000E+000	4.45183E-004	-3.27672E+002	7	...........
	535	536	3.81547E+000	-1.23238E-006	0.00000E+000	-4.70210E-006	0.00000E+000	4.47250E-004	-3.27672E+002	7	...........
	536	537	3.81546E+000	-1.23200E-006	0.00000E+000	-4.70063E-006	0.00000E+000	4.49317E-004	-3.27672E+002	7	...........
	537	538	3.81546E+000	-1.23295E-006	0.00000E+000	-4.70427E-006	0.00000E+000	4.48433E-004	-3.27672E+002	7	...........
	538	539	3.81546E+000	-1.23257E-006	0.00000E+000	-4.70280E-006	0.00000E+000	4.48950E-004	-3.27672E+002	7	...........
	539	540	3.81545E+000	-1.23237E-006	0.00000E+000	-4.70204E-006	0.00000E+000	4.48250E-004	-3.27672E+002	7	...........
	540	541	3.81544E+000	-1.23263E-006	0.00000E+000	-4.70305E-006	0.00000E+000	4.47483E-004	-3.27672E+002	7	...........
	541	542	3.81543E+000	-1.23159E-006	0.00000E+000	-4.69906E-006	0.00000E+000	4.47983E-004	-3.27672E+002	7	...........
	542	543	3.81542E+000	-1.23234E-006	0.00000E+000	-4.70190E-006	0.00000E+000	4.46783E-004	-3.27672E+002	7	...........
	543	544	3.81543E+000	-1.23220E-006	0.00000E+000	-4.70136E-006	0.00000E+000	4.46083E-004	-3.27672E+002	7	...........
	544	545	3.81541E+000	-1.23301E-006	0.00000E+000	-4.70443E-006	0.00000E+000	4.44050E-004	-3.27672E+002	7	...........
	545	546	3.81541E+000	-1.23247E-006	0.00000E+000	-4.70240E-006	0.00000E+000	4.46433E-004	-3.27672E+002	7	...........
	546	547	3.81540E+000	-1.23189E-006	0.00000E+000	-4.70014E-006	0.00000E+000	4.44850E-004	-3.27672E+002	7	...........
	547	548	3.81540E+000	-1.23247E-006	0.00000E+000	-4.70236E-006	0.00000E+000	4.46400E-004	-3.27672E+002	7	...........
	548	549	3.81540E+000	-1.23232E-006	0.00000E+000	-4.70179E-006	0.00000E+000	4.46267E-004	-3.27672E+002	7	...........
	549	550	3.81539E+000	-1.23180E-006	0.00000E+000	-4.69980E-006	0.00000E+000	4.45100E-004	-3.27672E+002	7	...........
	550	551	3.81538E+000	-1.23164E-006	0.00000E+000	-4.69919E-006	0.00000E+000	4.44467E-004	-3.27672E+002	7	...........
	551	552	3.81537E+000	-1.23242E-006	0.00000E+000	-4.70215E-006	0.00000E+000	4.47250E-004	-3.27672E+002	7	...........
	552	553	3.81537E+000	-1.23276E-006	0.00000E+000	-4.70344E-006	0.00000E+000	4.45817E-004	-3.27672E+002	7	...........
	553	554	3.81536E+000	-1.23268E-006	0.00000E+000	-4.70312E-006	0.00000E+000	4.47067E-004	-3.27672E+002	7	...........
	554	555	3.81536E+000	-1.23231E-006	0.00000E+000	-4.70173E-006	0.00000E+000	4.45983E-004	-3.27672E+002	7	...........
	555	556	3.81535E+000	-1.23220E-006	0.00000E+000	-4.70127E-006	0.00000E+000	4.44983E-004	-3.27672E+002	7	...........
	556	557	3.81535E+000	-1.23251E-006	0.00000E+000	-4.70243E-006	0.00000E+000	4.49950E-004	-3.27672E+002	7	...........
	557	558	3.81535E+000	-1.23160E-006	0.00000E+000	-4.69897E-006	0.00000E+000	4.47017E-004	-3.27672E+002	7	...........
	558	559	3.81533E+000	-1.23165E-006	0.00000E+000	-4.69917E-006	0.00000E+000	4.48117E-004	-3.27672E+002	7	...........
	559	560	3.81532E+000	-1.23190E-006	0.00000E+000	-4.70009E-006	0.00000E+000	4.47317E-004	-3.27672E+002	7	...........
	560	561	3.81533E+000	-1.23237E-006	0.00000E+000	-4.70190E-006	0.00000E+000	4.48167E-004	-3.27672E+002	7	...........
	561	562	3.81531E+000	-1.23214E-006	0.00000E+000	-4.70102E-006	0.00000E+000	4.45967E-004	-3.27672E+002	7	...........
	562	563	3.81530E+000	-1.23244E-006	0.00000E+000	-4.70212E-006	0.00000E+000	4.49483E-004	-3.27672E+002	7	...........
	563	564	3.81530E+000	-1.23212E-006	0.00000E+000	-4.70090E-006	0.00000E+000	4.49517E-004	-3.27672E+002	7	...........
	564	565	3.81530E+000	-1.23205E-006	0.00000E+000	-4.70063E-006	0.00000E+000	4.48717E-004	-3.27672E+002	7	...........
	565	566	3.81529E+000	-1.23250E-006	0.00000E+000	-4.70236E-006	0.00000E+000	4.46617E-004	-3.27672E+002	7	...........
	566	567	3.81529E+000	-1.23187E-006	0.00000E+000	-4.69995E-006	0.00000E+000	4.47017E-004	-3.27672E+002	7	...........
	567	568	3.81528E+000	-1.23253E-006	0.00000E+000	-4.70244E-006	0.00000E+000	4.47683E-004	-3.27672E+002	7	...........
	568	569	3.81527E+000	-1.23230E-006	0.00000E+000	-4.70157E-006	0.00000E+000	4.48383E-004	-3.27672E+002	7	...........
	569	570	3.81527E+000	-1.23167E-006	0.00000E+000	-4.69916E-006	0.00000E+000	4.48583E-004	-3.27672E+002	7	...........
	570	571	3.81526E+000	-1.23182E-006	0.00000E+000	-4.69969E-006	0.00000E+000	4.49083E-004	-3.27672E+002	7	...........
	571	572	3.81525E+000	-1.23218E-006	0.00000E+000	-4.70108E-006	0.00000E+000	4.48850E-004	-3.27672E+002	7	...........
	572	573	3.81525E+000	-1.23190E-006	0.00000E+000	-4.70002E-006	0.00000E+000	4.49250E-004	-3.27672E+002	7	...........
	573	574	3.81525E+000	-1.23171E-006	0.00000E+000	-4.69930E-006	0.00000E+000	4.45767E-004	-3.27672E+002	7	...........
	574	575	3.81523E+000	-1.23126E-006	0.00000E+000	-4.69756E-006	0.00000E+000	4.46000E-004	-3.27672E+002	7	...........
	575	576	3.81522E+000	-1.23194E-006	0.00000E+000	-4.70014E-006	0.00000E+000	4.47383E-004	-3.27672E+002	7	...........
	576	577	3.81522E+000	-1.23156E-006	0.00000E+000	-4.69869E-006	0.00000E+000	4.47117E-004	-3.27672E+002	7	...........
	577	578	3.81521E+000	-1.23153E-006	0.00000E+000	-4.69853E-006	0.00000E+000	4.46417E-004	-3.27672E+002	7	...........
	578	579	3.81521E+000	-1.23093E-006	0.00000E+000	-4.69624E-006	0.00000E+000	4.46033E-004	-3.27672E+002	7	...........
	579	580	3.81521E+000	-1.23140E-006	0.00000E+000	-4.69806E-006	0.00000E+000	4.49650E-004	-3.27672E+002	7	...........
	580	581	3.81519E+000	-1.23168E-006	0.00000E+000	-4.69911E-006	0.00000E+000	4.49033E-004	-3.27672E+002	7	...........
	581	582	3.81519E+000	-1.23254E-006	0.00000E+000	-4.70238E-006	0.00000E+000	4.47483E-004	-3.27672E+002	7	...........
	582	583	3.81519E+000	-1.23172E-006	0.00000E+000	-4.69925E-006	0.00000E+000	4.48033E-004	-3.27672E+002	7	...........
	583	584	3.81518E+000	-1.23156E-006	0.00000E+000	-4.69861E-006	0.00000E+000	4.50783E-004	-3.27672E+002	7	...........
	584	585	3.81518E+000	-1.23193E-006	0.00000E+000	-4.70003E-006	0.00000E+000	4.47433E-004	-3.27672E+002	7	...........
	585	586	3.81517E+000	-1.23202E-006	0.00000E+000	-4.70038E-006	0.00000E+000	4.50450E-004	-3.27672E+002	7	...........
	586	587	3.81516E+000	-1.23243E-006	0.00000E+000	-4.70194E-006	0.00000E+000	4.50800E-004	-3.27672E+002	7	...........
	587	588	3.81517E+000	-1.23174E-006	0.00000E+000	-4.69930E-006	0.00000E+000	4.49633E-004	-3.27672E+002	7	...........
	588	589	3.81515E+000	-1.23143E-006	0.00000E+000	-4.69809E-006	0.00000E+000	4.48333E-004	-3.27672E+002	7	...........
	589	590	3.81515E+000	-1.23165E-006	0.00000E+000	-4.69891E-006	0.00000E+000	4.49167E-004	-3.27672E+002	7	...........
	590	591	3.81514E+000	-1.23118E-006	0.00000E+000	-4.69711E-006	0.00000E+000	4.47333E-004	-3.27672E+002	7	...........
	591	592	3.81513E+000	-1.23118E-006	0.00000E+000	-4.69712E-006	0.00000E+000	4.48317E-004	-3.27672E+002	7	...........
	592	593	3.81513E+000	-1.23179E-006	0.00000E+000	-4.69945E-006	0.00000E+000	4.45933E-004	-3.27672E+002	7	...........
	593	594	3.81512E+000	-1.23166E-006	0.00000E+000	-4.69895E-006	0.00000E+000	4.47933E-004	-3.27672E+002	7	...........
	594	595	3.81513E+000	-1.23183E-006	0.00000E+000	-4.69960E-006	0.00000E+000	4.50400E-004	-3.27672E+002	7	...........
	595	596	3.81512E+000	-1.23123E-006	0.00000E+000	-4.69730E-006	0.00000E+000	4.49467E-004	-3.27672E+002	7	...........
	596	597	3.81510E+000	-1.23169E-006	0.00000E+000	-4.69904E-006	0.00000E+000	4.50917E-004	-3.27672E+002	7	...........
	597	598	3.81510E+000	-1.23108E-006	0.00000E+000	-4.69669E-006	0.00000E+000	4.49650E-004	-3.27672E+002	7	...........
	598	599	3.81509E+000	-1.23125E-006	0.00000E+000	-4.69734E-006	0.00000E+000	4.49067E-004	-3.27672E+002	7	...........
	599	600	3.81509E+000	-1.23207E-006	0.00000E+000	-4.70045E-006	0.00000E+000	4.47800E-004	-3.27672E+002	7	...........
