EXPLAIN
TAG	PWR800_READVOLTAGE
TITLE	LABEL	PWR Read Voltage	Test Identifier
DATE	LABEL	3.2.2024	Date
TIME	LABEL	1:11:49	Time
NOTES	NOTES	1	Notes...
	
PSTAT	PSTAT	REF600-12055	Potentiostat
CAPACITY	QUANT	1.00000E+000	Capacity (A-hr)
CELLTYPE	SELECTOR	1	Cell Type
WORKINGCONNECTION	SELECTOR	0	Working Connection
MAXTIME	VARIABLEANDUNITS	6.00000E+002	s	6.00000E+002	second(s)	Max Time
SAMPLETIME	QUANT	1.00000E+000	Sample Period (s)
STOPAT1	MULTIPARAM	0	0.00000E+000	Stop At 1	None	N/A
STOPAT2	MULTIPARAM	0	0.00000E+000	Stop At 2	None	N/A
AESBHCSELECTOR	TOGGLE	F	Save Both Half Cells
EOC	QUANT	3.815094	Open Circuit (V)
SEQUENCER	TOGGLE	TRUE	Run as Sequence
PSTATMODEL	IQUANT	4	Pstat Model
PSTATSECTION	LABEL	REF600-12055	Pstat Section
PSTATSERIALNO	LABEL	12055	Pstat Serial Number
CTRLMODE	IQUANT	0	Control Mode
ELECTROMETER	IQUANT	0	RE=0 or CS=1
IESTAB	IQUANT	0	I/E Stability
CASPEED	IQUANT	4	Control Amp Speed
CONVENTION	IQUANT	1	Current Convention
ICHRANGE	IQUANT	2	Ich Range
ICHRANGEMODE	TOGGLE	T	Ich Auto Range
ICHOFFSETENABLE	TOGGLE	F	Ich Offset Enable
ICHOFFSET	QUANT	0	Ich Offset (V)
ICHFILTER	IQUANT	1	Ich Filter
VCHRANGE	IQUANT	3	Vch Range
VCHRANGEMODE	TOGGLE	T	Vch Auto Range
VCHOFFSETENABLE	TOGGLE	F	Vch Offset Enable
VCHOFFSET	QUANT	0	Vch Offset (V)
VCHFILTER	IQUANT	1	Vch Filter
ACHRANGE	IQUANT	2	Ach Range
ACHOFFSETENABLE	TOGGLE	F	Ach Offset Enable
ACHOFFSET	QUANT	0	Ach Offset (V)
ACHFILTER	IQUANT	1	Ach Filter
IERANGELOWERLIMIT	IQUANT	7	I/E Range Lower Limit
IERANGEMODE	TOGGLE	F	I/E AutoRange
IERANGE	IQUANT	11	I/E Range
POSFEEDENABLE	TOGGLE	F	Positive Feedback IR Comp
POSFEEDRESISTANCE	QUANT	0	Positive Feedback Resistance (ohm)
ACHSELECT	IQUANT	4	Ach Select
SENSECABLEID	IQUANT	14	Sense Cable ID
PWRCABLEID	IQUANT	14	Power Cable ID
DCCALDATE	LABEL		DC Calibration Date
ACCALDATE	LABEL		AC Calibration Date
THERMOSELECT	IQUANT	1	Thermo Select
FRAMEWORKVERSION	LABEL	7.10.3	Framework Version
INSTRUMENTVERSION	LABEL	4.91	Instrument Version
COMMVERSION	LABEL	2.24	Communications Version
CPUPLDVERSION	LABEL	0.00	CPU PLD Version
CTRLPLDVERSION	LABEL	0.00	CTRL PLD Version
PSTATPLDVERSION	LABEL	0.00	PSTAT PLD Version
CURVE	TABLE	600
	Pt	T	Vf	Im	Vu	Pwr	Sig	Ach	Temp	IERange	Over
	#	s	V	A	V	W	V	V	deg C	#	bits
	0	1	3.91505E+000	-9.58502E-007	0.00000E+000	-3.75258E-006	0.00000E+000	6.61283E-004	-3.27672E+002	7	...........
	1	2	3.91477E+000	-9.58489E-007	0.00000E+000	-3.75226E-006	0.00000E+000	6.59117E-004	-3.27672E+002	7	...........
	2	3	3.91456E+000	-9.58603E-007	0.00000E+000	-3.75251E-006	0.00000E+000	6.63533E-004	-3.27672E+002	7	...........
	3	4	3.91439E+000	-9.58636E-007	0.00000E+000	-3.75248E-006	0.00000E+000	6.63817E-004	-3.27672E+002	7	...........
	4	5	3.91424E+000	-9.58568E-007	0.00000E+000	-3.75207E-006	0.00000E+000	6.69167E-004	-3.27672E+002	7	...........
	5	6	3.91412E+000	-9.58452E-007	0.00000E+000	-3.75150E-006	0.00000E+000	6.72133E-004	-3.27672E+002	7	...........
	6	7	3.91403E+000	-9.57764E-007	0.00000E+000	-3.74872E-006	0.00000E+000	6.72483E-004	-3.27672E+002	7	...........
	7	8	3.91395E+000	-9.58431E-007	0.00000E+000	-3.75125E-006	0.00000E+000	6.74400E-004	-3.27672E+002	7	...........
	8	9	3.91386E+000	-9.57511E-007	0.00000E+000	-3.74757E-006	0.00000E+000	6.73267E-004	-3.27672E+002	7	...........
	9	10	3.91380E+000	-9.58154E-007	0.00000E+000	-3.75003E-006	0.00000E+000	6.76800E-004	-3.27672E+002	7	...........
	10	11	3.91375E+000	-9.58496E-007	0.00000E+000	-3.75132E-006	0.00000E+000	6.76683E-004	-3.27672E+002	7	...........
	11	12	3.91369E+000	-9.58415E-007	0.00000E+000	-3.75094E-006	0.00000E+000	6.77483E-004	-3.27672E+002	7	...........
	12	13	3.91365E+000	-9.58699E-007	0.00000E+000	-3.75201E-006	0.00000E+000	6.75983E-004	-3.27672E+002	7	...........
	13	14	3.91360E+000	-9.58860E-007	0.00000E+000	-3.75260E-006	0.00000E+000	6.73083E-004	-3.27672E+002	7	...........
	14	15	3.91356E+000	-9.58121E-007	0.00000E+000	-3.74967E-006	0.00000E+000	6.72983E-004	-3.27672E+002	7	...........
	15	16	3.91353E+000	-9.58878E-007	0.00000E+000	-3.75260E-006	0.00000E+000	6.73183E-004	-3.27672E+002	7	...........
	16	17	3.91348E+000	-9.59207E-007	0.00000E+000	-3.75384E-006	0.00000E+000	6.71683E-004	-3.27672E+002	7	...........
	17	18	3.91345E+000	-9.59494E-007	0.00000E+000	-3.75493E-006	0.00000E+000	6.71717E-004	-3.27672E+002	7	...........
	18	19	3.91341E+000	-9.59101E-007	0.00000E+000	-3.75336E-006	0.00000E+000	6.71400E-004	-3.27672E+002	7	...........
	19	20	3.91338E+000	-9.59410E-007	0.00000E+000	-3.75453E-006	0.00000E+000	6.73700E-004	-3.27672E+002	7	...........
	20	21	3.91333E+000	-9.59176E-007	0.00000E+000	-3.75357E-006	0.00000E+000	5.04617E-004	-3.27672E+002	7	...........
	21	22	3.91330E+000	-9.58474E-007	0.00000E+000	-3.75079E-006	0.00000E+000	4.31300E-004	-3.27672E+002	7	...........
	22	23	3.91325E+000	-9.58258E-007	0.00000E+000	-3.74990E-006	0.00000E+000	4.28550E-004	-3.27672E+002	7	...........
	23	24	3.91321E+000	-9.57993E-007	0.00000E+000	-3.74883E-006	0.00000E+000	4.29850E-004	-3.27672E+002	7	...........
	24	25	3.91317E+000	-9.58344E-007	0.00000E+000	-3.75017E-006	0.00000E+000	4.28617E-004	-3.27672E+002	7	...........
	25	26	3.91314E+000	-9.58347E-007	0.00000E+000	-3.75014E-006	0.00000E+000	4.32550E-004	-3.27672E+002	7	...........
	26	27	3.91309E+000	-9.58237E-007	0.00000E+000	-3.74967E-006	0.00000E+000	4.27350E-004	-3.27672E+002	7	...........
	27	28	3.91305E+000	-9.58156E-007	0.00000E+000	-3.74931E-006	0.00000E+000	4.32150E-004	-3.27672E+002	7	...........
	28	29	3.91301E+000	-9.58804E-007	0.00000E+000	-3.75181E-006	0.00000E+000	4.32500E-004	-3.27672E+002	7	...........
	29	30	3.91298E+000	-9.58534E-007	0.00000E+000	-3.75072E-006	0.00000E+000	4.28467E-004	-3.27672E+002	7	...........
	30	31	3.91294E+000	-9.58554E-007	0.00000E+000	-3.75077E-006	0.00000E+000	4.30617E-004	-3.27672E+002	7	...........
	31	32	3.91290E+000	-9.58603E-007	0.00000E+000	-3.75092E-006	0.00000E+000	4.31450E-004	-3.27672E+002	7	...........
	32	33	3.91286E+000	-9.59079E-007	0.00000E+000	-3.75274E-006	0.00000E+000	4.28833E-004	-3.27672E+002	7	...........
	33	34	3.91283E+000	-9.58679E-007	0.00000E+000	-3.75114E-006	0.00000E+000	4.30883E-004	-3.27672E+002	7	...........
	34	35	3.91278E+000	-9.58559E-007	0.00000E+000	-3.75063E-006	0.00000E+000	4.34617E-004	-3.27672E+002	7	...........
	35	36	3.91275E+000	-9.58494E-007	0.00000E+000	-3.75035E-006	0.00000E+000	4.32600E-004	-3.27672E+002	7	...........
	36	37	3.91272E+000	-9.58089E-007	0.00000E+000	-3.74873E-006	0.00000E+000	4.32133E-004	-3.27672E+002	7	...........
	37	38	3.91268E+000	-9.58187E-007	0.00000E+000	-3.74908E-006	0.00000E+000	4.35450E-004	-3.27672E+002	7	...........
	38	39	3.91265E+000	-9.58073E-007	0.00000E+000	-3.74860E-006	0.00000E+000	4.35417E-004	-3.27672E+002	7	...........
	39	40	3.91262E+000	-9.57722E-007	0.00000E+000	-3.74720E-006	0.00000E+000	4.33200E-004	-3.27672E+002	7	...........
	40	41	3.91258E+000	-9.58090E-007	0.00000E+000	-3.74860E-006	0.00000E+000	4.35633E-004	-3.27672E+002	7	...........
	41	42	3.91254E+000	-9.57345E-007	0.00000E+000	-3.74565E-006	0.00000E+000	4.33167E-004	-3.27672E+002	7	...........
	42	43	3.91252E+000	-9.58122E-007	0.00000E+000	-3.74867E-006	0.00000E+000	4.34150E-004	-3.27672E+002	7	...........
	43	44	3.91249E+000	-9.57368E-007	0.00000E+000	-3.74569E-006	0.00000E+000	4.36417E-004	-3.27672E+002	7	...........
	44	45	3.91246E+000	-9.57286E-007	0.00000E+000	-3.74534E-006	0.00000E+000	4.33333E-004	-3.27672E+002	7	...........
	45	46	3.91243E+000	-9.57555E-007	0.00000E+000	-3.74636E-006	0.00000E+000	4.37017E-004	-3.27672E+002	7	...........
	46	47	3.91239E+000	-9.56534E-007	0.00000E+000	-3.74234E-006	0.00000E+000	4.35700E-004	-3.27672E+002	7	...........
	47	48	3.91236E+000	-9.57055E-007	0.00000E+000	-3.74434E-006	0.00000E+000	4.38083E-004	-3.27672E+002	7	...........
	48	49	3.91234E+000	-9.56973E-007	0.00000E+000	-3.74400E-006	0.00000E+000	4.36700E-004	-3.27672E+002	7	...........
	49	50	3.91231E+000	-9.57143E-007	0.00000E+000	-3.74464E-006	0.00000E+000	4.40533E-004	-3.27672E+002	7	...........
	50	51	3.91229E+000	-9.57778E-007	0.00000E+000	-3.74710E-006	0.00000E+000	4.39550E-004	-3.27672E+002	7	...........
	51	52	3.91226E+000	-9.57226E-007	0.00000E+000	-3.74492E-006	0.00000E+000	4.37133E-004	-3.27672E+002	7	...........
	52	53	3.91223E+000	-9.56647E-007	0.00000E+000	-3.74262E-006	0.00000E+000	4.37917E-004	-3.27672E+002	7	...........
	53	54	3.91220E+000	-9.56904E-007	0.00000E+000	-3.74360E-006	0.00000E+000	4.42933E-004	-3.27672E+002	7	...........
	54	55	3.91218E+000	-9.56560E-007	0.00000E+000	-3.74224E-006	0.00000E+000	4.40050E-004	-3.27672E+002	7	...........
	55	56	3.91216E+000	-9.56131E-007	0.00000E+000	-3.74053E-006	0.00000E+000	4.38000E-004	-3.27672E+002	7	...........
	56	57	3.91213E+000	-9.57114E-007	0.00000E+000	-3.74435E-006	0.00000E+000	4.40833E-004	-3.27672E+002	7	...........
	57	58	3.91211E+000	-9.57396E-007	0.00000E+000	-3.74544E-006	0.00000E+000	4.40883E-004	-3.27672E+002	7	...........
	58	59	3.91208E+000	-9.56409E-007	0.00000E+000	-3.74155E-006	0.00000E+000	4.40617E-004	-3.27672E+002	7	...........
	59	60	3.91206E+000	-9.56458E-007	0.00000E+000	-3.74172E-006	0.00000E+000	4.40783E-004	-3.27672E+002	7	...........
	60	61	3.91203E+000	-9.56380E-007	0.00000E+000	-3.74139E-006	0.00000E+000	4.42283E-004	-3.27672E+002	7	...........
	61	62	3.91201E+000	-9.55402E-007	0.00000E+000	-3.73754E-006	0.00000E+000	4.39167E-004	-3.27672E+002	7	...........
	62	63	3.91199E+000	-9.55945E-007	0.00000E+000	-3.73964E-006	0.00000E+000	4.39633E-004	-3.27672E+002	7	...........
	63	64	3.91197E+000	-9.55453E-007	0.00000E+000	-3.73770E-006	0.00000E+000	4.43317E-004	-3.27672E+002	7	...........
	64	65	3.91194E+000	-9.55951E-007	0.00000E+000	-3.73962E-006	0.00000E+000	4.44700E-004	-3.27672E+002	7	...........
	65	66	3.91192E+000	-9.56451E-007	0.00000E+000	-3.74156E-006	0.00000E+000	4.46917E-004	-3.27672E+002	7	...........
	66	67	3.91189E+000	-9.56640E-007	0.00000E+000	-3.74227E-006	0.00000E+000	4.41400E-004	-3.27672E+002	7	...........
	67	68	3.91187E+000	-9.55885E-007	0.00000E+000	-3.73930E-006	0.00000E+000	4.42817E-004	-3.27672E+002	7	...........
	68	69	3.91186E+000	-9.56047E-007	0.00000E+000	-3.73992E-006	0.00000E+000	4.45450E-004	-3.27672E+002	7	...........
	69	70	3.91183E+000	-9.55622E-007	0.00000E+000	-3.73823E-006	0.00000E+000	4.43417E-004	-3.27672E+002	7	...........
	70	71	3.91182E+000	-9.55151E-007	0.00000E+000	-3.73637E-006	0.00000E+000	4.44717E-004	-3.27672E+002	7	...........
	71	72	3.91180E+000	-9.55154E-007	0.00000E+000	-3.73637E-006	0.00000E+000	4.42050E-004	-3.27672E+002	7	...........
	72	73	3.91179E+000	-9.55352E-007	0.00000E+000	-3.73713E-006	0.00000E+000	4.44783E-004	-3.27672E+002	7	...........
	73	74	3.91176E+000	-9.55265E-007	0.00000E+000	-3.73677E-006	0.00000E+000	4.44050E-004	-3.27672E+002	7	...........
	74	75	3.91175E+000	-9.54866E-007	0.00000E+000	-3.73519E-006	0.00000E+000	4.47017E-004	-3.27672E+002	7	...........
	75	76	3.91172E+000	-9.54696E-007	0.00000E+000	-3.73450E-006	0.00000E+000	4.43883E-004	-3.27672E+002	7	...........
	76	77	3.91171E+000	-9.54856E-007	0.00000E+000	-3.73512E-006	0.00000E+000	4.42433E-004	-3.27672E+002	7	...........
	77	78	3.91169E+000	-9.54976E-007	0.00000E+000	-3.73557E-006	0.00000E+000	4.41050E-004	-3.27672E+002	7	...........
	78	79	3.91167E+000	-9.54586E-007	0.00000E+000	-3.73403E-006	0.00000E+000	4.44483E-004	-3.27672E+002	7	...........
	79	80	3.91165E+000	-9.54415E-007	0.00000E+000	-3.73334E-006	0.00000E+000	4.44600E-004	-3.27672E+002	7	...........
	80	81	3.91164E+000	-9.54769E-007	0.00000E+000	-3.73471E-006	0.00000E+000	4.45650E-004	-3.27672E+002	7	...........
	81	82	3.91162E+000	-9.54859E-007	0.00000E+000	-3.73504E-006	0.00000E+000	4.44233E-004	-3.27672E+002	7	...........
	82	83	3.91160E+000	-9.54227E-007	0.00000E+000	-3.73255E-006	0.00000E+000	4.47333E-004	-3.27672E+002	7	...........
	83	84	3.91158E+000	-9.54509E-007	0.00000E+000	-3.73364E-006	0.00000E+000	4.45017E-004	-3.27672E+002	7	...........
	84	85	3.91156E+000	-9.54386E-007	0.00000E+000	-3.73314E-006	0.00000E+000	4.49267E-004	-3.27672E+002	7	...........
	85	86	3.91154E+000	-9.53417E-007	0.00000E+000	-3.72933E-006	0.00000E+000	4.46667E-004	-3.27672E+002	7	...........
	86	87	3.91153E+000	-9.53745E-007	0.00000E+000	-3.73060E-006	0.00000E+000	4.44550E-004	-3.27672E+002	7	...........
	87	88	3.91151E+000	-9.53822E-007	0.00000E+000	-3.73089E-006	0.00000E+000	4.46017E-004	-3.27672E+002	7	...........
	88	89	3.91150E+000	-9.53792E-007	0.00000E+000	-3.73076E-006	0.00000E+000	4.47817E-004	-3.27672E+002	7	...........
	89	90	3.91147E+000	-9.53905E-007	0.00000E+000	-3.73118E-006	0.00000E+000	4.48667E-004	-3.27672E+002	7	...........
	90	91	3.91147E+000	-9.53537E-007	0.00000E+000	-3.72973E-006	0.00000E+000	4.45450E-004	-3.27672E+002	7	...........
	91	92	3.91144E+000	-9.53956E-007	0.00000E+000	-3.73134E-006	0.00000E+000	4.47017E-004	-3.27672E+002	7	...........
	92	93	3.91142E+000	-9.54026E-007	0.00000E+000	-3.73160E-006	0.00000E+000	4.44650E-004	-3.27672E+002	7	...........
	93	94	3.91141E+000	-9.53655E-007	0.00000E+000	-3.73014E-006	0.00000E+000	4.46800E-004	-3.27672E+002	7	...........
	94	95	3.91139E+000	-9.53322E-007	0.00000E+000	-3.72881E-006	0.00000E+000	4.46700E-004	-3.27672E+002	7	...........
	95	96	3.91137E+000	-9.53115E-007	0.00000E+000	-3.72799E-006	0.00000E+000	4.50583E-004	-3.27672E+002	7	...........
	96	97	3.91136E+000	-9.53274E-007	0.00000E+000	-3.72859E-006	0.00000E+000	4.47750E-004	-3.27672E+002	7	...........
	97	98	3.91134E+000	-9.53713E-007	0.00000E+000	-3.73030E-006	0.00000E+000	4.51217E-004	-3.27672E+002	7	...........
	98	99	3.91132E+000	-9.52974E-007	0.00000E+000	-3.72738E-006	0.00000E+000	4.47367E-004	-3.27672E+002	7	...........
	99	100	3.91131E+000	-9.52641E-007	0.00000E+000	-3.72607E-006	0.00000E+000	4.50183E-004	-3.27672E+002	7	...........
	100	101	3.91128E+000	-9.52505E-007	0.00000E+000	-3.72552E-006	0.00000E+000	4.50867E-004	-3.27672E+002	7	...........
	101	102	3.91127E+000	-9.52764E-007	0.00000E+000	-3.72652E-006	0.00000E+000	4.47550E-004	-3.27672E+002	7	...........
	102	103	3.91126E+000	-9.52909E-007	0.00000E+000	-3.72707E-006	0.00000E+000	4.51167E-004	-3.27672E+002	7	...........
	103	104	3.91125E+000	-9.53265E-007	0.00000E+000	-3.72846E-006	0.00000E+000	4.48500E-004	-3.27672E+002	7	...........
	104	105	3.91122E+000	-9.52507E-007	0.00000E+000	-3.72547E-006	0.00000E+000	4.45133E-004	-3.27672E+002	7	...........
	105	106	3.91121E+000	-9.52306E-007	0.00000E+000	-3.72467E-006	0.00000E+000	4.46867E-004	-3.27672E+002	7	...........
	106	107	3.91119E+000	-9.52221E-007	0.00000E+000	-3.72432E-006	0.00000E+000	4.49783E-004	-3.27672E+002	7	...........
	107	108	3.91117E+000	-9.52553E-007	0.00000E+000	-3.72560E-006	0.00000E+000	4.49867E-004	-3.27672E+002	7	...........
	108	109	3.91116E+000	-9.52152E-007	0.00000E+000	-3.72402E-006	0.00000E+000	4.49000E-004	-3.27672E+002	7	...........
	109	110	3.91115E+000	-9.52466E-007	0.00000E+000	-3.72523E-006	0.00000E+000	4.50483E-004	-3.27672E+002	7	...........
	110	111	3.91113E+000	-9.52615E-007	0.00000E+000	-3.72580E-006	0.00000E+000	4.53033E-004	-3.27672E+002	7	...........
	111	112	3.91111E+000	-9.52631E-007	0.00000E+000	-3.72585E-006	0.00000E+000	4.47400E-004	-3.27672E+002	7	...........
	112	113	3.91109E+000	-9.52367E-007	0.00000E+000	-3.72479E-006	0.00000E+000	4.49300E-004	-3.27672E+002	7	...........
	113	114	3.91109E+000	-9.52064E-007	0.00000E+000	-3.72360E-006	0.00000E+000	4.50117E-004	-3.27672E+002	7	...........
	114	115	3.91106E+000	-9.52028E-007	0.00000E+000	-3.72344E-006	0.00000E+000	4.48967E-004	-3.27672E+002	7	...........
	115	116	3.91104E+000	-9.51859E-007	0.00000E+000	-3.72276E-006	0.00000E+000	4.49383E-004	-3.27672E+002	7	...........
	116	117	3.91104E+000	-9.50968E-007	0.00000E+000	-3.71927E-006	0.00000E+000	4.45117E-004	-3.27672E+002	7	...........
	117	118	3.91102E+000	-9.52193E-007	0.00000E+000	-3.72405E-006	0.00000E+000	4.50183E-004	-3.27672E+002	7	...........
	118	119	3.91100E+000	-9.52382E-007	0.00000E+000	-3.72477E-006	0.00000E+000	4.48450E-004	-3.27672E+002	7	...........
	119	120	3.91099E+000	-9.51664E-007	0.00000E+000	-3.72194E-006	0.00000E+000	4.48433E-004	-3.27672E+002	7	...........
	120	121	3.91098E+000	-9.51349E-007	0.00000E+000	-3.72071E-006	0.00000E+000	4.47600E-004	-3.27672E+002	7	...........
	121	122	3.91096E+000	-9.51472E-007	0.00000E+000	-3.72117E-006	0.00000E+000	4.45450E-004	-3.27672E+002	7	...........
	122	123	3.91095E+000	-9.51588E-007	0.00000E+000	-3.72161E-006	0.00000E+000	4.50283E-004	-3.27672E+002	7	...........
	123	124	3.91093E+000	-9.51218E-007	0.00000E+000	-3.72015E-006	0.00000E+000	4.47167E-004	-3.27672E+002	7	...........
	124	125	3.91091E+000	-9.51643E-007	0.00000E+000	-3.72179E-006	0.00000E+000	4.51067E-004	-3.27672E+002	7	...........
	125	126	3.91091E+000	-9.50917E-007	0.00000E+000	-3.71895E-006	0.00000E+000	4.49433E-004	-3.27672E+002	7	...........
	126	127	3.91088E+000	-9.51595E-007	0.00000E+000	-3.72157E-006	0.00000E+000	4.45350E-004	-3.27672E+002	7	...........
	127	128	3.91088E+000	-9.51618E-007	0.00000E+000	-3.72166E-006	0.00000E+000	4.42033E-004	-3.27672E+002	7	...........
	128	129	3.91086E+000	-9.51519E-007	0.00000E+000	-3.72126E-006	0.00000E+000	4.45000E-004	-3.27672E+002	7	...........
	129	130	3.91084E+000	-9.51601E-007	0.00000E+000	-3.72156E-006	0.00000E+000	4.45033E-004	-3.27672E+002	7	...........
	130	131	3.91084E+000	-9.51341E-007	0.00000E+000	-3.72054E-006	0.00000E+000	4.41883E-004	-3.27672E+002	7	...........
	131	132	3.91083E+000	-9.51124E-007	0.00000E+000	-3.71968E-006	0.00000E+000	4.42667E-004	-3.27672E+002	7	...........
	132	133	3.91080E+000	-9.51317E-007	0.00000E+000	-3.72041E-006	0.00000E+000	4.42367E-004	-3.27672E+002	7	...........
	133	134	3.91079E+000	-9.51441E-007	0.00000E+000	-3.72089E-006	0.00000E+000	4.44133E-004	-3.27672E+002	7	...........
	134	135	3.91078E+000	-9.51861E-007	0.00000E+000	-3.72252E-006	0.00000E+000	4.43667E-004	-3.27672E+002	7	...........
	135	136	3.91077E+000	-9.51770E-007	0.00000E+000	-3.72215E-006	0.00000E+000	4.45267E-004	-3.27672E+002	7	...........
	136	137	3.91076E+000	-9.51222E-007	0.00000E+000	-3.72000E-006	0.00000E+000	4.40183E-004	-3.27672E+002	7	...........
	137	138	3.91074E+000	-9.51296E-007	0.00000E+000	-3.72027E-006	0.00000E+000	4.42750E-004	-3.27672E+002	7	...........
	138	139	3.91073E+000	-9.50903E-007	0.00000E+000	-3.71873E-006	0.00000E+000	4.47500E-004	-3.27672E+002	7	...........
	139	140	3.91071E+000	-9.51662E-007	0.00000E+000	-3.72168E-006	0.00000E+000	4.40633E-004	-3.27672E+002	7	...........
	140	141	3.91071E+000	-9.52015E-007	0.00000E+000	-3.72305E-006	0.00000E+000	4.42033E-004	-3.27672E+002	7	...........
	141	142	3.91070E+000	-9.51601E-007	0.00000E+000	-3.72142E-006	0.00000E+000	4.38167E-004	-3.27672E+002	7	...........
	142	143	3.91068E+000	-9.51672E-007	0.00000E+000	-3.72169E-006	0.00000E+000	4.43033E-004	-3.27672E+002	7	...........
	143	144	3.91068E+000	-9.51608E-007	0.00000E+000	-3.72144E-006	0.00000E+000	4.39250E-004	-3.27672E+002	7	...........
	144	145	3.91067E+000	-9.51367E-007	0.00000E+000	-3.72049E-006	0.00000E+000	4.45283E-004	-3.27672E+002	7	...........
	145	146	3.91066E+000	-9.51225E-007	0.00000E+000	-3.71992E-006	0.00000E+000	4.39500E-004	-3.27672E+002	7	...........
	146	147	3.91066E+000	-9.51293E-007	0.00000E+000	-3.72018E-006	0.00000E+000	4.46433E-004	-3.27672E+002	7	...........
	147	148	3.91064E+000	-9.51292E-007	0.00000E+000	-3.72017E-006	0.00000E+000	4.38333E-004	-3.27672E+002	7	...........
	148	149	3.91063E+000	-9.51438E-007	0.00000E+000	-3.72072E-006	0.00000E+000	4.39933E-004	-3.27672E+002	7	...........
	149	150	3.91062E+000	-9.51659E-007	0.00000E+000	-3.72157E-006	0.00000E+000	4.42333E-004	-3.27672E+002	7	...........
	150	151	3.91061E+000	-9.51640E-007	0.00000E+000	-3.72149E-006	0.00000E+000	4.37483E-004	-3.27672E+002	7	...........
	151	152	3.91060E+000	-9.51314E-007	0.00000E+000	-3.72021E-006	0.00000E+000	4.38833E-004	-3.27672E+002	7	...........
	152	153	3.91060E+000	-9.51703E-007	0.00000E+000	-3.72173E-006	0.00000E+000	4.39483E-004	-3.27672E+002	7	...........
	153	154	3.91059E+000	-9.51116E-007	0.00000E+000	-3.71942E-006	0.00000E+000	4.41383E-004	-3.27672E+002	7	...........
	154	155	3.91057E+000	-9.51325E-007	0.00000E+000	-3.72023E-006	0.00000E+000	4.36250E-004	-3.27672E+002	7	...........
	155	156	3.91057E+000	-9.51918E-007	0.00000E+000	-3.72254E-006	0.00000E+000	4.40617E-004	-3.27672E+002	7	...........
	156	157	3.91055E+000	-9.51889E-007	0.00000E+000	-3.72241E-006	0.00000E+000	4.38950E-004	-3.27672E+002	7	...........
	157	158	3.91055E+000	-9.51897E-007	0.00000E+000	-3.72244E-006	0.00000E+000	4.39550E-004	-3.27672E+002	7	...........
	158	159	3.91054E+000	-9.51559E-007	0.00000E+000	-3.72111E-006	0.00000E+000	4.38317E-004	-3.27672E+002	7	...........
	159	160	3.91053E+000	-9.51129E-007	0.00000E+000	-3.71942E-006	0.00000E+000	4.37550E-004	-3.27672E+002	7	...........
	160	161	3.91053E+000	-9.51856E-007	0.00000E+000	-3.72226E-006	0.00000E+000	4.37117E-004	-3.27672E+002	7	...........
	161	162	3.91052E+000	-9.50936E-007	0.00000E+000	-3.71866E-006	0.00000E+000	4.41083E-004	-3.27672E+002	7	...........
	162	163	3.91051E+000	-9.51118E-007	0.00000E+000	-3.71936E-006	0.00000E+000	4.38983E-004	-3.27672E+002	7	...........
	163	164	3.91050E+000	-9.51425E-007	0.00000E+000	-3.72055E-006	0.00000E+000	4.36067E-004	-3.27672E+002	7	...........
	164	165	3.91049E+000	-9.51316E-007	0.00000E+000	-3.72012E-006	0.00000E+000	4.38317E-004	-3.27672E+002	7	...........
	165	166	3.91049E+000	-9.51070E-007	0.00000E+000	-3.71915E-006	0.00000E+000	4.36167E-004	-3.27672E+002	7	...........
	166	167	3.91049E+000	-9.50317E-007	0.00000E+000	-3.71620E-006	0.00000E+000	4.34317E-004	-3.27672E+002	7	...........
	167	168	3.91048E+000	-9.50286E-007	0.00000E+000	-3.71607E-006	0.00000E+000	4.34267E-004	-3.27672E+002	7	...........
	168	169	3.91047E+000	-9.50363E-007	0.00000E+000	-3.71637E-006	0.00000E+000	4.33450E-004	-3.27672E+002	7	...........
	169	170	3.91046E+000	-9.50637E-007	0.00000E+000	-3.71743E-006	0.00000E+000	4.34450E-004	-3.27672E+002	7	...........
	170	171	3.91046E+000	-9.50111E-007	0.00000E+000	-3.71537E-006	0.00000E+000	4.39450E-004	-3.27672E+002	7	...........
	171	172	3.91045E+000	-9.50815E-007	0.00000E+000	-3.71811E-006	0.00000E+000	4.37250E-004	-3.27672E+002	7	...........
	172	173	3.91044E+000	-9.50175E-007	0.00000E+000	-3.71560E-006	0.00000E+000	4.37550E-004	-3.27672E+002	7	...........
	173	174	3.91042E+000	-9.50173E-007	0.00000E+000	-3.71558E-006	0.00000E+000	4.37300E-004	-3.27672E+002	7	...........
	174	175	3.91042E+000	-9.50908E-007	0.00000E+000	-3.71845E-006	0.00000E+000	4.35850E-004	-3.27672E+002	7	...........
	175	176	3.91042E+000	-9.50617E-007	0.00000E+000	-3.71731E-006	0.00000E+000	4.33417E-004	-3.27672E+002	7	...........
	176	177	3.91041E+000	-9.50769E-007	0.00000E+000	-3.71790E-006	0.00000E+000	4.38133E-004	-3.27672E+002	7	...........
	177	178	3.91041E+000	-9.50374E-007	0.00000E+000	-3.71636E-006	0.00000E+000	4.32250E-004	-3.27672E+002	7	...........
	178	179	3.91040E+000	-9.50493E-007	0.00000E+000	-3.71681E-006	0.00000E+000	4.35733E-004	-3.27672E+002	7	...........
	179	180	3.91040E+000	-9.50740E-007	0.00000E+000	-3.71777E-006	0.00000E+000	4.33350E-004	-3.27672E+002	7	...........
	180	181	3.91039E+000	-9.50864E-007	0.00000E+000	-3.71825E-006	0.00000E+000	4.32367E-004	-3.27672E+002	7	...........
	181	182	3.91039E+000	-9.50868E-007	0.00000E+000	-3.71826E-006	0.00000E+000	4.30917E-004	-3.27672E+002	7	...........
	182	183	3.91038E+000	-9.50510E-007	0.00000E+000	-3.71685E-006	0.00000E+000	4.34867E-004	-3.27672E+002	7	...........
	183	184	3.91038E+000	-9.50309E-007	0.00000E+000	-3.71607E-006	0.00000E+000	4.30767E-004	-3.27672E+002	7	...........
	184	185	3.91037E+000	-9.50452E-007	0.00000E+000	-3.71662E-006	0.00000E+000	4.33483E-004	-3.27672E+002	7	...........
	185	186	3.91037E+000	-9.50645E-007	0.00000E+000	-3.71737E-006	0.00000E+000	4.30950E-004	-3.27672E+002	7	...........
	186	187	3.91037E+000	-9.49910E-007	0.00000E+000	-3.71450E-006	0.00000E+000	4.33667E-004	-3.27672E+002	7	...........
	187	188	3.91035E+000	-9.50242E-007	0.00000E+000	-3.71578E-006	0.00000E+000	4.32617E-004	-3.27672E+002	7	...........
	188	189	3.91034E+000	-9.50581E-007	0.00000E+000	-3.71710E-006	0.00000E+000	4.29783E-004	-3.27672E+002	7	...........
	189	190	3.91035E+000	-9.50809E-007	0.00000E+000	-3.71799E-006	0.00000E+000	4.35167E-004	-3.27672E+002	7	...........
	190	191	3.91034E+000	-9.51083E-007	0.00000E+000	-3.71906E-006	0.00000E+000	4.33567E-004	-3.27672E+002	7	...........
	191	192	3.91033E+000	-9.50654E-007	0.00000E+000	-3.71737E-006	0.00000E+000	4.29200E-004	-3.27672E+002	7	...........
	192	193	3.91033E+000	-9.50282E-007	0.00000E+000	-3.71591E-006	0.00000E+000	4.29683E-004	-3.27672E+002	7	...........
	193	194	3.91032E+000	-9.49986E-007	0.00000E+000	-3.71475E-006	0.00000E+000	4.31317E-004	-3.27672E+002	7	...........
	194	195	3.91033E+000	-9.50297E-007	0.00000E+000	-3.71597E-006	0.00000E+000	4.29467E-004	-3.27672E+002	7	...........
	195	196	3.91032E+000	-9.50509E-007	0.00000E+000	-3.71679E-006	0.00000E+000	4.33550E-004	-3.27672E+002	7	...........
	196	197	3.91031E+000	-9.51224E-007	0.00000E+000	-3.71958E-006	0.00000E+000	4.29850E-004	-3.27672E+002	7	...........
	197	198	3.91031E+000	-9.50675E-007	0.00000E+000	-3.71744E-006	0.00000E+000	4.30233E-004	-3.27672E+002	7	...........
	198	199	3.91030E+000	-9.50359E-007	0.00000E+000	-3.71619E-006	0.00000E+000	4.30333E-004	-3.27672E+002	7	...........
	199	200	3.91030E+000	-9.50953E-007	0.00000E+000	-3.71851E-006	0.00000E+000	4.30733E-004	-3.27672E+002	7	...........
	200	201	3.91030E+000	-9.50579E-007	0.00000E+000	-3.71705E-006	0.00000E+000	4.36017E-004	-3.27672E+002	7	...........
	201	202	3.91029E+000	-9.50520E-007	0.00000E+000	-3.71681E-006	0.00000E+000	4.30317E-004	-3.27672E+002	7	...........
	202	203	3.91029E+000	-9.50660E-007	0.00000E+000	-3.71736E-006	0.00000E+000	4.29550E-004	-3.27672E+002	7	...........
	203	204	3.91029E+000	-9.50118E-007	0.00000E+000	-3.71524E-006	0.00000E+000	4.32350E-004	-3.27672E+002	7	...........
	204	205	3.91029E+000	-9.50932E-007	0.00000E+000	-3.71842E-006	0.00000E+000	4.31100E-004	-3.27672E+002	7	...........
	205	206	3.91027E+000	-9.50562E-007	0.00000E+000	-3.71695E-006	0.00000E+000	4.30933E-004	-3.27672E+002	7	...........
	206	207	3.91028E+000	-9.50562E-007	0.00000E+000	-3.71696E-006	0.00000E+000	4.28067E-004	-3.27672E+002	7	...........
	207	208	3.91026E+000	-9.49949E-007	0.00000E+000	-3.71455E-006	0.00000E+000	4.25533E-004	-3.27672E+002	7	...........
	208	209	3.91026E+000	-9.49078E-007	0.00000E+000	-3.71114E-006	0.00000E+000	4.31400E-004	-3.27672E+002	7	...........
	209	210	3.91025E+000	-9.49394E-007	0.00000E+000	-3.71237E-006	0.00000E+000	4.27233E-004	-3.27672E+002	7	...........
	210	211	3.91025E+000	-9.49548E-007	0.00000E+000	-3.71297E-006	0.00000E+000	4.28317E-004	-3.27672E+002	7	...........
	211	212	3.91025E+000	-9.49467E-007	0.00000E+000	-3.71265E-006	0.00000E+000	4.27933E-004	-3.27672E+002	7	...........
	212	213	3.91024E+000	-9.49540E-007	0.00000E+000	-3.71293E-006	0.00000E+000	4.28417E-004	-3.27672E+002	7	...........
	213	214	3.91024E+000	-9.49787E-007	0.00000E+000	-3.71390E-006	0.00000E+000	4.31167E-004	-3.27672E+002	7	...........
	214	215	3.91023E+000	-9.49091E-007	0.00000E+000	-3.71117E-006	0.00000E+000	4.30767E-004	-3.27672E+002	7	...........
	215	216	3.91024E+000	-9.50096E-007	0.00000E+000	-3.71510E-006	0.00000E+000	4.31700E-004	-3.27672E+002	7	...........
	216	217	3.91023E+000	-9.49915E-007	0.00000E+000	-3.71438E-006	0.00000E+000	4.26683E-004	-3.27672E+002	7	...........
	217	218	3.91022E+000	-9.49254E-007	0.00000E+000	-3.71179E-006	0.00000E+000	4.28600E-004	-3.27672E+002	7	...........
	218	219	3.91022E+000	-9.49504E-007	0.00000E+000	-3.71277E-006	0.00000E+000	4.30550E-004	-3.27672E+002	7	...........
	219	220	3.91021E+000	-9.49189E-007	0.00000E+000	-3.71153E-006	0.00000E+000	4.29200E-004	-3.27672E+002	7	...........
	220	221	3.91021E+000	-9.49358E-007	0.00000E+000	-3.71219E-006	0.00000E+000	4.30233E-004	-3.27672E+002	7	...........
	221	222	3.91020E+000	-9.49740E-007	0.00000E+000	-3.71368E-006	0.00000E+000	4.30133E-004	-3.27672E+002	7	...........
	222	223	3.91020E+000	-9.49704E-007	0.00000E+000	-3.71354E-006	0.00000E+000	4.29467E-004	-3.27672E+002	7	...........
	223	224	3.91020E+000	-9.49346E-007	0.00000E+000	-3.71213E-006	0.00000E+000	4.31133E-004	-3.27672E+002	7	...........
	224	225	3.91019E+000	-9.49547E-007	0.00000E+000	-3.71291E-006	0.00000E+000	4.25567E-004	-3.27672E+002	7	...........
	225	226	3.91019E+000	-9.49632E-007	0.00000E+000	-3.71324E-006	0.00000E+000	4.29467E-004	-3.27672E+002	7	...........
	226	227	3.91019E+000	-9.49856E-007	0.00000E+000	-3.71411E-006	0.00000E+000	4.31317E-004	-3.27672E+002	7	...........
	227	228	3.91018E+000	-9.49771E-007	0.00000E+000	-3.71378E-006	0.00000E+000	4.31917E-004	-3.27672E+002	7	...........
	228	229	3.91018E+000	-9.49434E-007	0.00000E+000	-3.71245E-006	0.00000E+000	4.29767E-004	-3.27672E+002	7	...........
	229	230	3.91017E+000	-9.48985E-007	0.00000E+000	-3.71069E-006	0.00000E+000	4.30167E-004	-3.27672E+002	7	...........
	230	231	3.91017E+000	-9.48807E-007	0.00000E+000	-3.70999E-006	0.00000E+000	4.29317E-004	-3.27672E+002	7	...........
	231	232	3.91016E+000	-9.48689E-007	0.00000E+000	-3.70953E-006	0.00000E+000	4.29183E-004	-3.27672E+002	7	...........
	232	233	3.91016E+000	-9.49298E-007	0.00000E+000	-3.71190E-006	0.00000E+000	4.33417E-004	-3.27672E+002	7	...........
	233	234	3.91016E+000	-9.49467E-007	0.00000E+000	-3.71257E-006	0.00000E+000	4.28483E-004	-3.27672E+002	7	...........
	234	235	3.91015E+000	-9.49665E-007	0.00000E+000	-3.71333E-006	0.00000E+000	4.24817E-004	-3.27672E+002	7	...........
	235	236	3.91015E+000	-9.49741E-007	0.00000E+000	-3.71363E-006	0.00000E+000	4.24350E-004	-3.27672E+002	7	...........
	236	237	3.91013E+000	-9.49862E-007	0.00000E+000	-3.71409E-006	0.00000E+000	4.26883E-004	-3.27672E+002	7	...........
	237	238	3.91014E+000	-9.50171E-007	0.00000E+000	-3.71530E-006	0.00000E+000	4.23767E-004	-3.27672E+002	7	...........
	238	239	3.91013E+000	-9.49417E-007	0.00000E+000	-3.71234E-006	0.00000E+000	4.27117E-004	-3.27672E+002	7	...........
	239	240	3.91013E+000	-9.48510E-007	0.00000E+000	-3.70880E-006	0.00000E+000	4.23683E-004	-3.27672E+002	7	...........
	240	241	3.91011E+000	-9.49286E-007	0.00000E+000	-3.71182E-006	0.00000E+000	4.25600E-004	-3.27672E+002	7	...........
	241	242	3.91012E+000	-9.49537E-007	0.00000E+000	-3.71280E-006	0.00000E+000	4.26417E-004	-3.27672E+002	7	...........
	242	243	3.91011E+000	-9.49076E-007	0.00000E+000	-3.71099E-006	0.00000E+000	4.27867E-004	-3.27672E+002	7	...........
	243	244	3.91011E+000	-9.49143E-007	0.00000E+000	-3.71125E-006	0.00000E+000	4.25583E-004	-3.27672E+002	7	...........
	244	245	3.91010E+000	-9.49002E-007	0.00000E+000	-3.71070E-006	0.00000E+000	4.25800E-004	-3.27672E+002	7	...........
	245	246	3.91010E+000	-9.48669E-007	0.00000E+000	-3.70939E-006	0.00000E+000	4.27700E-004	-3.27672E+002	7	...........
	246	247	3.91010E+000	-9.49681E-007	0.00000E+000	-3.71335E-006	0.00000E+000	4.29450E-004	-3.27672E+002	7	...........
	247	248	3.91009E+000	-9.49532E-007	0.00000E+000	-3.71276E-006	0.00000E+000	4.26983E-004	-3.27672E+002	7	...........
	248	249	3.91009E+000	-9.49834E-007	0.00000E+000	-3.71393E-006	0.00000E+000	4.25983E-004	-3.27672E+002	7	...........
	249	250	3.91009E+000	-9.50196E-007	0.00000E+000	-3.71535E-006	0.00000E+000	4.24950E-004	-3.27672E+002	7	...........
	250	251	3.91009E+000	-9.49562E-007	0.00000E+000	-3.71287E-006	0.00000E+000	4.25250E-004	-3.27672E+002	7	...........
	251	252	3.91008E+000	-9.50099E-007	0.00000E+000	-3.71496E-006	0.00000E+000	4.28717E-004	-3.27672E+002	7	...........
	252	253	3.91007E+000	-9.49263E-007	0.00000E+000	-3.71169E-006	0.00000E+000	4.24183E-004	-3.27672E+002	7	...........
	253	254	3.91008E+000	-9.49059E-007	0.00000E+000	-3.71089E-006	0.00000E+000	4.28267E-004	-3.27672E+002	7	...........
	254	255	3.91007E+000	-9.47904E-007	0.00000E+000	-3.70638E-006	0.00000E+000	4.27417E-004	-3.27672E+002	7	...........
	255	256	3.91007E+000	-9.48507E-007	0.00000E+000	-3.70872E-006	0.00000E+000	4.26717E-004	-3.27672E+002	7	...........
	256	257	3.91007E+000	-9.49266E-007	0.00000E+000	-3.71169E-006	0.00000E+000	4.26167E-004	-3.27672E+002	7	...........
	257	258	3.91006E+000	-9.49256E-007	0.00000E+000	-3.71165E-006	0.00000E+000	4.22633E-004	-3.27672E+002	7	...........
	258	259	3.91005E+000	-9.49085E-007	0.00000E+000	-3.71097E-006	0.00000E+000	4.25917E-004	-3.27672E+002	7	...........
	259	260	3.91004E+000	-9.48650E-007	0.00000E+000	-3.70926E-006	0.00000E+000	4.25933E-004	-3.27672E+002	7	...........
	260	261	3.91005E+000	-9.49302E-007	0.00000E+000	-3.71182E-006	0.00000E+000	4.27183E-004	-3.27672E+002	7	...........
	261	262	3.91004E+000	-9.48872E-007	0.00000E+000	-3.71013E-006	0.00000E+000	4.22283E-004	-3.27672E+002	7	...........
	262	263	3.91005E+000	-9.49451E-007	0.00000E+000	-3.71240E-006	0.00000E+000	4.24167E-004	-3.27672E+002	7	...........
	263	264	3.91004E+000	-9.48989E-007	0.00000E+000	-3.71058E-006	0.00000E+000	4.23350E-004	-3.27672E+002	7	...........
	264	265	3.91004E+000	-9.49218E-007	0.00000E+000	-3.71148E-006	0.00000E+000	4.24733E-004	-3.27672E+002	7	...........
	265	266	3.91003E+000	-9.48882E-007	0.00000E+000	-3.71015E-006	0.00000E+000	4.24200E-004	-3.27672E+002	7	...........
	266	267	3.91003E+000	-9.48837E-007	0.00000E+000	-3.70998E-006	0.00000E+000	4.27533E-004	-3.27672E+002	7	...........
	267	268	3.91003E+000	-9.49381E-007	0.00000E+000	-3.71210E-006	0.00000E+000	4.27017E-004	-3.27672E+002	7	...........
	268	269	3.91002E+000	-9.48255E-007	0.00000E+000	-3.70769E-006	0.00000E+000	4.26667E-004	-3.27672E+002	7	...........
	269	270	3.91002E+000	-9.48577E-007	0.00000E+000	-3.70896E-006	0.00000E+000	4.21800E-004	-3.27672E+002	7	...........
	270	271	3.91002E+000	-9.48771E-007	0.00000E+000	-3.70971E-006	0.00000E+000	4.25933E-004	-3.27672E+002	7	...........
	271	272	3.91001E+000	-9.48892E-007	0.00000E+000	-3.71018E-006	0.00000E+000	4.25983E-004	-3.27672E+002	7	...........
	272	273	3.91000E+000	-9.49185E-007	0.00000E+000	-3.71131E-006	0.00000E+000	4.24683E-004	-3.27672E+002	7	...........
	273	274	3.91000E+000	-9.48606E-007	0.00000E+000	-3.70905E-006	0.00000E+000	4.26733E-004	-3.27672E+002	7	...........
	274	275	3.91000E+000	-9.48613E-007	0.00000E+000	-3.70908E-006	0.00000E+000	4.24233E-004	-3.27672E+002	7	...........
	275	276	3.90999E+000	-9.48583E-007	0.00000E+000	-3.70895E-006	0.00000E+000	4.23267E-004	-3.27672E+002	7	...........
	276	277	3.90999E+000	-9.48667E-007	0.00000E+000	-3.70928E-006	0.00000E+000	4.28417E-004	-3.27672E+002	7	...........
	277	278	3.90999E+000	-9.48882E-007	0.00000E+000	-3.71012E-006	0.00000E+000	4.27133E-004	-3.27672E+002	7	...........
	278	279	3.90999E+000	-9.49049E-007	0.00000E+000	-3.71077E-006	0.00000E+000	4.25983E-004	-3.27672E+002	7	...........
	279	280	3.90998E+000	-9.49084E-007	0.00000E+000	-3.71090E-006	0.00000E+000	4.28717E-004	-3.27672E+002	7	...........
	280	281	3.90998E+000	-9.49080E-007	0.00000E+000	-3.71088E-006	0.00000E+000	4.26017E-004	-3.27672E+002	7	...........
	281	282	3.90998E+000	-9.49664E-007	0.00000E+000	-3.71317E-006	0.00000E+000	4.23783E-004	-3.27672E+002	7	...........
	282	283	3.90997E+000	-9.49408E-007	0.00000E+000	-3.71216E-006	0.00000E+000	4.25117E-004	-3.27672E+002	7	...........
	283	284	3.90996E+000	-9.49197E-007	0.00000E+000	-3.71133E-006	0.00000E+000	4.26217E-004	-3.27672E+002	7	...........
	284	285	3.90996E+000	-9.48706E-007	0.00000E+000	-3.70940E-006	0.00000E+000	4.24633E-004	-3.27672E+002	7	...........
	285	286	3.90997E+000	-9.47972E-007	0.00000E+000	-3.70654E-006	0.00000E+000	4.26250E-004	-3.27672E+002	7	...........
	286	287	3.90996E+000	-9.48092E-007	0.00000E+000	-3.70700E-006	0.00000E+000	4.22950E-004	-3.27672E+002	7	...........
	287	288	3.90995E+000	-9.49309E-007	0.00000E+000	-3.71175E-006	0.00000E+000	4.25733E-004	-3.27672E+002	7	...........
	288	289	3.90995E+000	-9.48929E-007	0.00000E+000	-3.71027E-006	0.00000E+000	4.24750E-004	-3.27672E+002	7	...........
	289	290	3.90995E+000	-9.49554E-007	0.00000E+000	-3.71271E-006	0.00000E+000	4.23600E-004	-3.27672E+002	7	...........
	290	291	3.90995E+000	-9.48706E-007	0.00000E+000	-3.70939E-006	0.00000E+000	4.24967E-004	-3.27672E+002	7	...........
	291	292	3.90994E+000	-9.49233E-007	0.00000E+000	-3.71145E-006	0.00000E+000	4.22700E-004	-3.27672E+002	7	...........
	292	293	3.90994E+000	-9.48945E-007	0.00000E+000	-3.71032E-006	0.00000E+000	4.24783E-004	-3.27672E+002	7	...........
	293	294	3.90994E+000	-9.48789E-007	0.00000E+000	-3.70970E-006	0.00000E+000	4.23517E-004	-3.27672E+002	7	...........
	294	295	3.90993E+000	-9.49224E-007	0.00000E+000	-3.71140E-006	0.00000E+000	4.28567E-004	-3.27672E+002	7	...........
	295	296	3.90993E+000	-9.48516E-007	0.00000E+000	-3.70863E-006	0.00000E+000	4.28117E-004	-3.27672E+002	7	...........
	296	297	3.90992E+000	-9.48411E-007	0.00000E+000	-3.70821E-006	0.00000E+000	4.28317E-004	-3.27672E+002	7	...........
	297	298	3.90992E+000	-9.48205E-007	0.00000E+000	-3.70741E-006	0.00000E+000	4.26233E-004	-3.27672E+002	7	...........
	298	299	3.90992E+000	-9.48332E-007	0.00000E+000	-3.70790E-006	0.00000E+000	4.29383E-004	-3.27672E+002	7	...........
	299	300	3.90992E+000	-9.48573E-007	0.00000E+000	-3.70884E-006	0.00000E+000	4.26400E-004	-3.27672E+002	7	...........
	300	301	3.90991E+000	-9.48573E-007	0.00000E+000	-3.70883E-006	0.00000E+000	4.28483E-004	-3.27672E+002	7	...........
	301	302	3.90990E+000	-9.47897E-007	0.00000E+000	-3.70619E-006	0.00000E+000	4.29000E-004	-3.27672E+002	7	...........
	302	303	3.90991E+000	-9.48830E-007	0.00000E+000	-3.70984E-006	0.00000E+000	4.23983E-004	-3.27672E+002	7	...........
	303	304	3.90990E+000	-9.48636E-007	0.00000E+000	-3.70908E-006	0.00000E+000	4.27050E-004	-3.27672E+002	7	...........
	304	305	3.90990E+000	-9.48156E-007	0.00000E+000	-3.70720E-006	0.00000E+000	4.24100E-004	-3.27672E+002	7	...........
	305	306	3.90990E+000	-9.48305E-007	0.00000E+000	-3.70778E-006	0.00000E+000	4.26400E-004	-3.27672E+002	7	...........
	306	307	3.90989E+000	-9.48691E-007	0.00000E+000	-3.70928E-006	0.00000E+000	4.19550E-004	-3.27672E+002	7	...........
	307	308	3.90989E+000	-9.48621E-007	0.00000E+000	-3.70900E-006	0.00000E+000	4.29517E-004	-3.27672E+002	7	...........
	308	309	3.90988E+000	-9.48336E-007	0.00000E+000	-3.70788E-006	0.00000E+000	4.25433E-004	-3.27672E+002	7	...........
	309	310	3.90988E+000	-9.49162E-007	0.00000E+000	-3.71111E-006	0.00000E+000	4.28000E-004	-3.27672E+002	7	...........
	310	311	3.90988E+000	-9.48538E-007	0.00000E+000	-3.70867E-006	0.00000E+000	4.26950E-004	-3.27672E+002	7	...........
	311	312	3.90988E+000	-9.49059E-007	0.00000E+000	-3.71071E-006	0.00000E+000	4.22917E-004	-3.27672E+002	7	...........
	312	313	3.90988E+000	-9.48344E-007	0.00000E+000	-3.70791E-006	0.00000E+000	4.25400E-004	-3.27672E+002	7	...........
	313	314	3.90988E+000	-9.48954E-007	0.00000E+000	-3.71030E-006	0.00000E+000	4.25717E-004	-3.27672E+002	7	...........
	314	315	3.90987E+000	-9.48612E-007	0.00000E+000	-3.70895E-006	0.00000E+000	4.24350E-004	-3.27672E+002	7	...........
	315	316	3.90987E+000	-9.48744E-007	0.00000E+000	-3.70946E-006	0.00000E+000	4.21533E-004	-3.27672E+002	7	...........
	316	317	3.90986E+000	-9.48212E-007	0.00000E+000	-3.70737E-006	0.00000E+000	4.27567E-004	-3.27672E+002	7	...........
	317	318	3.90986E+000	-9.48433E-007	0.00000E+000	-3.70824E-006	0.00000E+000	4.27433E-004	-3.27672E+002	7	...........
	318	319	3.90985E+000	-9.48549E-007	0.00000E+000	-3.70869E-006	0.00000E+000	4.22450E-004	-3.27672E+002	7	...........
	319	320	3.90985E+000	-9.48598E-007	0.00000E+000	-3.70888E-006	0.00000E+000	4.26533E-004	-3.27672E+002	7	...........
	320	321	3.90984E+000	-9.48418E-007	0.00000E+000	-3.70816E-006	0.00000E+000	4.26633E-004	-3.27672E+002	7	...........
	321	322	3.90983E+000	-9.48204E-007	0.00000E+000	-3.70732E-006	0.00000E+000	4.27983E-004	-3.27672E+002	7	...........
	322	323	3.90984E+000	-9.48204E-007	0.00000E+000	-3.70732E-006	0.00000E+000	4.26950E-004	-3.27672E+002	7	...........
	323	324	3.90983E+000	-9.48611E-007	0.00000E+000	-3.70891E-006	0.00000E+000	4.26883E-004	-3.27672E+002	7	...........
	324	325	3.90983E+000	-9.48362E-007	0.00000E+000	-3.70793E-006	0.00000E+000	4.27300E-004	-3.27672E+002	7	...........
	325	326	3.90983E+000	-9.48312E-007	0.00000E+000	-3.70773E-006	0.00000E+000	4.27000E-004	-3.27672E+002	7	...........
	326	327	3.90982E+000	-9.48702E-007	0.00000E+000	-3.70925E-006	0.00000E+000	4.25150E-004	-3.27672E+002	7	...........
	327	328	3.90981E+000	-9.48368E-007	0.00000E+000	-3.70794E-006	0.00000E+000	4.25483E-004	-3.27672E+002	7	...........
	328	329	3.90981E+000	-9.48459E-007	0.00000E+000	-3.70830E-006	0.00000E+000	4.27017E-004	-3.27672E+002	7	...........
	329	330	3.90982E+000	-9.48414E-007	0.00000E+000	-3.70812E-006	0.00000E+000	4.27983E-004	-3.27672E+002	7	...........
	330	331	3.90981E+000	-9.48777E-007	0.00000E+000	-3.70954E-006	0.00000E+000	4.27133E-004	-3.27672E+002	7	...........
	331	332	3.90980E+000	-9.48103E-007	0.00000E+000	-3.70690E-006	0.00000E+000	4.27750E-004	-3.27672E+002	7	...........
	332	333	3.90980E+000	-9.47833E-007	0.00000E+000	-3.70584E-006	0.00000E+000	4.26917E-004	-3.27672E+002	7	...........
	333	334	3.90980E+000	-9.48870E-007	0.00000E+000	-3.70989E-006	0.00000E+000	4.22317E-004	-3.27672E+002	7	...........
	334	335	3.90980E+000	-9.48696E-007	0.00000E+000	-3.70921E-006	0.00000E+000	4.24983E-004	-3.27672E+002	7	...........
	335	336	3.90979E+000	-9.48245E-007	0.00000E+000	-3.70744E-006	0.00000E+000	4.25967E-004	-3.27672E+002	7	...........
	336	337	3.90980E+000	-9.48324E-007	0.00000E+000	-3.70776E-006	0.00000E+000	4.26733E-004	-3.27672E+002	7	...........
	337	338	3.90980E+000	-9.48072E-007	0.00000E+000	-3.70677E-006	0.00000E+000	4.26783E-004	-3.27672E+002	7	...........
	338	339	3.90978E+000	-9.48200E-007	0.00000E+000	-3.70726E-006	0.00000E+000	4.29083E-004	-3.27672E+002	7	...........
	339	340	3.90978E+000	-9.48534E-007	0.00000E+000	-3.70856E-006	0.00000E+000	4.26300E-004	-3.27672E+002	7	...........
	340	341	3.90978E+000	-9.48852E-007	0.00000E+000	-3.70981E-006	0.00000E+000	4.27550E-004	-3.27672E+002	7	...........
	341	342	3.90978E+000	-9.48038E-007	0.00000E+000	-3.70662E-006	0.00000E+000	4.28933E-004	-3.27672E+002	7	...........
	342	343	3.90978E+000	-9.48685E-007	0.00000E+000	-3.70915E-006	0.00000E+000	4.25850E-004	-3.27672E+002	7	...........
	343	344	3.90976E+000	-9.48331E-007	0.00000E+000	-3.70775E-006	0.00000E+000	4.22117E-004	-3.27672E+002	7	...........
	344	345	3.90977E+000	-9.48261E-007	0.00000E+000	-3.70748E-006	0.00000E+000	4.27867E-004	-3.27672E+002	7	...........
	345	346	3.90976E+000	-9.48559E-007	0.00000E+000	-3.70864E-006	0.00000E+000	4.28183E-004	-3.27672E+002	7	...........
	346	347	3.90976E+000	-9.48543E-007	0.00000E+000	-3.70858E-006	0.00000E+000	4.27150E-004	-3.27672E+002	7	...........
	347	348	3.90975E+000	-9.48073E-007	0.00000E+000	-3.70673E-006	0.00000E+000	4.27133E-004	-3.27672E+002	7	...........
	348	349	3.90975E+000	-9.48175E-007	0.00000E+000	-3.70713E-006	0.00000E+000	4.26950E-004	-3.27672E+002	7	...........
	349	350	3.90975E+000	-9.48980E-007	0.00000E+000	-3.71027E-006	0.00000E+000	4.26550E-004	-3.27672E+002	7	...........
	350	351	3.90974E+000	-9.48594E-007	0.00000E+000	-3.70876E-006	0.00000E+000	4.24033E-004	-3.27672E+002	7	...........
	351	352	3.90975E+000	-9.48700E-007	0.00000E+000	-3.70918E-006	0.00000E+000	4.25467E-004	-3.27672E+002	7	...........
	352	353	3.90974E+000	-9.47936E-007	0.00000E+000	-3.70619E-006	0.00000E+000	4.26067E-004	-3.27672E+002	7	...........
	353	354	3.90974E+000	-9.48442E-007	0.00000E+000	-3.70817E-006	0.00000E+000	4.25750E-004	-3.27672E+002	7	...........
	354	355	3.90974E+000	-9.48643E-007	0.00000E+000	-3.70894E-006	0.00000E+000	4.27033E-004	-3.27672E+002	7	...........
	355	356	3.90974E+000	-9.48579E-007	0.00000E+000	-3.70870E-006	0.00000E+000	4.27717E-004	-3.27672E+002	7	...........
	356	357	3.90973E+000	-9.48817E-007	0.00000E+000	-3.70962E-006	0.00000E+000	4.27817E-004	-3.27672E+002	7	...........
	357	358	3.90973E+000	-9.48410E-007	0.00000E+000	-3.70803E-006	0.00000E+000	4.29017E-004	-3.27672E+002	7	...........
	358	359	3.90973E+000	-9.49055E-007	0.00000E+000	-3.71055E-006	0.00000E+000	4.26867E-004	-3.27672E+002	7	...........
	359	360	3.90972E+000	-9.49412E-007	0.00000E+000	-3.71193E-006	0.00000E+000	4.26767E-004	-3.27672E+002	7	...........
	360	361	3.90972E+000	-9.48928E-007	0.00000E+000	-3.71004E-006	0.00000E+000	4.25000E-004	-3.27672E+002	7	...........
	361	362	3.90972E+000	-9.48966E-007	0.00000E+000	-3.71019E-006	0.00000E+000	4.25950E-004	-3.27672E+002	7	...........
	362	363	3.90970E+000	-9.48864E-007	0.00000E+000	-3.70978E-006	0.00000E+000	4.28450E-004	-3.27672E+002	7	...........
	363	364	3.90971E+000	-9.48113E-007	0.00000E+000	-3.70684E-006	0.00000E+000	4.28917E-004	-3.27672E+002	7	...........
	364	365	3.90971E+000	-9.49155E-007	0.00000E+000	-3.71092E-006	0.00000E+000	4.27750E-004	-3.27672E+002	7	...........
	365	366	3.90971E+000	-9.48746E-007	0.00000E+000	-3.70932E-006	0.00000E+000	4.26917E-004	-3.27672E+002	7	...........
	366	367	3.90970E+000	-9.48723E-007	0.00000E+000	-3.70922E-006	0.00000E+000	4.30533E-004	-3.27672E+002	7	...........
	367	368	3.90970E+000	-9.49052E-007	0.00000E+000	-3.71051E-006	0.00000E+000	4.28383E-004	-3.27672E+002	7	...........
	368	369	3.90970E+000	-9.48860E-007	0.00000E+000	-3.70976E-006	0.00000E+000	4.27033E-004	-3.27672E+002	7	...........
	369	370	3.90970E+000	-9.48643E-007	0.00000E+000	-3.70891E-006	0.00000E+000	4.30917E-004	-3.27672E+002	7	...........
	370	371	3.90970E+000	-9.48358E-007	0.00000E+000	-3.70779E-006	0.00000E+000	4.28500E-004	-3.27672E+002	7	...........
	371	372	3.90968E+000	-9.47930E-007	0.00000E+000	-3.70611E-006	0.00000E+000	4.26917E-004	-3.27672E+002	7	...........
	372	373	3.90969E+000	-9.48548E-007	0.00000E+000	-3.70853E-006	0.00000E+000	4.27650E-004	-3.27672E+002	7	...........
	373	374	3.90969E+000	-9.48497E-007	0.00000E+000	-3.70833E-006	0.00000E+000	4.29117E-004	-3.27672E+002	7	...........
	374	375	3.90968E+000	-9.48929E-007	0.00000E+000	-3.71001E-006	0.00000E+000	4.26717E-004	-3.27672E+002	7	...........
	375	376	3.90968E+000	-9.48591E-007	0.00000E+000	-3.70868E-006	0.00000E+000	4.28167E-004	-3.27672E+002	7	...........
	376	377	3.90967E+000	-9.48686E-007	0.00000E+000	-3.70905E-006	0.00000E+000	4.26950E-004	-3.27672E+002	7	...........
	377	378	3.90966E+000	-9.48809E-007	0.00000E+000	-3.70952E-006	0.00000E+000	4.27500E-004	-3.27672E+002	7	...........
	378	379	3.90967E+000	-9.47581E-007	0.00000E+000	-3.70473E-006	0.00000E+000	4.29650E-004	-3.27672E+002	7	...........
	379	380	3.90966E+000	-9.48468E-007	0.00000E+000	-3.70819E-006	0.00000E+000	4.27217E-004	-3.27672E+002	7	...........
	380	381	3.90967E+000	-9.48512E-007	0.00000E+000	-3.70836E-006	0.00000E+000	4.31117E-004	-3.27672E+002	7	...........
	381	382	3.90966E+000	-9.48498E-007	0.00000E+000	-3.70830E-006	0.00000E+000	4.32600E-004	-3.27672E+002	7	...........
	382	383	3.90966E+000	-9.48249E-007	0.00000E+000	-3.70733E-006	0.00000E+000	4.28883E-004	-3.27672E+002	7	...........
	383	384	3.90967E+000	-9.48316E-007	0.00000E+000	-3.70760E-006	0.00000E+000	4.27267E-004	-3.27672E+002	7	...........
	384	385	3.90965E+000	-9.49138E-007	0.00000E+000	-3.71080E-006	0.00000E+000	4.26733E-004	-3.27672E+002	7	...........
	385	386	3.90965E+000	-9.48738E-007	0.00000E+000	-3.70923E-006	0.00000E+000	4.22900E-004	-3.27672E+002	7	...........
	386	387	3.90965E+000	-9.48586E-007	0.00000E+000	-3.70864E-006	0.00000E+000	4.29467E-004	-3.27672E+002	7	...........
	387	388	3.90965E+000	-9.49035E-007	0.00000E+000	-3.71040E-006	0.00000E+000	4.28267E-004	-3.27672E+002	7	...........
	388	389	3.90965E+000	-9.49295E-007	0.00000E+000	-3.71141E-006	0.00000E+000	4.26750E-004	-3.27672E+002	7	...........
	389	390	3.90964E+000	-9.49247E-007	0.00000E+000	-3.71122E-006	0.00000E+000	4.26917E-004	-3.27672E+002	7	...........
	390	391	3.90965E+000	-9.49377E-007	0.00000E+000	-3.71173E-006	0.00000E+000	4.29433E-004	-3.27672E+002	7	...........
	391	392	3.90963E+000	-9.49061E-007	0.00000E+000	-3.71047E-006	0.00000E+000	4.24367E-004	-3.27672E+002	7	...........
	392	393	3.90962E+000	-9.49053E-007	0.00000E+000	-3.71044E-006	0.00000E+000	4.27367E-004	-3.27672E+002	7	...........
	393	394	3.90962E+000	-9.48733E-007	0.00000E+000	-3.70919E-006	0.00000E+000	4.27317E-004	-3.27672E+002	7	...........
	394	395	3.90962E+000	-9.48932E-007	0.00000E+000	-3.70996E-006	0.00000E+000	4.29050E-004	-3.27672E+002	7	...........
	395	396	3.90962E+000	-9.49341E-007	0.00000E+000	-3.71156E-006	0.00000E+000	4.26167E-004	-3.27672E+002	7	...........
	396	397	3.90962E+000	-9.49469E-007	0.00000E+000	-3.71207E-006	0.00000E+000	4.27433E-004	-3.27672E+002	7	...........
	397	398	3.90962E+000	-9.49061E-007	0.00000E+000	-3.71047E-006	0.00000E+000	4.24900E-004	-3.27672E+002	7	...........
	398	399	3.90961E+000	-9.48513E-007	0.00000E+000	-3.70831E-006	0.00000E+000	4.28317E-004	-3.27672E+002	7	...........
	399	400	3.90961E+000	-9.49039E-007	0.00000E+000	-3.71037E-006	0.00000E+000	4.28217E-004	-3.27672E+002	7	...........
	400	401	3.90959E+000	-9.48403E-007	0.00000E+000	-3.70787E-006	0.00000E+000	4.27667E-004	-3.27672E+002	7	...........
	401	402	3.90960E+000	-9.48492E-007	0.00000E+000	-3.70823E-006	0.00000E+000	4.31317E-004	-3.27672E+002	7	...........
	402	403	3.90960E+000	-9.48334E-007	0.00000E+000	-3.70760E-006	0.00000E+000	4.29583E-004	-3.27672E+002	7	...........
	403	404	3.90960E+000	-9.48758E-007	0.00000E+000	-3.70926E-006	0.00000E+000	4.24383E-004	-3.27672E+002	7	...........
	404	405	3.90959E+000	-9.49281E-007	0.00000E+000	-3.71130E-006	0.00000E+000	4.27917E-004	-3.27672E+002	7	...........
	405	406	3.90959E+000	-9.49382E-007	0.00000E+000	-3.71169E-006	0.00000E+000	4.26750E-004	-3.27672E+002	7	...........
	406	407	3.90958E+000	-9.48803E-007	0.00000E+000	-3.70942E-006	0.00000E+000	4.27250E-004	-3.27672E+002	7	...........
	407	408	3.90958E+000	-9.49684E-007	0.00000E+000	-3.71287E-006	0.00000E+000	4.26533E-004	-3.27672E+002	7	...........
	408	409	3.90958E+000	-9.48929E-007	0.00000E+000	-3.70991E-006	0.00000E+000	4.27433E-004	-3.27672E+002	7	...........
	409	410	3.90958E+000	-9.48657E-007	0.00000E+000	-3.70885E-006	0.00000E+000	4.29250E-004	-3.27672E+002	7	...........
	410	411	3.90957E+000	-9.49067E-007	0.00000E+000	-3.71045E-006	0.00000E+000	4.27733E-004	-3.27672E+002	7	...........
	411	412	3.90958E+000	-9.49216E-007	0.00000E+000	-3.71103E-006	0.00000E+000	4.27233E-004	-3.27672E+002	7	...........
	412	413	3.90957E+000	-9.49006E-007	0.00000E+000	-3.71020E-006	0.00000E+000	4.24617E-004	-3.27672E+002	7	...........
	413	414	3.90957E+000	-9.48872E-007	0.00000E+000	-3.70968E-006	0.00000E+000	4.24817E-004	-3.27672E+002	7	...........
	414	415	3.90956E+000	-9.48735E-007	0.00000E+000	-3.70914E-006	0.00000E+000	4.26083E-004	-3.27672E+002	7	...........
	415	416	3.90956E+000	-9.48914E-007	0.00000E+000	-3.70984E-006	0.00000E+000	4.27817E-004	-3.27672E+002	7	...........
	416	417	3.90956E+000	-9.49017E-007	0.00000E+000	-3.71024E-006	0.00000E+000	4.28367E-004	-3.27672E+002	7	...........
	417	418	3.90955E+000	-9.48284E-007	0.00000E+000	-3.70737E-006	0.00000E+000	4.26017E-004	-3.27672E+002	7	...........
	418	419	3.90956E+000	-9.48894E-007	0.00000E+000	-3.70976E-006	0.00000E+000	4.27200E-004	-3.27672E+002	7	...........
	419	420	3.90955E+000	-9.49448E-007	0.00000E+000	-3.71192E-006	0.00000E+000	4.23833E-004	-3.27672E+002	7	...........
	420	421	3.90956E+000	-9.49630E-007	0.00000E+000	-3.71263E-006	0.00000E+000	4.28700E-004	-3.27672E+002	7	...........
	421	422	3.90956E+000	-9.49587E-007	0.00000E+000	-3.71246E-006	0.00000E+000	4.27433E-004	-3.27672E+002	7	...........
	422	423	3.90955E+000	-9.49499E-007	0.00000E+000	-3.71212E-006	0.00000E+000	4.27967E-004	-3.27672E+002	7	...........
	423	424	3.90955E+000	-9.48757E-007	0.00000E+000	-3.70921E-006	0.00000E+000	4.27467E-004	-3.27672E+002	7	...........
	424	425	3.90955E+000	-9.48276E-007	0.00000E+000	-3.70733E-006	0.00000E+000	4.26833E-004	-3.27672E+002	7	...........
	425	426	3.90955E+000	-9.48067E-007	0.00000E+000	-3.70651E-006	0.00000E+000	4.29500E-004	-3.27672E+002	7	...........
	426	427	3.90954E+000	-9.48484E-007	0.00000E+000	-3.70814E-006	0.00000E+000	4.30783E-004	-3.27672E+002	7	...........
	427	428	3.90954E+000	-9.48913E-007	0.00000E+000	-3.70982E-006	0.00000E+000	4.27917E-004	-3.27672E+002	7	...........
	428	429	3.90954E+000	-9.48755E-007	0.00000E+000	-3.70920E-006	0.00000E+000	4.30217E-004	-3.27672E+002	7	...........
	429	430	3.90954E+000	-9.48949E-007	0.00000E+000	-3.70995E-006	0.00000E+000	4.34833E-004	-3.27672E+002	7	...........
	430	431	3.90954E+000	-9.49093E-007	0.00000E+000	-3.71052E-006	0.00000E+000	4.29183E-004	-3.27672E+002	7	...........
	431	432	3.90953E+000	-9.49039E-007	0.00000E+000	-3.71030E-006	0.00000E+000	4.27350E-004	-3.27672E+002	7	...........
	432	433	3.90953E+000	-9.48023E-007	0.00000E+000	-3.70632E-006	0.00000E+000	4.32083E-004	-3.27672E+002	7	...........
	433	434	3.90952E+000	-9.48778E-007	0.00000E+000	-3.70927E-006	0.00000E+000	4.30500E-004	-3.27672E+002	7	...........
	434	435	3.90953E+000	-9.48485E-007	0.00000E+000	-3.70813E-006	0.00000E+000	4.32550E-004	-3.27672E+002	7	...........
	435	436	3.90953E+000	-9.49050E-007	0.00000E+000	-3.71033E-006	0.00000E+000	4.28083E-004	-3.27672E+002	7	...........
	436	437	3.90952E+000	-9.48486E-007	0.00000E+000	-3.70813E-006	0.00000E+000	4.30483E-004	-3.27672E+002	7	...........
	437	438	3.90952E+000	-9.48038E-007	0.00000E+000	-3.70638E-006	0.00000E+000	4.27250E-004	-3.27672E+002	7	...........
	438	439	3.90952E+000	-9.48415E-007	0.00000E+000	-3.70785E-006	0.00000E+000	4.31767E-004	-3.27672E+002	7	...........
	439	440	3.90952E+000	-9.47574E-007	0.00000E+000	-3.70455E-006	0.00000E+000	4.28800E-004	-3.27672E+002	7	...........
	440	441	3.90951E+000	-9.47695E-007	0.00000E+000	-3.70502E-006	0.00000E+000	4.32350E-004	-3.27672E+002	7	...........
	441	442	3.90951E+000	-9.47787E-007	0.00000E+000	-3.70538E-006	0.00000E+000	4.27817E-004	-3.27672E+002	7	...........
	442	443	3.90951E+000	-9.48128E-007	0.00000E+000	-3.70671E-006	0.00000E+000	4.28167E-004	-3.27672E+002	7	...........
	443	444	3.90951E+000	-9.48298E-007	0.00000E+000	-3.70738E-006	0.00000E+000	4.28483E-004	-3.27672E+002	7	...........
	444	445	3.90949E+000	-9.48778E-007	0.00000E+000	-3.70924E-006	0.00000E+000	4.27133E-004	-3.27672E+002	7	...........
	445	446	3.90950E+000	-9.48386E-007	0.00000E+000	-3.70771E-006	0.00000E+000	4.25050E-004	-3.27672E+002	7	...........
	446	447	3.90950E+000	-9.48455E-007	0.00000E+000	-3.70798E-006	0.00000E+000	4.26600E-004	-3.27672E+002	7	...........
	447	448	3.90949E+000	-9.48676E-007	0.00000E+000	-3.70884E-006	0.00000E+000	4.28267E-004	-3.27672E+002	7	...........
	448	449	3.90949E+000	-9.48873E-007	0.00000E+000	-3.70961E-006	0.00000E+000	4.26950E-004	-3.27672E+002	7	...........
	449	450	3.90949E+000	-9.48750E-007	0.00000E+000	-3.70913E-006	0.00000E+000	4.31767E-004	-3.27672E+002	7	...........
	450	451	3.90950E+000	-9.49063E-007	0.00000E+000	-3.71036E-006	0.00000E+000	4.31933E-004	-3.27672E+002	7	...........
	451	452	3.90949E+000	-9.48595E-007	0.00000E+000	-3.70852E-006	0.00000E+000	4.28717E-004	-3.27672E+002	7	...........
	452	453	3.90949E+000	-9.49453E-007	0.00000E+000	-3.71188E-006	0.00000E+000	4.29417E-004	-3.27672E+002	7	...........
	453	454	3.90948E+000	-9.49982E-007	0.00000E+000	-3.71394E-006	0.00000E+000	4.27950E-004	-3.27672E+002	7	...........
	454	455	3.90947E+000	-9.48601E-007	0.00000E+000	-3.70853E-006	0.00000E+000	4.29017E-004	-3.27672E+002	7	...........
	455	456	3.90948E+000	-9.47994E-007	0.00000E+000	-3.70616E-006	0.00000E+000	4.30767E-004	-3.27672E+002	7	...........
	456	457	3.90947E+000	-9.47682E-007	0.00000E+000	-3.70494E-006	0.00000E+000	4.27567E-004	-3.27672E+002	7	...........
	457	458	3.90947E+000	-9.48808E-007	0.00000E+000	-3.70933E-006	0.00000E+000	4.24783E-004	-3.27672E+002	7	...........
	458	459	3.90947E+000	-9.48167E-007	0.00000E+000	-3.70683E-006	0.00000E+000	4.28517E-004	-3.27672E+002	7	...........
	459	460	3.90946E+000	-9.48015E-007	0.00000E+000	-3.70623E-006	0.00000E+000	4.28767E-004	-3.27672E+002	7	...........
	460	461	3.90946E+000	-9.47664E-007	0.00000E+000	-3.70486E-006	0.00000E+000	4.26867E-004	-3.27672E+002	7	...........
	461	462	3.90946E+000	-9.47457E-007	0.00000E+000	-3.70405E-006	0.00000E+000	4.29183E-004	-3.27672E+002	7	...........
	462	463	3.90946E+000	-9.47544E-007	0.00000E+000	-3.70439E-006	0.00000E+000	4.26817E-004	-3.27672E+002	7	...........
	463	464	3.90945E+000	-9.47864E-007	0.00000E+000	-3.70563E-006	0.00000E+000	4.28467E-004	-3.27672E+002	7	...........
	464	465	3.90945E+000	-9.47838E-007	0.00000E+000	-3.70553E-006	0.00000E+000	4.29000E-004	-3.27672E+002	7	...........
	465	466	3.90945E+000	-9.47947E-007	0.00000E+000	-3.70595E-006	0.00000E+000	4.30200E-004	-3.27672E+002	7	...........
	466	467	3.90945E+000	-9.47939E-007	0.00000E+000	-3.70592E-006	0.00000E+000	4.27900E-004	-3.27672E+002	7	...........
	467	468	3.90945E+000	-9.47683E-007	0.00000E+000	-3.70492E-006	0.00000E+000	4.29783E-004	-3.27672E+002	7	...........
	468	469	3.90945E+000	-9.47874E-007	0.00000E+000	-3.70566E-006	0.00000E+000	4.30183E-004	-3.27672E+002	7	...........
	469	470	3.90944E+000	-9.47848E-007	0.00000E+000	-3.70556E-006	0.00000E+000	4.28433E-004	-3.27672E+002	7	...........
	470	471	3.90944E+000	-9.48048E-007	0.00000E+000	-3.70634E-006	0.00000E+000	4.34600E-004	-3.27672E+002	7	...........
	471	472	3.90944E+000	-9.47542E-007	0.00000E+000	-3.70436E-006	0.00000E+000	4.30100E-004	-3.27672E+002	7	...........
	472	473	3.90943E+000	-9.47973E-007	0.00000E+000	-3.70604E-006	0.00000E+000	4.31450E-004	-3.27672E+002	7	...........
	473	474	3.90944E+000	-9.48115E-007	0.00000E+000	-3.70660E-006	0.00000E+000	4.29217E-004	-3.27672E+002	7	...........
	474	475	3.90943E+000	-9.48120E-007	0.00000E+000	-3.70661E-006	0.00000E+000	4.31983E-004	-3.27672E+002	7	...........
	475	476	3.90943E+000	-9.47792E-007	0.00000E+000	-3.70533E-006	0.00000E+000	4.29050E-004	-3.27672E+002	7	...........
	476	477	3.90943E+000	-9.47918E-007	0.00000E+000	-3.70582E-006	0.00000E+000	4.30550E-004	-3.27672E+002	7	...........
	477	478	3.90943E+000	-9.47081E-007	0.00000E+000	-3.70254E-006	0.00000E+000	4.31550E-004	-3.27672E+002	7	...........
	478	479	3.90942E+000	-9.47744E-007	0.00000E+000	-3.70513E-006	0.00000E+000	4.32633E-004	-3.27672E+002	7	...........
	479	480	3.90942E+000	-9.47865E-007	0.00000E+000	-3.70560E-006	0.00000E+000	4.29217E-004	-3.27672E+002	7	...........
	480	481	3.90941E+000	-9.47961E-007	0.00000E+000	-3.70597E-006	0.00000E+000	4.28567E-004	-3.27672E+002	7	...........
	481	482	3.90940E+000	-9.47798E-007	0.00000E+000	-3.70532E-006	0.00000E+000	4.31983E-004	-3.27672E+002	7	...........
	482	483	3.90941E+000	-9.48172E-007	0.00000E+000	-3.70680E-006	0.00000E+000	4.28350E-004	-3.27672E+002	7	...........
	483	484	3.90942E+000	-9.48316E-007	0.00000E+000	-3.70736E-006	0.00000E+000	4.29400E-004	-3.27672E+002	7	...........
	484	485	3.90942E+000	-9.48449E-007	0.00000E+000	-3.70788E-006	0.00000E+000	4.29633E-004	-3.27672E+002	7	...........
	485	486	3.90940E+000	-9.48296E-007	0.00000E+000	-3.70727E-006	0.00000E+000	4.29817E-004	-3.27672E+002	7	...........
	486	487	3.90940E+000	-9.48092E-007	0.00000E+000	-3.70647E-006	0.00000E+000	4.34083E-004	-3.27672E+002	7	...........
	487	488	3.90941E+000	-9.47274E-007	0.00000E+000	-3.70328E-006	0.00000E+000	4.28033E-004	-3.27672E+002	7	...........
	488	489	3.90939E+000	-9.47479E-007	0.00000E+000	-3.70407E-006	0.00000E+000	4.31183E-004	-3.27672E+002	7	...........
	489	490	3.90940E+000	-9.47218E-007	0.00000E+000	-3.70306E-006	0.00000E+000	4.31600E-004	-3.27672E+002	7	...........
	490	491	3.90939E+000	-9.47295E-007	0.00000E+000	-3.70335E-006	0.00000E+000	4.29167E-004	-3.27672E+002	7	...........
	491	492	3.90941E+000	-9.47589E-007	0.00000E+000	-3.70452E-006	0.00000E+000	4.32367E-004	-3.27672E+002	7	...........
	492	493	3.90939E+000	-9.48030E-007	0.00000E+000	-3.70622E-006	0.00000E+000	4.30767E-004	-3.27672E+002	7	...........
	493	494	3.90939E+000	-9.47210E-007	0.00000E+000	-3.70302E-006	0.00000E+000	4.26667E-004	-3.27672E+002	7	...........
	494	495	3.90939E+000	-9.47318E-007	0.00000E+000	-3.70344E-006	0.00000E+000	4.32017E-004	-3.27672E+002	7	...........
	495	496	3.90940E+000	-9.47986E-007	0.00000E+000	-3.70605E-006	0.00000E+000	4.32800E-004	-3.27672E+002	7	...........
	496	497	3.90938E+000	-9.47459E-007	0.00000E+000	-3.70398E-006	0.00000E+000	4.32283E-004	-3.27672E+002	7	...........
	497	498	3.90939E+000	-9.47909E-007	0.00000E+000	-3.70574E-006	0.00000E+000	4.31150E-004	-3.27672E+002	7	...........
	498	499	3.90938E+000	-9.47304E-007	0.00000E+000	-3.70337E-006	0.00000E+000	4.30533E-004	-3.27672E+002	7	...........
	499	500	3.90938E+000	-9.47945E-007	0.00000E+000	-3.70587E-006	0.00000E+000	4.30050E-004	-3.27672E+002	7	...........
	500	501	3.90938E+000	-9.47736E-007	0.00000E+000	-3.70506E-006	0.00000E+000	4.32800E-004	-3.27672E+002	7	...........
	501	502	3.90938E+000	-9.47588E-007	0.00000E+000	-3.70448E-006	0.00000E+000	4.31350E-004	-3.27672E+002	7	...........
	502	503	3.90937E+000	-9.46991E-007	0.00000E+000	-3.70214E-006	0.00000E+000	4.30750E-004	-3.27672E+002	7	...........
	503	504	3.90937E+000	-9.47156E-007	0.00000E+000	-3.70278E-006	0.00000E+000	4.31217E-004	-3.27672E+002	7	...........
	504	505	3.90937E+000	-9.47694E-007	0.00000E+000	-3.70488E-006	0.00000E+000	4.30583E-004	-3.27672E+002	7	...........
	505	506	3.90936E+000	-9.47560E-007	0.00000E+000	-3.70436E-006	0.00000E+000	4.32117E-004	-3.27672E+002	7	...........
	506	507	3.90936E+000	-9.47892E-007	0.00000E+000	-3.70565E-006	0.00000E+000	4.30350E-004	-3.27672E+002	7	...........
	507	508	3.90936E+000	-9.47690E-007	0.00000E+000	-3.70486E-006	0.00000E+000	4.31367E-004	-3.27672E+002	7	...........
	508	509	3.90936E+000	-9.47458E-007	0.00000E+000	-3.70395E-006	0.00000E+000	4.31667E-004	-3.27672E+002	7	...........
	509	510	3.90936E+000	-9.47586E-007	0.00000E+000	-3.70445E-006	0.00000E+000	4.29000E-004	-3.27672E+002	7	...........
	510	511	3.90936E+000	-9.47414E-007	0.00000E+000	-3.70378E-006	0.00000E+000	4.30150E-004	-3.27672E+002	7	...........
	511	512	3.90935E+000	-9.48314E-007	0.00000E+000	-3.70729E-006	0.00000E+000	4.29217E-004	-3.27672E+002	7	...........
	512	513	3.90935E+000	-9.48060E-007	0.00000E+000	-3.70630E-006	0.00000E+000	4.30967E-004	-3.27672E+002	7	...........
	513	514	3.90935E+000	-9.48016E-007	0.00000E+000	-3.70612E-006	0.00000E+000	4.31100E-004	-3.27672E+002	7	...........
	514	515	3.90934E+000	-9.47882E-007	0.00000E+000	-3.70560E-006	0.00000E+000	4.30017E-004	-3.27672E+002	7	...........
	515	516	3.90935E+000	-9.48127E-007	0.00000E+000	-3.70655E-006	0.00000E+000	4.31933E-004	-3.27672E+002	7	...........
	516	517	3.90934E+000	-9.48073E-007	0.00000E+000	-3.70634E-006	0.00000E+000	4.32217E-004	-3.27672E+002	7	...........
	517	518	3.90934E+000	-9.47578E-007	0.00000E+000	-3.70441E-006	0.00000E+000	4.33083E-004	-3.27672E+002	7	...........
	518	519	3.90933E+000	-9.47384E-007	0.00000E+000	-3.70364E-006	0.00000E+000	4.29083E-004	-3.27672E+002	7	...........
	519	520	3.90933E+000	-9.47714E-007	0.00000E+000	-3.70493E-006	0.00000E+000	4.30283E-004	-3.27672E+002	7	...........
	520	521	3.90933E+000	-9.47815E-007	0.00000E+000	-3.70532E-006	0.00000E+000	4.31383E-004	-3.27672E+002	7	...........
	521	522	3.90933E+000	-9.48090E-007	0.00000E+000	-3.70640E-006	0.00000E+000	4.27683E-004	-3.27672E+002	7	...........
	522	523	3.90933E+000	-9.47887E-007	0.00000E+000	-3.70560E-006	0.00000E+000	4.30267E-004	-3.27672E+002	7	...........
	523	524	3.90933E+000	-9.47477E-007	0.00000E+000	-3.70400E-006	0.00000E+000	4.33033E-004	-3.27672E+002	7	...........
	524	525	3.90934E+000	-9.47544E-007	0.00000E+000	-3.70427E-006	0.00000E+000	4.33883E-004	-3.27672E+002	7	...........
	525	526	3.90933E+000	-9.47239E-007	0.00000E+000	-3.70307E-006	0.00000E+000	4.31550E-004	-3.27672E+002	7	...........
	526	527	3.90933E+000	-9.47611E-007	0.00000E+000	-3.70452E-006	0.00000E+000	4.30167E-004	-3.27672E+002	7	...........
	527	528	3.90933E+000	-9.47006E-007	0.00000E+000	-3.70216E-006	0.00000E+000	4.30867E-004	-3.27672E+002	7	...........
	528	529	3.90932E+000	-9.47890E-007	0.00000E+000	-3.70561E-006	0.00000E+000	4.33883E-004	-3.27672E+002	7	...........
	529	530	3.90932E+000	-9.47818E-007	0.00000E+000	-3.70532E-006	0.00000E+000	4.27817E-004	-3.27672E+002	7	...........
	530	531	3.90932E+000	-9.47969E-007	0.00000E+000	-3.70591E-006	0.00000E+000	4.29050E-004	-3.27672E+002	7	...........
	531	532	3.90932E+000	-9.48268E-007	0.00000E+000	-3.70708E-006	0.00000E+000	4.31450E-004	-3.27672E+002	7	...........
	532	533	3.90932E+000	-9.47700E-007	0.00000E+000	-3.70486E-006	0.00000E+000	4.31067E-004	-3.27672E+002	7	...........
	533	534	3.90932E+000	-9.47092E-007	0.00000E+000	-3.70248E-006	0.00000E+000	4.29767E-004	-3.27672E+002	7	...........
	534	535	3.90930E+000	-9.47583E-007	0.00000E+000	-3.70439E-006	0.00000E+000	4.34600E-004	-3.27672E+002	7	...........
	535	536	3.90930E+000	-9.48258E-007	0.00000E+000	-3.70703E-006	0.00000E+000	4.32750E-004	-3.27672E+002	7	...........
	536	537	3.90930E+000	-9.47880E-007	0.00000E+000	-3.70554E-006	0.00000E+000	4.33033E-004	-3.27672E+002	7	...........
	537	538	3.90931E+000	-9.48065E-007	0.00000E+000	-3.70628E-006	0.00000E+000	4.30917E-004	-3.27672E+002	7	...........
	538	539	3.90929E+000	-9.48334E-007	0.00000E+000	-3.70732E-006	0.00000E+000	4.29333E-004	-3.27672E+002	7	...........
	539	540	3.90929E+000	-9.47812E-007	0.00000E+000	-3.70527E-006	0.00000E+000	4.27617E-004	-3.27672E+002	7	...........
	540	541	3.90929E+000	-9.48027E-007	0.00000E+000	-3.70612E-006	0.00000E+000	4.28617E-004	-3.27672E+002	7	...........
	541	542	3.90930E+000	-9.48241E-007	0.00000E+000	-3.70695E-006	0.00000E+000	4.30817E-004	-3.27672E+002	7	...........
	542	543	3.90930E+000	-9.48980E-007	0.00000E+000	-3.70984E-006	0.00000E+000	4.31200E-004	-3.27672E+002	7	...........
	543	544	3.90929E+000	-9.48541E-007	0.00000E+000	-3.70812E-006	0.00000E+000	4.30217E-004	-3.27672E+002	7	...........
	544	545	3.90928E+000	-9.48647E-007	0.00000E+000	-3.70853E-006	0.00000E+000	4.31733E-004	-3.27672E+002	7	...........
	545	546	3.90928E+000	-9.48490E-007	0.00000E+000	-3.70792E-006	0.00000E+000	4.31183E-004	-3.27672E+002	7	...........
	546	547	3.90929E+000	-9.48718E-007	0.00000E+000	-3.70881E-006	0.00000E+000	4.29817E-004	-3.27672E+002	7	...........
	547	548	3.90928E+000	-9.48403E-007	0.00000E+000	-3.70758E-006	0.00000E+000	4.27383E-004	-3.27672E+002	7	...........
	548	549	3.90927E+000	-9.48398E-007	0.00000E+000	-3.70755E-006	0.00000E+000	4.26883E-004	-3.27672E+002	7	...........
	549	550	3.90927E+000	-9.47646E-007	0.00000E+000	-3.70460E-006	0.00000E+000	4.28817E-004	-3.27672E+002	7	...........
	550	551	3.90927E+000	-9.48405E-007	0.00000E+000	-3.70757E-006	0.00000E+000	4.30700E-004	-3.27672E+002	7	...........
	551	552	3.90927E+000	-9.48549E-007	0.00000E+000	-3.70813E-006	0.00000E+000	4.28800E-004	-3.27672E+002	7	...........
	552	553	3.90926E+000	-9.48425E-007	0.00000E+000	-3.70764E-006	0.00000E+000	4.32667E-004	-3.27672E+002	7	...........
	553	554	3.90926E+000	-9.48424E-007	0.00000E+000	-3.70763E-006	0.00000E+000	4.28850E-004	-3.27672E+002	7	...........
	554	555	3.90926E+000	-9.48137E-007	0.00000E+000	-3.70651E-006	0.00000E+000	4.27200E-004	-3.27672E+002	7	...........
	555	556	3.90926E+000	-9.47826E-007	0.00000E+000	-3.70529E-006	0.00000E+000	4.31283E-004	-3.27672E+002	7	...........
	556	557	3.90926E+000	-9.47863E-007	0.00000E+000	-3.70545E-006	0.00000E+000	4.27417E-004	-3.27672E+002	7	...........
	557	558	3.90926E+000	-9.48246E-007	0.00000E+000	-3.70694E-006	0.00000E+000	4.31750E-004	-3.27672E+002	7	...........
	558	559	3.90927E+000	-9.47887E-007	0.00000E+000	-3.70554E-006	0.00000E+000	4.33800E-004	-3.27672E+002	7	...........
	559	560	3.90925E+000	-9.48546E-007	0.00000E+000	-3.70810E-006	0.00000E+000	4.31633E-004	-3.27672E+002	7	...........
	560	561	3.90925E+000	-9.48667E-007	0.00000E+000	-3.70858E-006	0.00000E+000	4.30733E-004	-3.27672E+002	7	...........
	561	562	3.90925E+000	-9.48647E-007	0.00000E+000	-3.70850E-006	0.00000E+000	4.30617E-004	-3.27672E+002	7	...........
	562	563	3.90925E+000	-9.47809E-007	0.00000E+000	-3.70523E-006	0.00000E+000	4.31517E-004	-3.27672E+002	7	...........
	563	564	3.90926E+000	-9.48196E-007	0.00000E+000	-3.70674E-006	0.00000E+000	4.32383E-004	-3.27672E+002	7	...........
	564	565	3.90925E+000	-9.47416E-007	0.00000E+000	-3.70369E-006	0.00000E+000	4.30467E-004	-3.27672E+002	7	...........
	565	566	3.90924E+000	-9.46655E-007	0.00000E+000	-3.70070E-006	0.00000E+000	4.30317E-004	-3.27672E+002	7	...........
	566	567	3.90924E+000	-9.47909E-007	0.00000E+000	-3.70560E-006	0.00000E+000	4.29183E-004	-3.27672E+002	7	...........
	567	568	3.90923E+000	-9.48322E-007	0.00000E+000	-3.70721E-006	0.00000E+000	4.27650E-004	-3.27672E+002	7	...........
	568	569	3.90923E+000	-9.48643E-007	0.00000E+000	-3.70847E-006	0.00000E+000	4.29783E-004	-3.27672E+002	7	...........
	569	570	3.90925E+000	-9.48484E-007	0.00000E+000	-3.70786E-006	0.00000E+000	4.31267E-004	-3.27672E+002	7	...........
	570	571	3.90923E+000	-9.48164E-007	0.00000E+000	-3.70659E-006	0.00000E+000	4.32567E-004	-3.27672E+002	7	...........
	571	572	3.90925E+000	-9.47924E-007	0.00000E+000	-3.70567E-006	0.00000E+000	4.29983E-004	-3.27672E+002	7	...........
	572	573	3.90924E+000	-9.48666E-007	0.00000E+000	-3.70856E-006	0.00000E+000	4.31467E-004	-3.27672E+002	7	...........
	573	574	3.90923E+000	-9.48156E-007	0.00000E+000	-3.70656E-006	0.00000E+000	4.28283E-004	-3.27672E+002	7	...........
	574	575	3.90923E+000	-9.48713E-007	0.00000E+000	-3.70874E-006	0.00000E+000	4.31233E-004	-3.27672E+002	7	...........
	575	576	3.90923E+000	-9.48518E-007	0.00000E+000	-3.70797E-006	0.00000E+000	4.27300E-004	-3.27672E+002	7	...........
	576	577	3.90922E+000	-9.48036E-007	0.00000E+000	-3.70608E-006	0.00000E+000	4.31000E-004	-3.27672E+002	7	...........
	577	578	3.90923E+000	-9.48220E-007	0.00000E+000	-3.70681E-006	0.00000E+000	4.28783E-004	-3.27672E+002	7	...........
	578	579	3.90921E+000	-9.48522E-007	0.00000E+000	-3.70798E-006	0.00000E+000	4.29417E-004	-3.27672E+002	7	...........
	579	580	3.90921E+000	-9.48895E-007	0.00000E+000	-3.70943E-006	0.00000E+000	4.26883E-004	-3.27672E+002	7	...........
	580	581	3.90920E+000	-9.48174E-007	0.00000E+000	-3.70660E-006	0.00000E+000	4.26367E-004	-3.27672E+002	7	...........
	581	582	3.90921E+000	-9.48275E-007	0.00000E+000	-3.70700E-006	0.00000E+000	4.28550E-004	-3.27672E+002	7	...........
	582	583	3.90921E+000	-9.48599E-007	0.00000E+000	-3.70827E-006	0.00000E+000	4.28900E-004	-3.27672E+002	7	...........
	583	584	3.90922E+000	-9.48499E-007	0.00000E+000	-3.70789E-006	0.00000E+000	4.29717E-004	-3.27672E+002	7	...........
	584	585	3.90922E+000	-9.48927E-007	0.00000E+000	-3.70957E-006	0.00000E+000	4.29183E-004	-3.27672E+002	7	...........
	585	586	3.90921E+000	-9.48681E-007	0.00000E+000	-3.70859E-006	0.00000E+000	4.31100E-004	-3.27672E+002	7	...........
	586	587	3.90921E+000	-9.48164E-007	0.00000E+000	-3.70657E-006	0.00000E+000	4.34600E-004	-3.27672E+002	7	...........
	587	588	3.90921E+000	-9.48126E-007	0.00000E+000	-3.70642E-006	0.00000E+000	4.29583E-004	-3.27672E+002	7	...........
	588	589	3.90920E+000	-9.47913E-007	0.00000E+000	-3.70558E-006	0.00000E+000	4.30583E-004	-3.27672E+002	7	...........
	589	590	3.90920E+000	-9.48450E-007	0.00000E+000	-3.70768E-006	0.00000E+000	4.30033E-004	-3.27672E+002	7	...........
	590	591	3.90919E+000	-9.48756E-007	0.00000E+000	-3.70887E-006	0.00000E+000	4.30367E-004	-3.27672E+002	7	...........
	591	592	3.90921E+000	-9.48775E-007	0.00000E+000	-3.70896E-006	0.00000E+000	4.27833E-004	-3.27672E+002	7	...........
	592	593	3.90920E+000	-9.48754E-007	0.00000E+000	-3.70887E-006	0.00000E+000	4.28633E-004	-3.27672E+002	7	...........
	593	594	3.90919E+000	-9.48915E-007	0.00000E+000	-3.70949E-006	0.00000E+000	4.30233E-004	-3.27672E+002	7	...........
	594	595	3.90919E+000	-9.48697E-007	0.00000E+000	-3.70864E-006	0.00000E+000	4.29183E-004	-3.27672E+002	7	...........
	595	596	3.90920E+000	-9.48788E-007	0.00000E+000	-3.70900E-006	0.00000E+000	4.32750E-004	-3.27672E+002	7	...........
	596	597	3.90919E+000	-9.47427E-007	0.00000E+000	-3.70367E-006	0.00000E+000	4.30167E-004	-3.27672E+002	7	...........
	597	598	3.90918E+000	-9.48924E-007	0.00000E+000	-3.70952E-006	0.00000E+000	4.29233E-004	-3.27672E+002	7	...........
	598	599	3.90918E+000	-9.48558E-007	0.00000E+000	-3.70809E-006	0.00000E+000	4.28383E-004	-3.27672E+002	7	...........
	599	600	3.90918E+000	-9.49004E-007	0.00000E+000	-3.70983E-006	0.00000E+000	4.28467E-004	-3.27672E+002	7	...........
