EXPLAIN
TAG	PWR800_READVOLTAGE
TITLE	LABEL	PWR Read Voltage	Test Identifier
DATE	LABEL	2.2.2024	Date
TIME	LABEL	21:04:38	Time
NOTES	NOTES	1	Notes...
	
PSTAT	PSTAT	REF600-12055	Potentiostat
CAPACITY	QUANT	1.00000E+000	Capacity (A-hr)
CELLTYPE	SELECTOR	1	Cell Type
WORKINGCONNECTION	SELECTOR	0	Working Connection
MAXTIME	VARIABLEANDUNITS	6.00000E+002	s	6.00000E+002	second(s)	Max Time
SAMPLETIME	QUANT	1.00000E+000	Sample Period (s)
STOPAT1	MULTIPARAM	0	0.00000E+000	Stop At 1	None	N/A
STOPAT2	MULTIPARAM	0	0.00000E+000	Stop At 2	None	N/A
AESBHCSELECTOR	TOGGLE	F	Save Both Half Cells
EOC	QUANT	3.573404	Open Circuit (V)
SEQUENCER	TOGGLE	TRUE	Run as Sequence
PSTATMODEL	IQUANT	4	Pstat Model
PSTATSECTION	LABEL	REF600-12055	Pstat Section
PSTATSERIALNO	LABEL	12055	Pstat Serial Number
CTRLMODE	IQUANT	0	Control Mode
ELECTROMETER	IQUANT	0	RE=0 or CS=1
IESTAB	IQUANT	0	I/E Stability
CASPEED	IQUANT	4	Control Amp Speed
CONVENTION	IQUANT	1	Current Convention
ICHRANGE	IQUANT	2	Ich Range
ICHRANGEMODE	TOGGLE	T	Ich Auto Range
ICHOFFSETENABLE	TOGGLE	F	Ich Offset Enable
ICHOFFSET	QUANT	0	Ich Offset (V)
ICHFILTER	IQUANT	1	Ich Filter
VCHRANGE	IQUANT	3	Vch Range
VCHRANGEMODE	TOGGLE	T	Vch Auto Range
VCHOFFSETENABLE	TOGGLE	F	Vch Offset Enable
VCHOFFSET	QUANT	0	Vch Offset (V)
VCHFILTER	IQUANT	1	Vch Filter
ACHRANGE	IQUANT	2	Ach Range
ACHOFFSETENABLE	TOGGLE	F	Ach Offset Enable
ACHOFFSET	QUANT	0	Ach Offset (V)
ACHFILTER	IQUANT	1	Ach Filter
IERANGELOWERLIMIT	IQUANT	7	I/E Range Lower Limit
IERANGEMODE	TOGGLE	F	I/E AutoRange
IERANGE	IQUANT	11	I/E Range
POSFEEDENABLE	TOGGLE	F	Positive Feedback IR Comp
POSFEEDRESISTANCE	QUANT	0	Positive Feedback Resistance (ohm)
ACHSELECT	IQUANT	4	Ach Select
SENSECABLEID	IQUANT	14	Sense Cable ID
PWRCABLEID	IQUANT	14	Power Cable ID
DCCALDATE	LABEL		DC Calibration Date
ACCALDATE	LABEL		AC Calibration Date
THERMOSELECT	IQUANT	1	Thermo Select
FRAMEWORKVERSION	LABEL	7.10.3	Framework Version
INSTRUMENTVERSION	LABEL	4.91	Instrument Version
COMMVERSION	LABEL	2.24	Communications Version
CPUPLDVERSION	LABEL	0.00	CPU PLD Version
CTRLPLDVERSION	LABEL	0.00	CTRL PLD Version
PSTATPLDVERSION	LABEL	0.00	PSTAT PLD Version
CURVE	TABLE	600
	Pt	T	Vf	Im	Vu	Pwr	Sig	Ach	Temp	IERange	Over
	#	s	V	A	V	W	V	V	deg C	#	bits
	0	1	3.64314E+000	5.69458E-007	0.00000E+000	2.07461E-006	0.00000E+000	7.81583E-004	-3.27672E+002	7	...........
	1	2	3.64283E+000	5.69873E-007	0.00000E+000	2.07595E-006	0.00000E+000	7.79000E-004	-3.27672E+002	7	...........
	2	3	3.64257E+000	5.69476E-007	0.00000E+000	2.07436E-006	0.00000E+000	7.77767E-004	-3.27672E+002	7	...........
	3	4	3.64234E+000	5.68916E-007	0.00000E+000	2.07219E-006	0.00000E+000	7.78333E-004	-3.27672E+002	7	...........
	4	5	3.64214E+000	5.69445E-007	0.00000E+000	2.07400E-006	0.00000E+000	7.84117E-004	-3.27672E+002	7	...........
	5	6	3.64200E+000	5.67931E-007	0.00000E+000	2.06841E-006	0.00000E+000	7.85500E-004	-3.27672E+002	7	...........
	6	7	3.64187E+000	5.68016E-007	0.00000E+000	2.06864E-006	0.00000E+000	7.84833E-004	-3.27672E+002	7	...........
	7	8	3.64177E+000	5.67149E-007	0.00000E+000	2.06542E-006	0.00000E+000	7.83650E-004	-3.27672E+002	7	...........
	8	9	3.64167E+000	5.68003E-007	0.00000E+000	2.06848E-006	0.00000E+000	7.83000E-004	-3.27672E+002	7	...........
	9	10	3.64161E+000	5.67118E-007	0.00000E+000	2.06522E-006	0.00000E+000	7.82233E-004	-3.27672E+002	7	...........
	10	11	3.64155E+000	5.68633E-007	0.00000E+000	2.07071E-006	0.00000E+000	7.82450E-004	-3.27672E+002	7	...........
	11	12	3.64151E+000	5.67502E-007	0.00000E+000	2.06657E-006	0.00000E+000	7.80817E-004	-3.27672E+002	7	...........
	12	13	3.64145E+000	5.67878E-007	0.00000E+000	2.06790E-006	0.00000E+000	7.81050E-004	-3.27672E+002	7	...........
	13	14	3.64141E+000	5.67336E-007	0.00000E+000	2.06590E-006	0.00000E+000	7.81250E-004	-3.27672E+002	7	...........
	14	15	3.64137E+000	5.66465E-007	0.00000E+000	2.06271E-006	0.00000E+000	7.77283E-004	-3.27672E+002	7	...........
	15	16	3.64132E+000	5.67066E-007	0.00000E+000	2.06487E-006	0.00000E+000	7.78133E-004	-3.27672E+002	7	...........
	16	17	3.64127E+000	5.66949E-007	0.00000E+000	2.06441E-006	0.00000E+000	7.73750E-004	-3.27672E+002	7	...........
	17	18	3.64122E+000	5.66865E-007	0.00000E+000	2.06408E-006	0.00000E+000	7.77133E-004	-3.27672E+002	7	...........
	18	19	3.64117E+000	5.67091E-007	0.00000E+000	2.06487E-006	0.00000E+000	7.75700E-004	-3.27672E+002	7	...........
	19	20	3.64111E+000	5.67645E-007	0.00000E+000	2.06686E-006	0.00000E+000	7.73200E-004	-3.27672E+002	7	...........
	20	21	3.64104E+000	5.67547E-007	0.00000E+000	2.06646E-006	0.00000E+000	5.72050E-004	-3.27672E+002	7	...........
	21	22	3.64099E+000	5.68014E-007	0.00000E+000	2.06813E-006	0.00000E+000	4.76883E-004	-3.27672E+002	7	...........
	22	23	3.64092E+000	5.67574E-007	0.00000E+000	2.06649E-006	0.00000E+000	4.80567E-004	-3.27672E+002	7	...........
	23	24	3.64087E+000	5.67918E-007	0.00000E+000	2.06772E-006	0.00000E+000	4.82083E-004	-3.27672E+002	7	...........
	24	25	3.64081E+000	5.68288E-007	0.00000E+000	2.06903E-006	0.00000E+000	4.80900E-004	-3.27672E+002	7	...........
	25	26	3.64076E+000	5.67638E-007	0.00000E+000	2.06664E-006	0.00000E+000	4.80450E-004	-3.27672E+002	7	...........
	26	27	3.64070E+000	5.68353E-007	0.00000E+000	2.06920E-006	0.00000E+000	4.80650E-004	-3.27672E+002	7	...........
	27	28	3.64064E+000	5.68145E-007	0.00000E+000	2.06841E-006	0.00000E+000	4.88200E-004	-3.27672E+002	7	...........
	28	29	3.64058E+000	5.68624E-007	0.00000E+000	2.07012E-006	0.00000E+000	4.86617E-004	-3.27672E+002	7	...........
	29	30	3.64053E+000	5.68012E-007	0.00000E+000	2.06787E-006	0.00000E+000	4.87433E-004	-3.27672E+002	7	...........
	30	31	3.64048E+000	5.66953E-007	0.00000E+000	2.06398E-006	0.00000E+000	4.87583E-004	-3.27672E+002	7	...........
	31	32	3.64044E+000	5.66629E-007	0.00000E+000	2.06278E-006	0.00000E+000	4.87517E-004	-3.27672E+002	7	...........
	32	33	3.64041E+000	5.68688E-007	0.00000E+000	2.07026E-006	0.00000E+000	4.89617E-004	-3.27672E+002	7	...........
	33	34	3.64035E+000	5.68145E-007	0.00000E+000	2.06825E-006	0.00000E+000	4.88500E-004	-3.27672E+002	7	...........
	34	35	3.64032E+000	5.68343E-007	0.00000E+000	2.06895E-006	0.00000E+000	4.90767E-004	-3.27672E+002	7	...........
	35	36	3.64030E+000	5.68513E-007	0.00000E+000	2.06956E-006	0.00000E+000	4.91633E-004	-3.27672E+002	7	...........
	36	37	3.64026E+000	5.67747E-007	0.00000E+000	2.06675E-006	0.00000E+000	4.90083E-004	-3.27672E+002	7	...........
	37	38	3.64022E+000	5.67536E-007	0.00000E+000	2.06596E-006	0.00000E+000	4.92133E-004	-3.27672E+002	7	...........
	38	39	3.64019E+000	5.67022E-007	0.00000E+000	2.06407E-006	0.00000E+000	4.89433E-004	-3.27672E+002	7	...........
	39	40	3.64016E+000	5.67385E-007	0.00000E+000	2.06537E-006	0.00000E+000	4.90650E-004	-3.27672E+002	7	...........
	40	41	3.64013E+000	5.67284E-007	0.00000E+000	2.06499E-006	0.00000E+000	4.90033E-004	-3.27672E+002	7	...........
	41	42	3.64010E+000	5.67328E-007	0.00000E+000	2.06513E-006	0.00000E+000	4.92233E-004	-3.27672E+002	7	...........
	42	43	3.64006E+000	5.66881E-007	0.00000E+000	2.06348E-006	0.00000E+000	4.91733E-004	-3.27672E+002	7	...........
	43	44	3.64003E+000	5.67072E-007	0.00000E+000	2.06416E-006	0.00000E+000	4.91967E-004	-3.27672E+002	7	...........
	44	45	3.64000E+000	5.68237E-007	0.00000E+000	2.06838E-006	0.00000E+000	4.92267E-004	-3.27672E+002	7	...........
	45	46	3.63997E+000	5.68232E-007	0.00000E+000	2.06835E-006	0.00000E+000	4.91667E-004	-3.27672E+002	7	...........
	46	47	3.63992E+000	5.67039E-007	0.00000E+000	2.06398E-006	0.00000E+000	4.93800E-004	-3.27672E+002	7	...........
	47	48	3.63990E+000	5.67648E-007	0.00000E+000	2.06618E-006	0.00000E+000	4.94083E-004	-3.27672E+002	7	...........
	48	49	3.63986E+000	5.67073E-007	0.00000E+000	2.06406E-006	0.00000E+000	4.92200E-004	-3.27672E+002	7	...........
	49	50	3.63982E+000	5.67261E-007	0.00000E+000	2.06473E-006	0.00000E+000	4.95400E-004	-3.27672E+002	7	...........
	50	51	3.63979E+000	5.68230E-007	0.00000E+000	2.06824E-006	0.00000E+000	4.93983E-004	-3.27672E+002	7	...........
	51	52	3.63975E+000	5.68304E-007	0.00000E+000	2.06849E-006	0.00000E+000	4.93033E-004	-3.27672E+002	7	...........
	52	53	3.63971E+000	5.68004E-007	0.00000E+000	2.06737E-006	0.00000E+000	4.95483E-004	-3.27672E+002	7	...........
	53	54	3.63967E+000	5.67529E-007	0.00000E+000	2.06562E-006	0.00000E+000	4.93383E-004	-3.27672E+002	7	...........
	54	55	3.63963E+000	5.67090E-007	0.00000E+000	2.06400E-006	0.00000E+000	4.97317E-004	-3.27672E+002	7	...........
	55	56	3.63960E+000	5.67536E-007	0.00000E+000	2.06560E-006	0.00000E+000	4.95800E-004	-3.27672E+002	7	...........
	56	57	3.63955E+000	5.67453E-007	0.00000E+000	2.06528E-006	0.00000E+000	4.95300E-004	-3.27672E+002	7	...........
	57	58	3.63951E+000	5.67210E-007	0.00000E+000	2.06437E-006	0.00000E+000	4.94950E-004	-3.27672E+002	7	...........
	58	59	3.63947E+000	5.68275E-007	0.00000E+000	2.06822E-006	0.00000E+000	4.94550E-004	-3.27672E+002	7	...........
	59	60	3.63944E+000	5.68672E-007	0.00000E+000	2.06964E-006	0.00000E+000	4.95250E-004	-3.27672E+002	7	...........
	60	61	3.63942E+000	5.70025E-007	0.00000E+000	2.07456E-006	0.00000E+000	4.94583E-004	-3.27672E+002	7	...........
	61	62	3.63937E+000	5.68077E-007	0.00000E+000	2.06744E-006	0.00000E+000	4.95283E-004	-3.27672E+002	7	...........
	62	63	3.63934E+000	5.68103E-007	0.00000E+000	2.06752E-006	0.00000E+000	4.94633E-004	-3.27672E+002	7	...........
	63	64	3.63930E+000	5.68624E-007	0.00000E+000	2.06939E-006	0.00000E+000	4.96467E-004	-3.27672E+002	7	...........
	64	65	3.63926E+000	5.68889E-007	0.00000E+000	2.07034E-006	0.00000E+000	4.94233E-004	-3.27672E+002	7	...........
	65	66	3.63921E+000	5.69220E-007	0.00000E+000	2.07151E-006	0.00000E+000	4.94267E-004	-3.27672E+002	7	...........
	66	67	3.63919E+000	5.68638E-007	0.00000E+000	2.06938E-006	0.00000E+000	4.95017E-004	-3.27672E+002	7	...........
	67	68	3.63916E+000	5.68930E-007	0.00000E+000	2.07043E-006	0.00000E+000	4.93333E-004	-3.27672E+002	7	...........
	68	69	3.63913E+000	5.68271E-007	0.00000E+000	2.06801E-006	0.00000E+000	4.94767E-004	-3.27672E+002	7	...........
	69	70	3.63910E+000	5.68191E-007	0.00000E+000	2.06770E-006	0.00000E+000	4.92233E-004	-3.27672E+002	7	...........
	70	71	3.63907E+000	5.68112E-007	0.00000E+000	2.06740E-006	0.00000E+000	4.96283E-004	-3.27672E+002	7	...........
	71	72	3.63903E+000	5.68560E-007	0.00000E+000	2.06901E-006	0.00000E+000	4.93850E-004	-3.27672E+002	7	...........
	72	73	3.63900E+000	5.68781E-007	0.00000E+000	2.06979E-006	0.00000E+000	4.95317E-004	-3.27672E+002	7	...........
	73	74	3.63897E+000	5.68063E-007	0.00000E+000	2.06716E-006	0.00000E+000	4.95883E-004	-3.27672E+002	7	...........
	74	75	3.63896E+000	5.69187E-007	0.00000E+000	2.07125E-006	0.00000E+000	4.94500E-004	-3.27672E+002	7	...........
	75	76	3.63894E+000	5.69309E-007	0.00000E+000	2.07168E-006	0.00000E+000	4.94017E-004	-3.27672E+002	7	...........
	76	77	3.63891E+000	5.69873E-007	0.00000E+000	2.07372E-006	0.00000E+000	4.94567E-004	-3.27672E+002	7	...........
	77	78	3.63887E+000	5.69283E-007	0.00000E+000	2.07155E-006	0.00000E+000	4.94217E-004	-3.27672E+002	7	...........
	78	79	3.63885E+000	5.69663E-007	0.00000E+000	2.07292E-006	0.00000E+000	4.95167E-004	-3.27672E+002	7	...........
	79	80	3.63883E+000	5.68784E-007	0.00000E+000	2.06971E-006	0.00000E+000	4.91167E-004	-3.27672E+002	7	...........
	80	81	3.63881E+000	5.69080E-007	0.00000E+000	2.07077E-006	0.00000E+000	4.93483E-004	-3.27672E+002	7	...........
	81	82	3.63878E+000	5.69179E-007	0.00000E+000	2.07112E-006	0.00000E+000	4.94283E-004	-3.27672E+002	7	...........
	82	83	3.63877E+000	5.69780E-007	0.00000E+000	2.07330E-006	0.00000E+000	4.95700E-004	-3.27672E+002	7	...........
	83	84	3.63875E+000	5.70015E-007	0.00000E+000	2.07414E-006	0.00000E+000	4.93467E-004	-3.27672E+002	7	...........
	84	85	3.63875E+000	5.69691E-007	0.00000E+000	2.07296E-006	0.00000E+000	4.93800E-004	-3.27672E+002	7	...........
	85	86	3.63873E+000	5.69679E-007	0.00000E+000	2.07291E-006	0.00000E+000	4.95800E-004	-3.27672E+002	7	...........
	86	87	3.63870E+000	5.69589E-007	0.00000E+000	2.07257E-006	0.00000E+000	4.95650E-004	-3.27672E+002	7	...........
	87	88	3.63869E+000	5.69171E-007	0.00000E+000	2.07104E-006	0.00000E+000	4.92317E-004	-3.27672E+002	7	...........
	88	89	3.63867E+000	5.69115E-007	0.00000E+000	2.07082E-006	0.00000E+000	4.95383E-004	-3.27672E+002	7	...........
	89	90	3.63865E+000	5.68981E-007	0.00000E+000	2.07032E-006	0.00000E+000	4.93917E-004	-3.27672E+002	7	...........
	90	91	3.63864E+000	5.69696E-007	0.00000E+000	2.07292E-006	0.00000E+000	4.94317E-004	-3.27672E+002	7	...........
	91	92	3.63863E+000	5.70447E-007	0.00000E+000	2.07565E-006	0.00000E+000	4.92717E-004	-3.27672E+002	7	...........
	92	93	3.63863E+000	5.70392E-007	0.00000E+000	2.07544E-006	0.00000E+000	4.91550E-004	-3.27672E+002	7	...........
	93	94	3.63861E+000	5.69468E-007	0.00000E+000	2.07207E-006	0.00000E+000	4.91400E-004	-3.27672E+002	7	...........
	94	95	3.63859E+000	5.70132E-007	0.00000E+000	2.07448E-006	0.00000E+000	4.94350E-004	-3.27672E+002	7	...........
	95	96	3.63859E+000	5.70073E-007	0.00000E+000	2.07426E-006	0.00000E+000	4.91650E-004	-3.27672E+002	7	...........
	96	97	3.63857E+000	5.70770E-007	0.00000E+000	2.07679E-006	0.00000E+000	4.92500E-004	-3.27672E+002	7	...........
	97	98	3.63856E+000	5.69977E-007	0.00000E+000	2.07390E-006	0.00000E+000	4.93933E-004	-3.27672E+002	7	...........
	98	99	3.63855E+000	5.69467E-007	0.00000E+000	2.07203E-006	0.00000E+000	4.91067E-004	-3.27672E+002	7	...........
	99	100	3.63853E+000	5.69199E-007	0.00000E+000	2.07105E-006	0.00000E+000	4.91217E-004	-3.27672E+002	7	...........
	100	101	3.63852E+000	5.69869E-007	0.00000E+000	2.07348E-006	0.00000E+000	4.89100E-004	-3.27672E+002	7	...........
	101	102	3.63851E+000	5.69582E-007	0.00000E+000	2.07243E-006	0.00000E+000	4.90900E-004	-3.27672E+002	7	...........
	102	103	3.63850E+000	5.69693E-007	0.00000E+000	2.07283E-006	0.00000E+000	4.90983E-004	-3.27672E+002	7	...........
	103	104	3.63849E+000	5.69513E-007	0.00000E+000	2.07217E-006	0.00000E+000	4.89200E-004	-3.27672E+002	7	...........
	104	105	3.63847E+000	5.69500E-007	0.00000E+000	2.07211E-006	0.00000E+000	4.88650E-004	-3.27672E+002	7	...........
	105	106	3.63846E+000	5.69611E-007	0.00000E+000	2.07251E-006	0.00000E+000	4.87950E-004	-3.27672E+002	7	...........
	106	107	3.63845E+000	5.70377E-007	0.00000E+000	2.07529E-006	0.00000E+000	4.87233E-004	-3.27672E+002	7	...........
	107	108	3.63843E+000	5.70007E-007	0.00000E+000	2.07393E-006	0.00000E+000	4.87917E-004	-3.27672E+002	7	...........
	108	109	3.63843E+000	5.70520E-007	0.00000E+000	2.07580E-006	0.00000E+000	4.89450E-004	-3.27672E+002	7	...........
	109	110	3.63842E+000	5.70323E-007	0.00000E+000	2.07507E-006	0.00000E+000	4.87950E-004	-3.27672E+002	7	...........
	110	111	3.63840E+000	5.69438E-007	0.00000E+000	2.07185E-006	0.00000E+000	4.85433E-004	-3.27672E+002	7	...........
	111	112	3.63838E+000	5.70052E-007	0.00000E+000	2.07407E-006	0.00000E+000	4.88267E-004	-3.27672E+002	7	...........
	112	113	3.63837E+000	5.69713E-007	0.00000E+000	2.07283E-006	0.00000E+000	4.83700E-004	-3.27672E+002	7	...........
	113	114	3.63835E+000	5.70047E-007	0.00000E+000	2.07403E-006	0.00000E+000	4.85600E-004	-3.27672E+002	7	...........
	114	115	3.63834E+000	5.71328E-007	0.00000E+000	2.07869E-006	0.00000E+000	4.85717E-004	-3.27672E+002	7	...........
	115	116	3.63833E+000	5.71204E-007	0.00000E+000	2.07823E-006	0.00000E+000	4.86483E-004	-3.27672E+002	7	...........
	116	117	3.63831E+000	5.70777E-007	0.00000E+000	2.07666E-006	0.00000E+000	4.87500E-004	-3.27672E+002	7	...........
	117	118	3.63829E+000	5.70028E-007	0.00000E+000	2.07393E-006	0.00000E+000	4.86700E-004	-3.27672E+002	7	...........
	118	119	3.63828E+000	5.70621E-007	0.00000E+000	2.07608E-006	0.00000E+000	4.84333E-004	-3.27672E+002	7	...........
	119	120	3.63826E+000	5.70480E-007	0.00000E+000	2.07556E-006	0.00000E+000	4.86817E-004	-3.27672E+002	7	...........
	120	121	3.63826E+000	5.69666E-007	0.00000E+000	2.07259E-006	0.00000E+000	4.86417E-004	-3.27672E+002	7	...........
	121	122	3.63825E+000	5.69403E-007	0.00000E+000	2.07163E-006	0.00000E+000	4.84333E-004	-3.27672E+002	7	...........
	122	123	3.63823E+000	5.70174E-007	0.00000E+000	2.07443E-006	0.00000E+000	4.85183E-004	-3.27672E+002	7	...........
	123	124	3.63821E+000	5.70816E-007	0.00000E+000	2.07675E-006	0.00000E+000	4.85150E-004	-3.27672E+002	7	...........
	124	125	3.63820E+000	5.71369E-007	0.00000E+000	2.07876E-006	0.00000E+000	4.83383E-004	-3.27672E+002	7	...........
	125	126	3.63819E+000	5.70658E-007	0.00000E+000	2.07616E-006	0.00000E+000	4.82933E-004	-3.27672E+002	7	...........
	126	127	3.63817E+000	5.71437E-007	0.00000E+000	2.07899E-006	0.00000E+000	4.84233E-004	-3.27672E+002	7	...........
	127	128	3.63815E+000	5.70360E-007	0.00000E+000	2.07506E-006	0.00000E+000	4.81583E-004	-3.27672E+002	7	...........
	128	129	3.63816E+000	5.70795E-007	0.00000E+000	2.07664E-006	0.00000E+000	4.81550E-004	-3.27672E+002	7	...........
	129	130	3.63812E+000	5.69918E-007	0.00000E+000	2.07343E-006	0.00000E+000	4.81283E-004	-3.27672E+002	7	...........
	130	131	3.63811E+000	5.70712E-007	0.00000E+000	2.07631E-006	0.00000E+000	4.80817E-004	-3.27672E+002	7	...........
	131	132	3.63810E+000	5.70043E-007	0.00000E+000	2.07387E-006	0.00000E+000	4.82883E-004	-3.27672E+002	7	...........
	132	133	3.63808E+000	5.70082E-007	0.00000E+000	2.07401E-006	0.00000E+000	4.82233E-004	-3.27672E+002	7	...........
	133	134	3.63807E+000	5.70288E-007	0.00000E+000	2.07475E-006	0.00000E+000	4.80533E-004	-3.27672E+002	7	...........
	134	135	3.63805E+000	5.69839E-007	0.00000E+000	2.07310E-006	0.00000E+000	4.81467E-004	-3.27672E+002	7	...........
	135	136	3.63805E+000	5.70213E-007	0.00000E+000	2.07446E-006	0.00000E+000	4.83867E-004	-3.27672E+002	7	...........
	136	137	3.63802E+000	5.69807E-007	0.00000E+000	2.07297E-006	0.00000E+000	4.79583E-004	-3.27672E+002	7	...........
	137	138	3.63801E+000	5.69954E-007	0.00000E+000	2.07350E-006	0.00000E+000	4.78700E-004	-3.27672E+002	7	...........
	138	139	3.63800E+000	5.70666E-007	0.00000E+000	2.07608E-006	0.00000E+000	4.81183E-004	-3.27672E+002	7	...........
	139	140	3.63799E+000	5.71166E-007	0.00000E+000	2.07790E-006	0.00000E+000	4.80733E-004	-3.27672E+002	7	...........
	140	141	3.63798E+000	5.71794E-007	0.00000E+000	2.08018E-006	0.00000E+000	4.80550E-004	-3.27672E+002	7	...........
	141	142	3.63797E+000	5.71458E-007	0.00000E+000	2.07894E-006	0.00000E+000	4.83467E-004	-3.27672E+002	7	...........
	142	143	3.63794E+000	5.71092E-007	0.00000E+000	2.07760E-006	0.00000E+000	4.82917E-004	-3.27672E+002	7	...........
	143	144	3.63793E+000	5.70991E-007	0.00000E+000	2.07723E-006	0.00000E+000	4.81933E-004	-3.27672E+002	7	...........
	144	145	3.63792E+000	5.70268E-007	0.00000E+000	2.07459E-006	0.00000E+000	4.80850E-004	-3.27672E+002	7	...........
	145	146	3.63789E+000	5.70752E-007	0.00000E+000	2.07633E-006	0.00000E+000	4.80300E-004	-3.27672E+002	7	...........
	146	147	3.63789E+000	5.71228E-007	0.00000E+000	2.07806E-006	0.00000E+000	4.81683E-004	-3.27672E+002	7	...........
	147	148	3.63786E+000	5.71441E-007	0.00000E+000	2.07882E-006	0.00000E+000	4.77667E-004	-3.27672E+002	7	...........
	148	149	3.63786E+000	5.71143E-007	0.00000E+000	2.07774E-006	0.00000E+000	4.76800E-004	-3.27672E+002	7	...........
	149	150	3.63784E+000	5.70689E-007	0.00000E+000	2.07608E-006	0.00000E+000	4.79167E-004	-3.27672E+002	7	...........
	150	151	3.63783E+000	5.70675E-007	0.00000E+000	2.07602E-006	0.00000E+000	4.80917E-004	-3.27672E+002	7	...........
	151	152	3.63781E+000	5.70692E-007	0.00000E+000	2.07607E-006	0.00000E+000	4.81217E-004	-3.27672E+002	7	...........
	152	153	3.63781E+000	5.71139E-007	0.00000E+000	2.07769E-006	0.00000E+000	4.80750E-004	-3.27672E+002	7	...........
	153	154	3.63779E+000	5.70882E-007	0.00000E+000	2.07675E-006	0.00000E+000	4.82067E-004	-3.27672E+002	7	...........
	154	155	3.63777E+000	5.71184E-007	0.00000E+000	2.07784E-006	0.00000E+000	4.83617E-004	-3.27672E+002	7	...........
	155	156	3.63777E+000	5.71809E-007	0.00000E+000	2.08011E-006	0.00000E+000	4.82633E-004	-3.27672E+002	7	...........
	156	157	3.63776E+000	5.71990E-007	0.00000E+000	2.08076E-006	0.00000E+000	4.81367E-004	-3.27672E+002	7	...........
	157	158	3.63775E+000	5.71711E-007	0.00000E+000	2.07974E-006	0.00000E+000	4.80983E-004	-3.27672E+002	7	...........
	158	159	3.63774E+000	5.71049E-007	0.00000E+000	2.07733E-006	0.00000E+000	4.80283E-004	-3.27672E+002	7	...........
	159	160	3.63773E+000	5.71663E-007	0.00000E+000	2.07956E-006	0.00000E+000	4.82983E-004	-3.27672E+002	7	...........
	160	161	3.63772E+000	5.71208E-007	0.00000E+000	2.07789E-006	0.00000E+000	4.78967E-004	-3.27672E+002	7	...........
	161	162	3.63771E+000	5.71272E-007	0.00000E+000	2.07812E-006	0.00000E+000	4.82767E-004	-3.27672E+002	7	...........
	162	163	3.63769E+000	5.71715E-007	0.00000E+000	2.07972E-006	0.00000E+000	4.81833E-004	-3.27672E+002	7	...........
	163	164	3.63768E+000	5.72176E-007	0.00000E+000	2.08139E-006	0.00000E+000	4.82433E-004	-3.27672E+002	7	...........
	164	165	3.63766E+000	5.72055E-007	0.00000E+000	2.08095E-006	0.00000E+000	4.83367E-004	-3.27672E+002	7	...........
	165	166	3.63765E+000	5.72260E-007	0.00000E+000	2.08168E-006	0.00000E+000	4.86350E-004	-3.27672E+002	7	...........
	166	167	3.63764E+000	5.72077E-007	0.00000E+000	2.08101E-006	0.00000E+000	4.82550E-004	-3.27672E+002	7	...........
	167	168	3.63763E+000	5.71481E-007	0.00000E+000	2.07884E-006	0.00000E+000	4.83450E-004	-3.27672E+002	7	...........
	168	169	3.63761E+000	5.71616E-007	0.00000E+000	2.07931E-006	0.00000E+000	4.85883E-004	-3.27672E+002	7	...........
	169	170	3.63760E+000	5.72127E-007	0.00000E+000	2.08117E-006	0.00000E+000	4.85950E-004	-3.27672E+002	7	...........
	170	171	3.63760E+000	5.71252E-007	0.00000E+000	2.07799E-006	0.00000E+000	4.85017E-004	-3.27672E+002	7	...........
	171	172	3.63759E+000	5.71950E-007	0.00000E+000	2.08052E-006	0.00000E+000	4.86633E-004	-3.27672E+002	7	...........
	172	173	3.63758E+000	5.71517E-007	0.00000E+000	2.07893E-006	0.00000E+000	4.90233E-004	-3.27672E+002	7	...........
	173	174	3.63757E+000	5.72613E-007	0.00000E+000	2.08292E-006	0.00000E+000	4.86933E-004	-3.27672E+002	7	...........
	174	175	3.63755E+000	5.72291E-007	0.00000E+000	2.08174E-006	0.00000E+000	4.86183E-004	-3.27672E+002	7	...........
	175	176	3.63755E+000	5.71055E-007	0.00000E+000	2.07724E-006	0.00000E+000	4.88633E-004	-3.27672E+002	7	...........
	176	177	3.63754E+000	5.71423E-007	0.00000E+000	2.07857E-006	0.00000E+000	4.87033E-004	-3.27672E+002	7	...........
	177	178	3.63753E+000	5.72032E-007	0.00000E+000	2.08078E-006	0.00000E+000	4.85867E-004	-3.27672E+002	7	...........
	178	179	3.63752E+000	5.72220E-007	0.00000E+000	2.08146E-006	0.00000E+000	4.83267E-004	-3.27672E+002	7	...........
	179	180	3.63751E+000	5.72422E-007	0.00000E+000	2.08219E-006	0.00000E+000	4.86983E-004	-3.27672E+002	7	...........
	180	181	3.63751E+000	5.72385E-007	0.00000E+000	2.08206E-006	0.00000E+000	4.87533E-004	-3.27672E+002	7	...........
	181	182	3.63749E+000	5.71936E-007	0.00000E+000	2.08041E-006	0.00000E+000	4.87100E-004	-3.27672E+002	7	...........
	182	183	3.63748E+000	5.71867E-007	0.00000E+000	2.08016E-006	0.00000E+000	4.87500E-004	-3.27672E+002	7	...........
	183	184	3.63746E+000	5.71292E-007	0.00000E+000	2.07806E-006	0.00000E+000	4.89900E-004	-3.27672E+002	7	...........
	184	185	3.63746E+000	5.70205E-007	0.00000E+000	2.07410E-006	0.00000E+000	4.87283E-004	-3.27672E+002	7	...........
	185	186	3.63746E+000	5.71235E-007	0.00000E+000	2.07784E-006	0.00000E+000	4.87000E-004	-3.27672E+002	7	...........
	186	187	3.63745E+000	5.71052E-007	0.00000E+000	2.07717E-006	0.00000E+000	4.87750E-004	-3.27672E+002	7	...........
	187	188	3.63743E+000	5.71965E-007	0.00000E+000	2.08049E-006	0.00000E+000	4.88033E-004	-3.27672E+002	7	...........
	188	189	3.63743E+000	5.72367E-007	0.00000E+000	2.08195E-006	0.00000E+000	4.87750E-004	-3.27672E+002	7	...........
	189	190	3.63742E+000	5.71671E-007	0.00000E+000	2.07941E-006	0.00000E+000	4.90033E-004	-3.27672E+002	7	...........
	190	191	3.63742E+000	5.71592E-007	0.00000E+000	2.07912E-006	0.00000E+000	4.88850E-004	-3.27672E+002	7	...........
	191	192	3.63740E+000	5.71824E-007	0.00000E+000	2.07995E-006	0.00000E+000	4.89000E-004	-3.27672E+002	7	...........
	192	193	3.63740E+000	5.71574E-007	0.00000E+000	2.07905E-006	0.00000E+000	4.88917E-004	-3.27672E+002	7	...........
	193	194	3.63739E+000	5.72891E-007	0.00000E+000	2.08383E-006	0.00000E+000	4.89900E-004	-3.27672E+002	7	...........
	194	195	3.63738E+000	5.72914E-007	0.00000E+000	2.08391E-006	0.00000E+000	4.88467E-004	-3.27672E+002	7	...........
	195	196	3.63737E+000	5.72658E-007	0.00000E+000	2.08297E-006	0.00000E+000	4.88400E-004	-3.27672E+002	7	...........
	196	197	3.63737E+000	5.72747E-007	0.00000E+000	2.08329E-006	0.00000E+000	4.91767E-004	-3.27672E+002	7	...........
	197	198	3.63735E+000	5.73050E-007	0.00000E+000	2.08438E-006	0.00000E+000	4.89733E-004	-3.27672E+002	7	...........
	198	199	3.63735E+000	5.72243E-007	0.00000E+000	2.08144E-006	0.00000E+000	4.89383E-004	-3.27672E+002	7	...........
	199	200	3.63734E+000	5.72061E-007	0.00000E+000	2.08078E-006	0.00000E+000	4.90750E-004	-3.27672E+002	7	...........
	200	201	3.63733E+000	5.71086E-007	0.00000E+000	2.07723E-006	0.00000E+000	4.88500E-004	-3.27672E+002	7	...........
	201	202	3.63732E+000	5.71470E-007	0.00000E+000	2.07862E-006	0.00000E+000	4.89533E-004	-3.27672E+002	7	...........
	202	203	3.63732E+000	5.72104E-007	0.00000E+000	2.08093E-006	0.00000E+000	4.91800E-004	-3.27672E+002	7	...........
	203	204	3.63731E+000	5.72566E-007	0.00000E+000	2.08260E-006	0.00000E+000	4.91733E-004	-3.27672E+002	7	...........
	204	205	3.63730E+000	5.72451E-007	0.00000E+000	2.08217E-006	0.00000E+000	4.92100E-004	-3.27672E+002	7	...........
	205	206	3.63729E+000	5.72452E-007	0.00000E+000	2.08218E-006	0.00000E+000	4.93700E-004	-3.27672E+002	7	...........
	206	207	3.63728E+000	5.72660E-007	0.00000E+000	2.08292E-006	0.00000E+000	4.90700E-004	-3.27672E+002	7	...........
	207	208	3.63727E+000	5.71506E-007	0.00000E+000	2.07872E-006	0.00000E+000	4.91900E-004	-3.27672E+002	7	...........
	208	209	3.63728E+000	5.72121E-007	0.00000E+000	2.08097E-006	0.00000E+000	4.92850E-004	-3.27672E+002	7	...........
	209	210	3.63727E+000	5.72267E-007	0.00000E+000	2.08149E-006	0.00000E+000	4.89733E-004	-3.27672E+002	7	...........
	210	211	3.63727E+000	5.72594E-007	0.00000E+000	2.08268E-006	0.00000E+000	4.91333E-004	-3.27672E+002	7	...........
	211	212	3.63726E+000	5.71727E-007	0.00000E+000	2.07952E-006	0.00000E+000	4.91933E-004	-3.27672E+002	7	...........
	212	213	3.63725E+000	5.71396E-007	0.00000E+000	2.07831E-006	0.00000E+000	4.92533E-004	-3.27672E+002	7	...........
	213	214	3.63723E+000	5.71128E-007	0.00000E+000	2.07732E-006	0.00000E+000	4.95100E-004	-3.27672E+002	7	...........
	214	215	3.63723E+000	5.71927E-007	0.00000E+000	2.08023E-006	0.00000E+000	4.94817E-004	-3.27672E+002	7	...........
	215	216	3.63722E+000	5.71356E-007	0.00000E+000	2.07815E-006	0.00000E+000	4.93500E-004	-3.27672E+002	7	...........
	216	217	3.63722E+000	5.71262E-007	0.00000E+000	2.07781E-006	0.00000E+000	4.94300E-004	-3.27672E+002	7	...........
	217	218	3.63722E+000	5.71280E-007	0.00000E+000	2.07787E-006	0.00000E+000	4.93733E-004	-3.27672E+002	7	...........
	218	219	3.63720E+000	5.71855E-007	0.00000E+000	2.07995E-006	0.00000E+000	4.97100E-004	-3.27672E+002	7	...........
	219	220	3.63720E+000	5.72049E-007	0.00000E+000	2.08066E-006	0.00000E+000	4.93317E-004	-3.27672E+002	7	...........
	220	221	3.63720E+000	5.71409E-007	0.00000E+000	2.07833E-006	0.00000E+000	4.94267E-004	-3.27672E+002	7	...........
	221	222	3.63719E+000	5.71886E-007	0.00000E+000	2.08006E-006	0.00000E+000	4.95583E-004	-3.27672E+002	7	...........
	222	223	3.63719E+000	5.72057E-007	0.00000E+000	2.08068E-006	0.00000E+000	4.93917E-004	-3.27672E+002	7	...........
	223	224	3.63719E+000	5.72378E-007	0.00000E+000	2.08184E-006	0.00000E+000	4.93767E-004	-3.27672E+002	7	...........
	224	225	3.63717E+000	5.73347E-007	0.00000E+000	2.08536E-006	0.00000E+000	4.96983E-004	-3.27672E+002	7	...........
	225	226	3.63717E+000	5.73165E-007	0.00000E+000	2.08470E-006	0.00000E+000	4.96067E-004	-3.27672E+002	7	...........
	226	227	3.63717E+000	5.72778E-007	0.00000E+000	2.08329E-006	0.00000E+000	4.92250E-004	-3.27672E+002	7	...........
	227	228	3.63717E+000	5.73319E-007	0.00000E+000	2.08526E-006	0.00000E+000	4.94483E-004	-3.27672E+002	7	...........
	228	229	3.63716E+000	5.73442E-007	0.00000E+000	2.08570E-006	0.00000E+000	4.94917E-004	-3.27672E+002	7	...........
	229	230	3.63715E+000	5.72823E-007	0.00000E+000	2.08345E-006	0.00000E+000	4.93167E-004	-3.27672E+002	7	...........
	230	231	3.63715E+000	5.72636E-007	0.00000E+000	2.08276E-006	0.00000E+000	4.95117E-004	-3.27672E+002	7	...........
	231	232	3.63714E+000	5.72416E-007	0.00000E+000	2.08196E-006	0.00000E+000	4.94367E-004	-3.27672E+002	7	...........
	232	233	3.63713E+000	5.72319E-007	0.00000E+000	2.08160E-006	0.00000E+000	4.95517E-004	-3.27672E+002	7	...........
	233	234	3.63713E+000	5.72687E-007	0.00000E+000	2.08294E-006	0.00000E+000	4.94917E-004	-3.27672E+002	7	...........
	234	235	3.63712E+000	5.71981E-007	0.00000E+000	2.08037E-006	0.00000E+000	4.94017E-004	-3.27672E+002	7	...........
	235	236	3.63712E+000	5.72412E-007	0.00000E+000	2.08193E-006	0.00000E+000	4.96733E-004	-3.27672E+002	7	...........
	236	237	3.63712E+000	5.72856E-007	0.00000E+000	2.08355E-006	0.00000E+000	4.96083E-004	-3.27672E+002	7	...........
	237	238	3.63711E+000	5.72976E-007	0.00000E+000	2.08398E-006	0.00000E+000	4.97050E-004	-3.27672E+002	7	...........
	238	239	3.63711E+000	5.71981E-007	0.00000E+000	2.08036E-006	0.00000E+000	4.97850E-004	-3.27672E+002	7	...........
	239	240	3.63710E+000	5.72253E-007	0.00000E+000	2.08135E-006	0.00000E+000	5.00417E-004	-3.27672E+002	7	...........
	240	241	3.63709E+000	5.72759E-007	0.00000E+000	2.08317E-006	0.00000E+000	4.97033E-004	-3.27672E+002	7	...........
	241	242	3.63709E+000	5.71779E-007	0.00000E+000	2.07961E-006	0.00000E+000	4.92750E-004	-3.27672E+002	7	...........
	242	243	3.63708E+000	5.72731E-007	0.00000E+000	2.08307E-006	0.00000E+000	4.97717E-004	-3.27672E+002	7	...........
	243	244	3.63708E+000	5.73293E-007	0.00000E+000	2.08511E-006	0.00000E+000	4.96350E-004	-3.27672E+002	7	...........
	244	245	3.63707E+000	5.72928E-007	0.00000E+000	2.08378E-006	0.00000E+000	4.96150E-004	-3.27672E+002	7	...........
	245	246	3.63708E+000	5.71986E-007	0.00000E+000	2.08036E-006	0.00000E+000	4.97900E-004	-3.27672E+002	7	...........
	246	247	3.63707E+000	5.71859E-007	0.00000E+000	2.07989E-006	0.00000E+000	4.95017E-004	-3.27672E+002	7	...........
	247	248	3.63706E+000	5.72037E-007	0.00000E+000	2.08053E-006	0.00000E+000	4.96117E-004	-3.27672E+002	7	...........
	248	249	3.63706E+000	5.71812E-007	0.00000E+000	2.07971E-006	0.00000E+000	4.98400E-004	-3.27672E+002	7	...........
	249	250	3.63706E+000	5.71764E-007	0.00000E+000	2.07954E-006	0.00000E+000	4.97783E-004	-3.27672E+002	7	...........
	250	251	3.63705E+000	5.72102E-007	0.00000E+000	2.08076E-006	0.00000E+000	4.97183E-004	-3.27672E+002	7	...........
	251	252	3.63704E+000	5.72673E-007	0.00000E+000	2.08283E-006	0.00000E+000	4.96133E-004	-3.27672E+002	7	...........
	252	253	3.63704E+000	5.72048E-007	0.00000E+000	2.08056E-006	0.00000E+000	4.95050E-004	-3.27672E+002	7	...........
	253	254	3.63703E+000	5.72232E-007	0.00000E+000	2.08123E-006	0.00000E+000	4.95650E-004	-3.27672E+002	7	...........
	254	255	3.63704E+000	5.70731E-007	0.00000E+000	2.07577E-006	0.00000E+000	4.96500E-004	-3.27672E+002	7	...........
	255	256	3.63702E+000	5.70168E-007	0.00000E+000	2.07371E-006	0.00000E+000	4.97433E-004	-3.27672E+002	7	...........
	256	257	3.63702E+000	5.71592E-007	0.00000E+000	2.07889E-006	0.00000E+000	4.97333E-004	-3.27672E+002	7	...........
	257	258	3.63701E+000	5.71990E-007	0.00000E+000	2.08033E-006	0.00000E+000	4.95350E-004	-3.27672E+002	7	...........
	258	259	3.63701E+000	5.71992E-007	0.00000E+000	2.08034E-006	0.00000E+000	4.97483E-004	-3.27672E+002	7	...........
	259	260	3.63700E+000	5.72656E-007	0.00000E+000	2.08275E-006	0.00000E+000	4.99933E-004	-3.27672E+002	7	...........
	260	261	3.63700E+000	5.73284E-007	0.00000E+000	2.08503E-006	0.00000E+000	4.95583E-004	-3.27672E+002	7	...........
	261	262	3.63700E+000	5.72878E-007	0.00000E+000	2.08356E-006	0.00000E+000	4.97550E-004	-3.27672E+002	7	...........
	262	263	3.63699E+000	5.72508E-007	0.00000E+000	2.08221E-006	0.00000E+000	4.98033E-004	-3.27672E+002	7	...........
	263	264	3.63699E+000	5.71884E-007	0.00000E+000	2.07994E-006	0.00000E+000	4.97417E-004	-3.27672E+002	7	...........
	264	265	3.63698E+000	5.71101E-007	0.00000E+000	2.07708E-006	0.00000E+000	4.96467E-004	-3.27672E+002	7	...........
	265	266	3.63698E+000	5.71982E-007	0.00000E+000	2.08029E-006	0.00000E+000	4.97033E-004	-3.27672E+002	7	...........
	266	267	3.63698E+000	5.71829E-007	0.00000E+000	2.07973E-006	0.00000E+000	4.99633E-004	-3.27672E+002	7	...........
	267	268	3.63697E+000	5.72471E-007	0.00000E+000	2.08206E-006	0.00000E+000	5.00583E-004	-3.27672E+002	7	...........
	268	269	3.63697E+000	5.72297E-007	0.00000E+000	2.08143E-006	0.00000E+000	4.97050E-004	-3.27672E+002	7	...........
	269	270	3.63696E+000	5.73094E-007	0.00000E+000	2.08432E-006	0.00000E+000	5.01983E-004	-3.27672E+002	7	...........
	270	271	3.63696E+000	5.71767E-007	0.00000E+000	2.07949E-006	0.00000E+000	4.99483E-004	-3.27672E+002	7	...........
	271	272	3.63695E+000	5.72358E-007	0.00000E+000	2.08164E-006	0.00000E+000	4.99317E-004	-3.27672E+002	7	...........
	272	273	3.63695E+000	5.73128E-007	0.00000E+000	2.08444E-006	0.00000E+000	4.98750E-004	-3.27672E+002	7	...........
	273	274	3.63694E+000	5.72752E-007	0.00000E+000	2.08307E-006	0.00000E+000	5.00217E-004	-3.27672E+002	7	...........
	274	275	3.63694E+000	5.72873E-007	0.00000E+000	2.08351E-006	0.00000E+000	4.98867E-004	-3.27672E+002	7	...........
	275	276	3.63694E+000	5.73512E-007	0.00000E+000	2.08583E-006	0.00000E+000	4.96150E-004	-3.27672E+002	7	...........
	276	277	3.63693E+000	5.73286E-007	0.00000E+000	2.08500E-006	0.00000E+000	4.99883E-004	-3.27672E+002	7	...........
	277	278	3.63692E+000	5.74025E-007	0.00000E+000	2.08768E-006	0.00000E+000	4.95583E-004	-3.27672E+002	7	...........
	278	279	3.63691E+000	5.73051E-007	0.00000E+000	2.08414E-006	0.00000E+000	4.96683E-004	-3.27672E+002	7	...........
	279	280	3.63691E+000	5.73221E-007	0.00000E+000	2.08476E-006	0.00000E+000	4.99017E-004	-3.27672E+002	7	...........
	280	281	3.63691E+000	5.72644E-007	0.00000E+000	2.08265E-006	0.00000E+000	4.97433E-004	-3.27672E+002	7	...........
	281	282	3.63690E+000	5.72204E-007	0.00000E+000	2.08105E-006	0.00000E+000	4.97617E-004	-3.27672E+002	7	...........
	282	283	3.63691E+000	5.72083E-007	0.00000E+000	2.08061E-006	0.00000E+000	4.97300E-004	-3.27672E+002	7	...........
	283	284	3.63689E+000	5.72451E-007	0.00000E+000	2.08194E-006	0.00000E+000	4.97667E-004	-3.27672E+002	7	...........
	284	285	3.63690E+000	5.72903E-007	0.00000E+000	2.08359E-006	0.00000E+000	4.99167E-004	-3.27672E+002	7	...........
	285	286	3.63689E+000	5.73601E-007	0.00000E+000	2.08612E-006	0.00000E+000	4.99750E-004	-3.27672E+002	7	...........
	286	287	3.63689E+000	5.72344E-007	0.00000E+000	2.08155E-006	0.00000E+000	5.03267E-004	-3.27672E+002	7	...........
	287	288	3.63689E+000	5.71545E-007	0.00000E+000	2.07864E-006	0.00000E+000	5.01583E-004	-3.27672E+002	7	...........
	288	289	3.63688E+000	5.72866E-007	0.00000E+000	2.08344E-006	0.00000E+000	4.99800E-004	-3.27672E+002	7	...........
	289	290	3.63687E+000	5.73137E-007	0.00000E+000	2.08442E-006	0.00000E+000	4.98183E-004	-3.27672E+002	7	...........
	290	291	3.63686E+000	5.73291E-007	0.00000E+000	2.08498E-006	0.00000E+000	4.97700E-004	-3.27672E+002	7	...........
	291	292	3.63686E+000	5.73911E-007	0.00000E+000	2.08724E-006	0.00000E+000	5.00000E-004	-3.27672E+002	7	...........
	292	293	3.63685E+000	5.73331E-007	0.00000E+000	2.08512E-006	0.00000E+000	5.00933E-004	-3.27672E+002	7	...........
	293	294	3.63686E+000	5.73509E-007	0.00000E+000	2.08577E-006	0.00000E+000	4.99650E-004	-3.27672E+002	7	...........
	294	295	3.63684E+000	5.72873E-007	0.00000E+000	2.08345E-006	0.00000E+000	5.00250E-004	-3.27672E+002	7	...........
	295	296	3.63684E+000	5.73009E-007	0.00000E+000	2.08394E-006	0.00000E+000	4.98367E-004	-3.27672E+002	7	...........
	296	297	3.63684E+000	5.72258E-007	0.00000E+000	2.08121E-006	0.00000E+000	4.99350E-004	-3.27672E+002	7	...........
	297	298	3.63684E+000	5.72708E-007	0.00000E+000	2.08284E-006	0.00000E+000	5.01150E-004	-3.27672E+002	7	...........
	298	299	3.63682E+000	5.73098E-007	0.00000E+000	2.08426E-006	0.00000E+000	5.00950E-004	-3.27672E+002	7	...........
	299	300	3.63683E+000	5.73309E-007	0.00000E+000	2.08503E-006	0.00000E+000	5.00467E-004	-3.27672E+002	7	...........
	300	301	3.63682E+000	5.73121E-007	0.00000E+000	2.08434E-006	0.00000E+000	5.00800E-004	-3.27672E+002	7	...........
	301	302	3.63682E+000	5.73509E-007	0.00000E+000	2.08575E-006	0.00000E+000	5.01300E-004	-3.27672E+002	7	...........
	302	303	3.63681E+000	5.72722E-007	0.00000E+000	2.08288E-006	0.00000E+000	4.97950E-004	-3.27672E+002	7	...........
	303	304	3.63680E+000	5.71490E-007	0.00000E+000	2.07840E-006	0.00000E+000	4.98983E-004	-3.27672E+002	7	...........
	304	305	3.63680E+000	5.73115E-007	0.00000E+000	2.08430E-006	0.00000E+000	4.98067E-004	-3.27672E+002	7	...........
	305	306	3.63679E+000	5.72714E-007	0.00000E+000	2.08284E-006	0.00000E+000	4.98683E-004	-3.27672E+002	7	...........
	306	307	3.63680E+000	5.72946E-007	0.00000E+000	2.08369E-006	0.00000E+000	4.98967E-004	-3.27672E+002	7	...........
	307	308	3.63678E+000	5.73083E-007	0.00000E+000	2.08418E-006	0.00000E+000	5.00283E-004	-3.27672E+002	7	...........
	308	309	3.63678E+000	5.72930E-007	0.00000E+000	2.08362E-006	0.00000E+000	4.98900E-004	-3.27672E+002	7	...........
	309	310	3.63678E+000	5.72441E-007	0.00000E+000	2.08184E-006	0.00000E+000	4.99450E-004	-3.27672E+002	7	...........
	310	311	3.63678E+000	5.73186E-007	0.00000E+000	2.08455E-006	0.00000E+000	4.98633E-004	-3.27672E+002	7	...........
	311	312	3.63678E+000	5.72204E-007	0.00000E+000	2.08098E-006	0.00000E+000	4.96900E-004	-3.27672E+002	7	...........
	312	313	3.63678E+000	5.72011E-007	0.00000E+000	2.08027E-006	0.00000E+000	4.95250E-004	-3.27672E+002	7	...........
	313	314	3.63676E+000	5.72255E-007	0.00000E+000	2.08115E-006	0.00000E+000	5.01250E-004	-3.27672E+002	7	...........
	314	315	3.63675E+000	5.72075E-007	0.00000E+000	2.08049E-006	0.00000E+000	4.99017E-004	-3.27672E+002	7	...........
	315	316	3.63675E+000	5.72357E-007	0.00000E+000	2.08152E-006	0.00000E+000	4.97917E-004	-3.27672E+002	7	...........
	316	317	3.63676E+000	5.72857E-007	0.00000E+000	2.08334E-006	0.00000E+000	5.02150E-004	-3.27672E+002	7	...........
	317	318	3.63675E+000	5.72620E-007	0.00000E+000	2.08248E-006	0.00000E+000	4.98667E-004	-3.27672E+002	7	...........
	318	319	3.63675E+000	5.72096E-007	0.00000E+000	2.08057E-006	0.00000E+000	4.98917E-004	-3.27672E+002	7	...........
	319	320	3.63675E+000	5.72583E-007	0.00000E+000	2.08234E-006	0.00000E+000	4.96067E-004	-3.27672E+002	7	...........
	320	321	3.63674E+000	5.72756E-007	0.00000E+000	2.08296E-006	0.00000E+000	4.99333E-004	-3.27672E+002	7	...........
	321	322	3.63673E+000	5.72888E-007	0.00000E+000	2.08344E-006	0.00000E+000	4.97883E-004	-3.27672E+002	7	...........
	322	323	3.63674E+000	5.72355E-007	0.00000E+000	2.08150E-006	0.00000E+000	4.97450E-004	-3.27672E+002	7	...........
	323	324	3.63673E+000	5.72405E-007	0.00000E+000	2.08168E-006	0.00000E+000	4.99433E-004	-3.27672E+002	7	...........
	324	325	3.63673E+000	5.72527E-007	0.00000E+000	2.08213E-006	0.00000E+000	4.99250E-004	-3.27672E+002	7	...........
	325	326	3.63673E+000	5.73088E-007	0.00000E+000	2.08417E-006	0.00000E+000	5.02617E-004	-3.27672E+002	7	...........
	326	327	3.63672E+000	5.72714E-007	0.00000E+000	2.08280E-006	0.00000E+000	5.02300E-004	-3.27672E+002	7	...........
	327	328	3.63670E+000	5.73354E-007	0.00000E+000	2.08512E-006	0.00000E+000	5.02300E-004	-3.27672E+002	7	...........
	328	329	3.63670E+000	5.72954E-007	0.00000E+000	2.08366E-006	0.00000E+000	5.03950E-004	-3.27672E+002	7	...........
	329	330	3.63670E+000	5.73073E-007	0.00000E+000	2.08409E-006	0.00000E+000	5.02217E-004	-3.27672E+002	7	...........
	330	331	3.63669E+000	5.73124E-007	0.00000E+000	2.08428E-006	0.00000E+000	5.06400E-004	-3.27672E+002	7	...........
	331	332	3.63668E+000	5.73798E-007	0.00000E+000	2.08672E-006	0.00000E+000	5.00933E-004	-3.27672E+002	7	...........
	332	333	3.63668E+000	5.73283E-007	0.00000E+000	2.08485E-006	0.00000E+000	5.02783E-004	-3.27672E+002	7	...........
	333	334	3.63667E+000	5.73736E-007	0.00000E+000	2.08649E-006	0.00000E+000	5.05083E-004	-3.27672E+002	7	...........
	334	335	3.63667E+000	5.73841E-007	0.00000E+000	2.08687E-006	0.00000E+000	5.01783E-004	-3.27672E+002	7	...........
	335	336	3.63666E+000	5.73219E-007	0.00000E+000	2.08461E-006	0.00000E+000	5.03967E-004	-3.27672E+002	7	...........
	336	337	3.63667E+000	5.72332E-007	0.00000E+000	2.08138E-006	0.00000E+000	5.03183E-004	-3.27672E+002	7	...........
	337	338	3.63666E+000	5.73051E-007	0.00000E+000	2.08399E-006	0.00000E+000	5.02933E-004	-3.27672E+002	7	...........
	338	339	3.63666E+000	5.73047E-007	0.00000E+000	2.08398E-006	0.00000E+000	5.03367E-004	-3.27672E+002	7	...........
	339	340	3.63665E+000	5.73453E-007	0.00000E+000	2.08545E-006	0.00000E+000	5.03067E-004	-3.27672E+002	7	...........
	340	341	3.63665E+000	5.74343E-007	0.00000E+000	2.08868E-006	0.00000E+000	5.03150E-004	-3.27672E+002	7	...........
	341	342	3.63664E+000	5.72346E-007	0.00000E+000	2.08142E-006	0.00000E+000	5.00100E-004	-3.27672E+002	7	...........
	342	343	3.63664E+000	5.72564E-007	0.00000E+000	2.08221E-006	0.00000E+000	5.04817E-004	-3.27672E+002	7	...........
	343	344	3.63664E+000	5.72582E-007	0.00000E+000	2.08227E-006	0.00000E+000	5.04650E-004	-3.27672E+002	7	...........
	344	345	3.63663E+000	5.72135E-007	0.00000E+000	2.08064E-006	0.00000E+000	5.02167E-004	-3.27672E+002	7	...........
	345	346	3.63663E+000	5.72502E-007	0.00000E+000	2.08198E-006	0.00000E+000	5.03617E-004	-3.27672E+002	7	...........
	346	347	3.63662E+000	5.71745E-007	0.00000E+000	2.07922E-006	0.00000E+000	5.02050E-004	-3.27672E+002	7	...........
	347	348	3.63661E+000	5.71653E-007	0.00000E+000	2.07888E-006	0.00000E+000	5.03817E-004	-3.27672E+002	7	...........
	348	349	3.63661E+000	5.71553E-007	0.00000E+000	2.07851E-006	0.00000E+000	5.02800E-004	-3.27672E+002	7	...........
	349	350	3.63660E+000	5.72992E-007	0.00000E+000	2.08374E-006	0.00000E+000	5.04833E-004	-3.27672E+002	7	...........
	350	351	3.63659E+000	5.72091E-007	0.00000E+000	2.08046E-006	0.00000E+000	5.04567E-004	-3.27672E+002	7	...........
	351	352	3.63660E+000	5.71664E-007	0.00000E+000	2.07891E-006	0.00000E+000	5.05200E-004	-3.27672E+002	7	...........
	352	353	3.63660E+000	5.72337E-007	0.00000E+000	2.08136E-006	0.00000E+000	5.01800E-004	-3.27672E+002	7	...........
	353	354	3.63660E+000	5.72233E-007	0.00000E+000	2.08098E-006	0.00000E+000	5.02750E-004	-3.27672E+002	7	...........
	354	355	3.63659E+000	5.72160E-007	0.00000E+000	2.08071E-006	0.00000E+000	5.04833E-004	-3.27672E+002	7	...........
	355	356	3.63659E+000	5.71435E-007	0.00000E+000	2.07807E-006	0.00000E+000	5.02833E-004	-3.27672E+002	7	...........
	356	357	3.63658E+000	5.71888E-007	0.00000E+000	2.07971E-006	0.00000E+000	5.03950E-004	-3.27672E+002	7	...........
	357	358	3.63657E+000	5.72846E-007	0.00000E+000	2.08319E-006	0.00000E+000	5.03783E-004	-3.27672E+002	7	...........
	358	359	3.63655E+000	5.72239E-007	0.00000E+000	2.08098E-006	0.00000E+000	5.04117E-004	-3.27672E+002	7	...........
	359	360	3.63656E+000	5.72513E-007	0.00000E+000	2.08198E-006	0.00000E+000	5.05683E-004	-3.27672E+002	7	...........
	360	361	3.63655E+000	5.72437E-007	0.00000E+000	2.08170E-006	0.00000E+000	5.05467E-004	-3.27672E+002	7	...........
	361	362	3.63656E+000	5.71606E-007	0.00000E+000	2.07868E-006	0.00000E+000	5.05283E-004	-3.27672E+002	7	...........
	362	363	3.63655E+000	5.72451E-007	0.00000E+000	2.08175E-006	0.00000E+000	5.03433E-004	-3.27672E+002	7	...........
	363	364	3.63654E+000	5.72716E-007	0.00000E+000	2.08270E-006	0.00000E+000	5.01617E-004	-3.27672E+002	7	...........
	364	365	3.63654E+000	5.72297E-007	0.00000E+000	2.08118E-006	0.00000E+000	5.05783E-004	-3.27672E+002	7	...........
	365	366	3.63654E+000	5.72150E-007	0.00000E+000	2.08065E-006	0.00000E+000	5.03450E-004	-3.27672E+002	7	...........
	366	367	3.63653E+000	5.71906E-007	0.00000E+000	2.07975E-006	0.00000E+000	5.04283E-004	-3.27672E+002	7	...........
	367	368	3.63653E+000	5.71701E-007	0.00000E+000	2.07901E-006	0.00000E+000	5.02967E-004	-3.27672E+002	7	...........
	368	369	3.63652E+000	5.70842E-007	0.00000E+000	2.07588E-006	0.00000E+000	5.04933E-004	-3.27672E+002	7	...........
	369	370	3.63652E+000	5.71780E-007	0.00000E+000	2.07929E-006	0.00000E+000	5.02483E-004	-3.27672E+002	7	...........
	370	371	3.63652E+000	5.71933E-007	0.00000E+000	2.07985E-006	0.00000E+000	5.02617E-004	-3.27672E+002	7	...........
	371	372	3.63652E+000	5.72363E-007	0.00000E+000	2.08141E-006	0.00000E+000	5.01800E-004	-3.27672E+002	7	...........
	372	373	3.63651E+000	5.72361E-007	0.00000E+000	2.08140E-006	0.00000E+000	5.05167E-004	-3.27672E+002	7	...........
	373	374	3.63650E+000	5.72396E-007	0.00000E+000	2.08152E-006	0.00000E+000	5.03833E-004	-3.27672E+002	7	...........
	374	375	3.63650E+000	5.71906E-007	0.00000E+000	2.07974E-006	0.00000E+000	5.04833E-004	-3.27672E+002	7	...........
	375	376	3.63650E+000	5.71246E-007	0.00000E+000	2.07734E-006	0.00000E+000	5.03750E-004	-3.27672E+002	7	...........
	376	377	3.63650E+000	5.71475E-007	0.00000E+000	2.07817E-006	0.00000E+000	5.03300E-004	-3.27672E+002	7	...........
	377	378	3.63649E+000	5.71331E-007	0.00000E+000	2.07764E-006	0.00000E+000	5.03017E-004	-3.27672E+002	7	...........
	378	379	3.63648E+000	5.70960E-007	0.00000E+000	2.07629E-006	0.00000E+000	5.03567E-004	-3.27672E+002	7	...........
	379	380	3.63647E+000	5.70741E-007	0.00000E+000	2.07549E-006	0.00000E+000	5.05117E-004	-3.27672E+002	7	...........
	380	381	3.63648E+000	5.71023E-007	0.00000E+000	2.07651E-006	0.00000E+000	5.01733E-004	-3.27672E+002	7	...........
	381	382	3.63647E+000	5.71501E-007	0.00000E+000	2.07825E-006	0.00000E+000	5.06183E-004	-3.27672E+002	7	...........
	382	383	3.63647E+000	5.70653E-007	0.00000E+000	2.07516E-006	0.00000E+000	5.06000E-004	-3.27672E+002	7	...........
	383	384	3.63646E+000	5.70761E-007	0.00000E+000	2.07555E-006	0.00000E+000	5.03233E-004	-3.27672E+002	7	...........
	384	385	3.63646E+000	5.71192E-007	0.00000E+000	2.07712E-006	0.00000E+000	5.02883E-004	-3.27672E+002	7	...........
	385	386	3.63646E+000	5.71314E-007	0.00000E+000	2.07756E-006	0.00000E+000	5.03450E-004	-3.27672E+002	7	...........
	386	387	3.63645E+000	5.70635E-007	0.00000E+000	2.07509E-006	0.00000E+000	5.03483E-004	-3.27672E+002	7	...........
	387	388	3.63644E+000	5.70805E-007	0.00000E+000	2.07570E-006	0.00000E+000	5.04217E-004	-3.27672E+002	7	...........
	388	389	3.63645E+000	5.71345E-007	0.00000E+000	2.07766E-006	0.00000E+000	5.04217E-004	-3.27672E+002	7	...........
	389	390	3.63644E+000	5.70838E-007	0.00000E+000	2.07581E-006	0.00000E+000	5.02933E-004	-3.27672E+002	7	...........
	390	391	3.63643E+000	5.70221E-007	0.00000E+000	2.07357E-006	0.00000E+000	5.03767E-004	-3.27672E+002	7	...........
	391	392	3.63644E+000	5.70719E-007	0.00000E+000	2.07538E-006	0.00000E+000	5.04150E-004	-3.27672E+002	7	...........
	392	393	3.63643E+000	5.70063E-007	0.00000E+000	2.07300E-006	0.00000E+000	5.03717E-004	-3.27672E+002	7	...........
	393	394	3.63643E+000	5.69742E-007	0.00000E+000	2.07183E-006	0.00000E+000	5.02017E-004	-3.27672E+002	7	...........
	394	395	3.63643E+000	5.70399E-007	0.00000E+000	2.07422E-006	0.00000E+000	5.00683E-004	-3.27672E+002	7	...........
	395	396	3.63642E+000	5.71276E-007	0.00000E+000	2.07740E-006	0.00000E+000	5.03217E-004	-3.27672E+002	7	...........
	396	397	3.63642E+000	5.71403E-007	0.00000E+000	2.07786E-006	0.00000E+000	5.04767E-004	-3.27672E+002	7	...........
	397	398	3.63642E+000	5.72228E-007	0.00000E+000	2.08086E-006	0.00000E+000	5.01917E-004	-3.27672E+002	7	...........
	398	399	3.63642E+000	5.71343E-007	0.00000E+000	2.07764E-006	0.00000E+000	5.04250E-004	-3.27672E+002	7	...........
	399	400	3.63641E+000	5.71354E-007	0.00000E+000	2.07768E-006	0.00000E+000	5.04783E-004	-3.27672E+002	7	...........
	400	401	3.63641E+000	5.70477E-007	0.00000E+000	2.07449E-006	0.00000E+000	5.02967E-004	-3.27672E+002	7	...........
	401	402	3.63640E+000	5.70685E-007	0.00000E+000	2.07524E-006	0.00000E+000	5.00967E-004	-3.27672E+002	7	...........
	402	403	3.63639E+000	5.70801E-007	0.00000E+000	2.07566E-006	0.00000E+000	5.02950E-004	-3.27672E+002	7	...........
	403	404	3.63640E+000	5.70978E-007	0.00000E+000	2.07631E-006	0.00000E+000	5.03467E-004	-3.27672E+002	7	...........
	404	405	3.63639E+000	5.71316E-007	0.00000E+000	2.07753E-006	0.00000E+000	5.03767E-004	-3.27672E+002	7	...........
	405	406	3.63639E+000	5.71340E-007	0.00000E+000	2.07761E-006	0.00000E+000	5.03167E-004	-3.27672E+002	7	...........
	406	407	3.63638E+000	5.71324E-007	0.00000E+000	2.07755E-006	0.00000E+000	5.03767E-004	-3.27672E+002	7	...........
	407	408	3.63636E+000	5.71306E-007	0.00000E+000	2.07747E-006	0.00000E+000	5.03917E-004	-3.27672E+002	7	...........
	408	409	3.63637E+000	5.71290E-007	0.00000E+000	2.07742E-006	0.00000E+000	5.05100E-004	-3.27672E+002	7	...........
	409	410	3.63636E+000	5.71658E-007	0.00000E+000	2.07876E-006	0.00000E+000	5.03500E-004	-3.27672E+002	7	...........
	410	411	3.63636E+000	5.71344E-007	0.00000E+000	2.07761E-006	0.00000E+000	5.05400E-004	-3.27672E+002	7	...........
	411	412	3.63636E+000	5.71350E-007	0.00000E+000	2.07763E-006	0.00000E+000	5.03300E-004	-3.27672E+002	7	...........
	412	413	3.63636E+000	5.72297E-007	0.00000E+000	2.08108E-006	0.00000E+000	5.04883E-004	-3.27672E+002	7	...........
	413	414	3.63636E+000	5.72253E-007	0.00000E+000	2.08092E-006	0.00000E+000	5.02433E-004	-3.27672E+002	7	...........
	414	415	3.63635E+000	5.72020E-007	0.00000E+000	2.08006E-006	0.00000E+000	5.02817E-004	-3.27672E+002	7	...........
	415	416	3.63635E+000	5.71821E-007	0.00000E+000	2.07934E-006	0.00000E+000	5.06967E-004	-3.27672E+002	7	...........
	416	417	3.63635E+000	5.72153E-007	0.00000E+000	2.08055E-006	0.00000E+000	5.06700E-004	-3.27672E+002	7	...........
	417	418	3.63634E+000	5.71013E-007	0.00000E+000	2.07640E-006	0.00000E+000	5.05017E-004	-3.27672E+002	7	...........
	418	419	3.63634E+000	5.71218E-007	0.00000E+000	2.07714E-006	0.00000E+000	5.04133E-004	-3.27672E+002	7	...........
	419	420	3.63634E+000	5.71739E-007	0.00000E+000	2.07904E-006	0.00000E+000	5.05017E-004	-3.27672E+002	7	...........
	420	421	3.63633E+000	5.71739E-007	0.00000E+000	2.07903E-006	0.00000E+000	5.06333E-004	-3.27672E+002	7	...........
	421	422	3.63633E+000	5.71921E-007	0.00000E+000	2.07969E-006	0.00000E+000	5.07183E-004	-3.27672E+002	7	...........
	422	423	3.63632E+000	5.71857E-007	0.00000E+000	2.07946E-006	0.00000E+000	5.05167E-004	-3.27672E+002	7	...........
	423	424	3.63632E+000	5.72735E-007	0.00000E+000	2.08265E-006	0.00000E+000	5.05383E-004	-3.27672E+002	7	...........
	424	425	3.63632E+000	5.72075E-007	0.00000E+000	2.08025E-006	0.00000E+000	5.08650E-004	-3.27672E+002	7	...........
	425	426	3.63631E+000	5.72365E-007	0.00000E+000	2.08130E-006	0.00000E+000	5.06850E-004	-3.27672E+002	7	...........
	426	427	3.63631E+000	5.71210E-007	0.00000E+000	2.07710E-006	0.00000E+000	5.07483E-004	-3.27672E+002	7	...........
	427	428	3.63629E+000	5.71685E-007	0.00000E+000	2.07882E-006	0.00000E+000	5.07650E-004	-3.27672E+002	7	...........
	428	429	3.63630E+000	5.72367E-007	0.00000E+000	2.08130E-006	0.00000E+000	5.07300E-004	-3.27672E+002	7	...........
	429	430	3.63628E+000	5.72530E-007	0.00000E+000	2.08188E-006	0.00000E+000	5.08017E-004	-3.27672E+002	7	...........
	430	431	3.63627E+000	5.72339E-007	0.00000E+000	2.08118E-006	0.00000E+000	5.07200E-004	-3.27672E+002	7	...........
	431	432	3.63628E+000	5.71482E-007	0.00000E+000	2.07807E-006	0.00000E+000	5.08200E-004	-3.27672E+002	7	...........
	432	433	3.63629E+000	5.72110E-007	0.00000E+000	2.08036E-006	0.00000E+000	5.10933E-004	-3.27672E+002	7	...........
	433	434	3.63628E+000	5.71625E-007	0.00000E+000	2.07859E-006	0.00000E+000	5.08417E-004	-3.27672E+002	7	...........
	434	435	3.63627E+000	5.72701E-007	0.00000E+000	2.08250E-006	0.00000E+000	5.09233E-004	-3.27672E+002	7	...........
	435	436	3.63627E+000	5.72114E-007	0.00000E+000	2.08036E-006	0.00000E+000	5.08933E-004	-3.27672E+002	7	...........
	436	437	3.63626E+000	5.71905E-007	0.00000E+000	2.07959E-006	0.00000E+000	5.09167E-004	-3.27672E+002	7	...........
	437	438	3.63625E+000	5.71915E-007	0.00000E+000	2.07963E-006	0.00000E+000	5.08133E-004	-3.27672E+002	7	...........
	438	439	3.63625E+000	5.71795E-007	0.00000E+000	2.07919E-006	0.00000E+000	5.05150E-004	-3.27672E+002	7	...........
	439	440	3.63625E+000	5.72595E-007	0.00000E+000	2.08210E-006	0.00000E+000	5.09667E-004	-3.27672E+002	7	...........
	440	441	3.63624E+000	5.72019E-007	0.00000E+000	2.08000E-006	0.00000E+000	5.09767E-004	-3.27672E+002	7	...........
	441	442	3.63624E+000	5.72433E-007	0.00000E+000	2.08151E-006	0.00000E+000	5.07350E-004	-3.27672E+002	7	...........
	442	443	3.63624E+000	5.72181E-007	0.00000E+000	2.08059E-006	0.00000E+000	5.07517E-004	-3.27672E+002	7	...........
	443	444	3.63624E+000	5.71946E-007	0.00000E+000	2.07973E-006	0.00000E+000	5.08017E-004	-3.27672E+002	7	...........
	444	445	3.63624E+000	5.72248E-007	0.00000E+000	2.08083E-006	0.00000E+000	5.12667E-004	-3.27672E+002	7	...........
	445	446	3.63623E+000	5.72543E-007	0.00000E+000	2.08190E-006	0.00000E+000	5.09383E-004	-3.27672E+002	7	...........
	446	447	3.63623E+000	5.72374E-007	0.00000E+000	2.08128E-006	0.00000E+000	5.06633E-004	-3.27672E+002	7	...........
	447	448	3.63622E+000	5.72466E-007	0.00000E+000	2.08161E-006	0.00000E+000	5.09400E-004	-3.27672E+002	7	...........
	448	449	3.63621E+000	5.72788E-007	0.00000E+000	2.08278E-006	0.00000E+000	5.10517E-004	-3.27672E+002	7	...........
	449	450	3.63622E+000	5.72533E-007	0.00000E+000	2.08186E-006	0.00000E+000	5.09650E-004	-3.27672E+002	7	...........
	450	451	3.63622E+000	5.72836E-007	0.00000E+000	2.08296E-006	0.00000E+000	5.09683E-004	-3.27672E+002	7	...........
	451	452	3.63621E+000	5.71806E-007	0.00000E+000	2.07921E-006	0.00000E+000	5.09083E-004	-3.27672E+002	7	...........
	452	453	3.63621E+000	5.71674E-007	0.00000E+000	2.07873E-006	0.00000E+000	5.09383E-004	-3.27672E+002	7	...........
	453	454	3.63620E+000	5.72484E-007	0.00000E+000	2.08167E-006	0.00000E+000	5.09267E-004	-3.27672E+002	7	...........
	454	455	3.63620E+000	5.72099E-007	0.00000E+000	2.08027E-006	0.00000E+000	5.08067E-004	-3.27672E+002	7	...........
	455	456	3.63619E+000	5.71553E-007	0.00000E+000	2.07828E-006	0.00000E+000	5.08133E-004	-3.27672E+002	7	...........
	456	457	3.63620E+000	5.72349E-007	0.00000E+000	2.08117E-006	0.00000E+000	5.09183E-004	-3.27672E+002	7	...........
	457	458	3.63619E+000	5.72817E-007	0.00000E+000	2.08287E-006	0.00000E+000	5.09333E-004	-3.27672E+002	7	...........
	458	459	3.63619E+000	5.72177E-007	0.00000E+000	2.08055E-006	0.00000E+000	5.07650E-004	-3.27672E+002	7	...........
	459	460	3.63619E+000	5.72630E-007	0.00000E+000	2.08219E-006	0.00000E+000	5.08850E-004	-3.27672E+002	7	...........
	460	461	3.63619E+000	5.72266E-007	0.00000E+000	2.08087E-006	0.00000E+000	5.08433E-004	-3.27672E+002	7	...........
	461	462	3.63618E+000	5.72783E-007	0.00000E+000	2.08274E-006	0.00000E+000	5.09333E-004	-3.27672E+002	7	...........
	462	463	3.63617E+000	5.72661E-007	0.00000E+000	2.08229E-006	0.00000E+000	5.06617E-004	-3.27672E+002	7	...........
	463	464	3.63617E+000	5.71955E-007	0.00000E+000	2.07973E-006	0.00000E+000	5.09650E-004	-3.27672E+002	7	...........
	464	465	3.63617E+000	5.72334E-007	0.00000E+000	2.08110E-006	0.00000E+000	5.08133E-004	-3.27672E+002	7	...........
	465	466	3.63615E+000	5.71851E-007	0.00000E+000	2.07934E-006	0.00000E+000	5.08683E-004	-3.27672E+002	7	...........
	466	467	3.63614E+000	5.73326E-007	0.00000E+000	2.08469E-006	0.00000E+000	5.08850E-004	-3.27672E+002	7	...........
	467	468	3.63615E+000	5.72562E-007	0.00000E+000	2.08192E-006	0.00000E+000	5.10733E-004	-3.27672E+002	7	...........
	468	469	3.63614E+000	5.72728E-007	0.00000E+000	2.08252E-006	0.00000E+000	5.08050E-004	-3.27672E+002	7	...........
	469	470	3.63614E+000	5.72082E-007	0.00000E+000	2.08017E-006	0.00000E+000	5.08267E-004	-3.27672E+002	7	...........
	470	471	3.63615E+000	5.71601E-007	0.00000E+000	2.07843E-006	0.00000E+000	5.06300E-004	-3.27672E+002	7	...........
	471	472	3.63614E+000	5.71864E-007	0.00000E+000	2.07938E-006	0.00000E+000	5.03650E-004	-3.27672E+002	7	...........
	472	473	3.63613E+000	5.71413E-007	0.00000E+000	2.07773E-006	0.00000E+000	5.07433E-004	-3.27672E+002	7	...........
	473	474	3.63613E+000	5.71655E-007	0.00000E+000	2.07861E-006	0.00000E+000	5.07067E-004	-3.27672E+002	7	...........
	474	475	3.63613E+000	5.71596E-007	0.00000E+000	2.07840E-006	0.00000E+000	5.06683E-004	-3.27672E+002	7	...........
	475	476	3.63611E+000	5.71826E-007	0.00000E+000	2.07922E-006	0.00000E+000	5.05517E-004	-3.27672E+002	7	...........
	476	477	3.63611E+000	5.71368E-007	0.00000E+000	2.07756E-006	0.00000E+000	5.06500E-004	-3.27672E+002	7	...........
	477	478	3.63611E+000	5.71722E-007	0.00000E+000	2.07884E-006	0.00000E+000	5.05867E-004	-3.27672E+002	7	...........
	478	479	3.63611E+000	5.71434E-007	0.00000E+000	2.07780E-006	0.00000E+000	5.05883E-004	-3.27672E+002	7	...........
	479	480	3.63611E+000	5.72032E-007	0.00000E+000	2.07997E-006	0.00000E+000	5.08100E-004	-3.27672E+002	7	...........
	480	481	3.63610E+000	5.72252E-007	0.00000E+000	2.08077E-006	0.00000E+000	5.06483E-004	-3.27672E+002	7	...........
	481	482	3.63611E+000	5.72765E-007	0.00000E+000	2.08264E-006	0.00000E+000	5.07233E-004	-3.27672E+002	7	...........
	482	483	3.63611E+000	5.72648E-007	0.00000E+000	2.08221E-006	0.00000E+000	5.05033E-004	-3.27672E+002	7	...........
	483	484	3.63611E+000	5.72850E-007	0.00000E+000	2.08294E-006	0.00000E+000	5.05967E-004	-3.27672E+002	7	...........
	484	485	3.63611E+000	5.72700E-007	0.00000E+000	2.08240E-006	0.00000E+000	5.06933E-004	-3.27672E+002	7	...........
	485	486	3.63610E+000	5.72347E-007	0.00000E+000	2.08111E-006	0.00000E+000	5.05800E-004	-3.27672E+002	7	...........
	486	487	3.63610E+000	5.71765E-007	0.00000E+000	2.07899E-006	0.00000E+000	5.04783E-004	-3.27672E+002	7	...........
	487	488	3.63609E+000	5.71984E-007	0.00000E+000	2.07979E-006	0.00000E+000	5.07083E-004	-3.27672E+002	7	...........
	488	489	3.63609E+000	5.71317E-007	0.00000E+000	2.07736E-006	0.00000E+000	5.06183E-004	-3.27672E+002	7	...........
	489	490	3.63608E+000	5.71021E-007	0.00000E+000	2.07628E-006	0.00000E+000	5.07217E-004	-3.27672E+002	7	...........
	490	491	3.63608E+000	5.71507E-007	0.00000E+000	2.07805E-006	0.00000E+000	5.06183E-004	-3.27672E+002	7	...........
	491	492	3.63607E+000	5.70859E-007	0.00000E+000	2.07569E-006	0.00000E+000	5.08567E-004	-3.27672E+002	7	...........
	492	493	3.63608E+000	5.71149E-007	0.00000E+000	2.07674E-006	0.00000E+000	5.06717E-004	-3.27672E+002	7	...........
	493	494	3.63607E+000	5.71257E-007	0.00000E+000	2.07713E-006	0.00000E+000	5.08033E-004	-3.27672E+002	7	...........
	494	495	3.63607E+000	5.71547E-007	0.00000E+000	2.07818E-006	0.00000E+000	5.08417E-004	-3.27672E+002	7	...........
	495	496	3.63607E+000	5.71510E-007	0.00000E+000	2.07805E-006	0.00000E+000	5.08933E-004	-3.27672E+002	7	...........
	496	497	3.63605E+000	5.71385E-007	0.00000E+000	2.07759E-006	0.00000E+000	5.07517E-004	-3.27672E+002	7	...........
	497	498	3.63606E+000	5.71011E-007	0.00000E+000	2.07623E-006	0.00000E+000	5.08700E-004	-3.27672E+002	7	...........
	498	499	3.63605E+000	5.70309E-007	0.00000E+000	2.07367E-006	0.00000E+000	5.06750E-004	-3.27672E+002	7	...........
	499	500	3.63606E+000	5.70604E-007	0.00000E+000	2.07475E-006	0.00000E+000	5.08250E-004	-3.27672E+002	7	...........
	500	501	3.63605E+000	5.71198E-007	0.00000E+000	2.07690E-006	0.00000E+000	5.06500E-004	-3.27672E+002	7	...........
	501	502	3.63605E+000	5.71092E-007	0.00000E+000	2.07652E-006	0.00000E+000	5.06950E-004	-3.27672E+002	7	...........
	502	503	3.63605E+000	5.70655E-007	0.00000E+000	2.07493E-006	0.00000E+000	5.06467E-004	-3.27672E+002	7	...........
	503	504	3.63604E+000	5.71390E-007	0.00000E+000	2.07760E-006	0.00000E+000	5.08217E-004	-3.27672E+002	7	...........
	504	505	3.63605E+000	5.71053E-007	0.00000E+000	2.07638E-006	0.00000E+000	5.07067E-004	-3.27672E+002	7	...........
	505	506	3.63604E+000	5.70388E-007	0.00000E+000	2.07396E-006	0.00000E+000	5.06483E-004	-3.27672E+002	7	...........
	506	507	3.63604E+000	5.70860E-007	0.00000E+000	2.07567E-006	0.00000E+000	5.06850E-004	-3.27672E+002	7	...........
	507	508	3.63604E+000	5.71760E-007	0.00000E+000	2.07894E-006	0.00000E+000	5.08567E-004	-3.27672E+002	7	...........
	508	509	3.63603E+000	5.71141E-007	0.00000E+000	2.07669E-006	0.00000E+000	5.07933E-004	-3.27672E+002	7	...........
	509	510	3.63602E+000	5.71778E-007	0.00000E+000	2.07900E-006	0.00000E+000	5.08100E-004	-3.27672E+002	7	...........
	510	511	3.63602E+000	5.71912E-007	0.00000E+000	2.07948E-006	0.00000E+000	5.08800E-004	-3.27672E+002	7	...........
	511	512	3.63601E+000	5.70648E-007	0.00000E+000	2.07488E-006	0.00000E+000	5.08667E-004	-3.27672E+002	7	...........
	512	513	3.63600E+000	5.70576E-007	0.00000E+000	2.07462E-006	0.00000E+000	5.10150E-004	-3.27672E+002	7	...........
	513	514	3.63600E+000	5.70685E-007	0.00000E+000	2.07501E-006	0.00000E+000	5.09900E-004	-3.27672E+002	7	...........
	514	515	3.63600E+000	5.70892E-007	0.00000E+000	2.07576E-006	0.00000E+000	5.09383E-004	-3.27672E+002	7	...........
	515	516	3.63599E+000	5.70868E-007	0.00000E+000	2.07567E-006	0.00000E+000	5.06383E-004	-3.27672E+002	7	...........
	516	517	3.63599E+000	5.71545E-007	0.00000E+000	2.07813E-006	0.00000E+000	5.06300E-004	-3.27672E+002	7	...........
	517	518	3.63600E+000	5.71240E-007	0.00000E+000	2.07703E-006	0.00000E+000	5.10600E-004	-3.27672E+002	7	...........
	518	519	3.63599E+000	5.71244E-007	0.00000E+000	2.07704E-006	0.00000E+000	5.06950E-004	-3.27672E+002	7	...........
	519	520	3.63599E+000	5.71571E-007	0.00000E+000	2.07822E-006	0.00000E+000	5.08800E-004	-3.27672E+002	7	...........
	520	521	3.63599E+000	5.71300E-007	0.00000E+000	2.07724E-006	0.00000E+000	5.07583E-004	-3.27672E+002	7	...........
	521	522	3.63599E+000	5.70719E-007	0.00000E+000	2.07513E-006	0.00000E+000	5.08367E-004	-3.27672E+002	7	...........
	522	523	3.63598E+000	5.70252E-007	0.00000E+000	2.07342E-006	0.00000E+000	5.07983E-004	-3.27672E+002	7	...........
	523	524	3.63597E+000	5.71187E-007	0.00000E+000	2.07682E-006	0.00000E+000	5.07917E-004	-3.27672E+002	7	...........
	524	525	3.63597E+000	5.71629E-007	0.00000E+000	2.07843E-006	0.00000E+000	5.10533E-004	-3.27672E+002	7	...........
	525	526	3.63596E+000	5.71632E-007	0.00000E+000	2.07843E-006	0.00000E+000	5.05083E-004	-3.27672E+002	7	...........
	526	527	3.63596E+000	5.71462E-007	0.00000E+000	2.07781E-006	0.00000E+000	5.07367E-004	-3.27672E+002	7	...........
	527	528	3.63596E+000	5.71544E-007	0.00000E+000	2.07811E-006	0.00000E+000	5.07983E-004	-3.27672E+002	7	...........
	528	529	3.63595E+000	5.70738E-007	0.00000E+000	2.07517E-006	0.00000E+000	5.07233E-004	-3.27672E+002	7	...........
	529	530	3.63594E+000	5.70885E-007	0.00000E+000	2.07571E-006	0.00000E+000	5.10233E-004	-3.27672E+002	7	...........
	530	531	3.63596E+000	5.71376E-007	0.00000E+000	2.07750E-006	0.00000E+000	5.07433E-004	-3.27672E+002	7	...........
	531	532	3.63595E+000	5.70849E-007	0.00000E+000	2.07558E-006	0.00000E+000	5.07733E-004	-3.27672E+002	7	...........
	532	533	3.63594E+000	5.71081E-007	0.00000E+000	2.07642E-006	0.00000E+000	5.09050E-004	-3.27672E+002	7	...........
	533	534	3.63594E+000	5.69865E-007	0.00000E+000	2.07199E-006	0.00000E+000	5.02833E-004	-3.27672E+002	7	...........
	534	535	3.63594E+000	5.70032E-007	0.00000E+000	2.07260E-006	0.00000E+000	5.08417E-004	-3.27672E+002	7	...........
	535	536	3.63593E+000	5.70040E-007	0.00000E+000	2.07262E-006	0.00000E+000	5.09733E-004	-3.27672E+002	7	...........
	536	537	3.63593E+000	5.70140E-007	0.00000E+000	2.07299E-006	0.00000E+000	5.09883E-004	-3.27672E+002	7	...........
	537	538	3.63592E+000	5.70258E-007	0.00000E+000	2.07341E-006	0.00000E+000	5.10600E-004	-3.27672E+002	7	...........
	538	539	3.63592E+000	5.70034E-007	0.00000E+000	2.07260E-006	0.00000E+000	5.08533E-004	-3.27672E+002	7	...........
	539	540	3.63591E+000	5.70115E-007	0.00000E+000	2.07289E-006	0.00000E+000	5.05983E-004	-3.27672E+002	7	...........
	540	541	3.63591E+000	5.70789E-007	0.00000E+000	2.07534E-006	0.00000E+000	5.07917E-004	-3.27672E+002	7	...........
	541	542	3.63592E+000	5.70686E-007	0.00000E+000	2.07496E-006	0.00000E+000	5.09733E-004	-3.27672E+002	7	...........
	542	543	3.63591E+000	5.70349E-007	0.00000E+000	2.07374E-006	0.00000E+000	5.08717E-004	-3.27672E+002	7	...........
	543	544	3.63590E+000	5.70005E-007	0.00000E+000	2.07248E-006	0.00000E+000	5.09167E-004	-3.27672E+002	7	...........
	544	545	3.63590E+000	5.70183E-007	0.00000E+000	2.07313E-006	0.00000E+000	5.08483E-004	-3.27672E+002	7	...........
	545	546	3.63590E+000	5.70101E-007	0.00000E+000	2.07283E-006	0.00000E+000	5.07333E-004	-3.27672E+002	7	...........
	546	547	3.63590E+000	5.69930E-007	0.00000E+000	2.07221E-006	0.00000E+000	5.11383E-004	-3.27672E+002	7	...........
	547	548	3.63589E+000	5.70169E-007	0.00000E+000	2.07307E-006	0.00000E+000	5.07150E-004	-3.27672E+002	7	...........
	548	549	3.63589E+000	5.69714E-007	0.00000E+000	2.07142E-006	0.00000E+000	5.05583E-004	-3.27672E+002	7	...........
	549	550	3.63588E+000	5.70728E-007	0.00000E+000	2.07510E-006	0.00000E+000	5.06733E-004	-3.27672E+002	7	...........
	550	551	3.63587E+000	5.70794E-007	0.00000E+000	2.07534E-006	0.00000E+000	5.04783E-004	-3.27672E+002	7	...........
	551	552	3.63588E+000	5.70958E-007	0.00000E+000	2.07593E-006	0.00000E+000	5.07367E-004	-3.27672E+002	7	...........
	552	553	3.63588E+000	5.70692E-007	0.00000E+000	2.07497E-006	0.00000E+000	5.09033E-004	-3.27672E+002	7	...........
	553	554	3.63587E+000	5.71299E-007	0.00000E+000	2.07717E-006	0.00000E+000	5.08083E-004	-3.27672E+002	7	...........
	554	555	3.63587E+000	5.71398E-007	0.00000E+000	2.07753E-006	0.00000E+000	5.05667E-004	-3.27672E+002	7	...........
	555	556	3.63585E+000	5.71168E-007	0.00000E+000	2.07668E-006	0.00000E+000	5.08417E-004	-3.27672E+002	7	...........
	556	557	3.63586E+000	5.71636E-007	0.00000E+000	2.07839E-006	0.00000E+000	5.10517E-004	-3.27672E+002	7	...........
	557	558	3.63585E+000	5.71608E-007	0.00000E+000	2.07828E-006	0.00000E+000	5.09833E-004	-3.27672E+002	7	...........
	558	559	3.63586E+000	5.71461E-007	0.00000E+000	2.07775E-006	0.00000E+000	5.06750E-004	-3.27672E+002	7	...........
	559	560	3.63586E+000	5.70444E-007	0.00000E+000	2.07405E-006	0.00000E+000	5.08400E-004	-3.27672E+002	7	...........
	560	561	3.63586E+000	5.70935E-007	0.00000E+000	2.07584E-006	0.00000E+000	5.06283E-004	-3.27672E+002	7	...........
	561	562	3.63585E+000	5.70479E-007	0.00000E+000	2.07417E-006	0.00000E+000	5.06350E-004	-3.27672E+002	7	...........
	562	563	3.63585E+000	5.70283E-007	0.00000E+000	2.07346E-006	0.00000E+000	5.07767E-004	-3.27672E+002	7	...........
	563	564	3.63586E+000	5.70554E-007	0.00000E+000	2.07445E-006	0.00000E+000	5.07983E-004	-3.27672E+002	7	...........
	564	565	3.63586E+000	5.70879E-007	0.00000E+000	2.07564E-006	0.00000E+000	5.07000E-004	-3.27672E+002	7	...........
	565	566	3.63584E+000	5.70052E-007	0.00000E+000	2.07262E-006	0.00000E+000	5.06367E-004	-3.27672E+002	7	...........
	566	567	3.63583E+000	5.70567E-007	0.00000E+000	2.07449E-006	0.00000E+000	5.09067E-004	-3.27672E+002	7	...........
	567	568	3.63583E+000	5.69843E-007	0.00000E+000	2.07185E-006	0.00000E+000	5.08033E-004	-3.27672E+002	7	...........
	568	569	3.63583E+000	5.69823E-007	0.00000E+000	2.07178E-006	0.00000E+000	5.06417E-004	-3.27672E+002	7	...........
	569	570	3.63583E+000	5.70556E-007	0.00000E+000	2.07444E-006	0.00000E+000	5.07250E-004	-3.27672E+002	7	...........
	570	571	3.63583E+000	5.70284E-007	0.00000E+000	2.07346E-006	0.00000E+000	5.07050E-004	-3.27672E+002	7	...........
	571	572	3.63582E+000	5.69923E-007	0.00000E+000	2.07214E-006	0.00000E+000	5.05950E-004	-3.27672E+002	7	...........
	572	573	3.63581E+000	5.70447E-007	0.00000E+000	2.07404E-006	0.00000E+000	5.04283E-004	-3.27672E+002	7	...........
	573	574	3.63581E+000	5.70282E-007	0.00000E+000	2.07344E-006	0.00000E+000	5.04000E-004	-3.27672E+002	7	...........
	574	575	3.63581E+000	5.71093E-007	0.00000E+000	2.07639E-006	0.00000E+000	5.05867E-004	-3.27672E+002	7	...........
	575	576	3.63581E+000	5.71084E-007	0.00000E+000	2.07635E-006	0.00000E+000	5.03367E-004	-3.27672E+002	7	...........
	576	577	3.63581E+000	5.69996E-007	0.00000E+000	2.07240E-006	0.00000E+000	5.04817E-004	-3.27672E+002	7	...........
	577	578	3.63580E+000	5.70579E-007	0.00000E+000	2.07451E-006	0.00000E+000	5.08200E-004	-3.27672E+002	7	...........
	578	579	3.63580E+000	5.70105E-007	0.00000E+000	2.07279E-006	0.00000E+000	5.06167E-004	-3.27672E+002	7	...........
	579	580	3.63580E+000	5.70052E-007	0.00000E+000	2.07259E-006	0.00000E+000	5.05500E-004	-3.27672E+002	7	...........
	580	581	3.63580E+000	5.71096E-007	0.00000E+000	2.07639E-006	0.00000E+000	5.05333E-004	-3.27672E+002	7	...........
	581	582	3.63579E+000	5.70568E-007	0.00000E+000	2.07447E-006	0.00000E+000	5.07767E-004	-3.27672E+002	7	...........
	582	583	3.63579E+000	5.70764E-007	0.00000E+000	2.07518E-006	0.00000E+000	5.06867E-004	-3.27672E+002	7	...........
	583	584	3.63579E+000	5.70103E-007	0.00000E+000	2.07278E-006	0.00000E+000	5.05417E-004	-3.27672E+002	7	...........
	584	585	3.63578E+000	5.69814E-007	0.00000E+000	2.07172E-006	0.00000E+000	5.03300E-004	-3.27672E+002	7	...........
	585	586	3.63578E+000	5.69437E-007	0.00000E+000	2.07035E-006	0.00000E+000	5.05400E-004	-3.27672E+002	7	...........
	586	587	3.63578E+000	5.70249E-007	0.00000E+000	2.07330E-006	0.00000E+000	5.04817E-004	-3.27672E+002	7	...........
	587	588	3.63579E+000	5.70157E-007	0.00000E+000	2.07297E-006	0.00000E+000	5.03567E-004	-3.27672E+002	7	...........
	588	589	3.63577E+000	5.70045E-007	0.00000E+000	2.07255E-006	0.00000E+000	5.04517E-004	-3.27672E+002	7	...........
	589	590	3.63576E+000	5.70836E-007	0.00000E+000	2.07542E-006	0.00000E+000	5.03517E-004	-3.27672E+002	7	...........
	590	591	3.63576E+000	5.71092E-007	0.00000E+000	2.07635E-006	0.00000E+000	5.05517E-004	-3.27672E+002	7	...........
	591	592	3.63576E+000	5.70575E-007	0.00000E+000	2.07447E-006	0.00000E+000	5.02967E-004	-3.27672E+002	7	...........
	592	593	3.63575E+000	5.70839E-007	0.00000E+000	2.07542E-006	0.00000E+000	5.04050E-004	-3.27672E+002	7	...........
	593	594	3.63574E+000	5.71045E-007	0.00000E+000	2.07617E-006	0.00000E+000	5.03800E-004	-3.27672E+002	7	...........
	594	595	3.63574E+000	5.70542E-007	0.00000E+000	2.07434E-006	0.00000E+000	5.05567E-004	-3.27672E+002	7	...........
	595	596	3.63576E+000	5.70012E-007	0.00000E+000	2.07243E-006	0.00000E+000	5.01767E-004	-3.27672E+002	7	...........
	596	597	3.63576E+000	5.70364E-007	0.00000E+000	2.07370E-006	0.00000E+000	5.07567E-004	-3.27672E+002	7	...........
	597	598	3.63575E+000	5.70152E-007	0.00000E+000	2.07293E-006	0.00000E+000	5.05550E-004	-3.27672E+002	7	...........
	598	599	3.63575E+000	5.70610E-007	0.00000E+000	2.07459E-006	0.00000E+000	5.02383E-004	-3.27672E+002	7	...........
	599	600	3.63575E+000	5.70476E-007	0.00000E+000	2.07410E-006	0.00000E+000	5.03400E-004	-3.27672E+002	7	...........
