EXPLAIN
TAG	PWR800_READVOLTAGE
TITLE	LABEL	PWR Read Voltage	Test Identifier
DATE	LABEL	23.4.2024	Date
TIME	LABEL	11:43:24	Time
NOTES	NOTES	1	Notes...
	
PSTAT	PSTAT	REF600-12055	Potentiostat
CAPACITY	QUANT	1.00000E+000	Capacity (A-hr)
CELLTYPE	SELECTOR	1	Cell Type
WORKINGCONNECTION	SELECTOR	0	Working Connection
MAXTIME	VARIABLEANDUNITS	6.00000E+002	s	6.00000E+002	second(s)	Max Time
SAMPLETIME	QUANT	1.00000E+000	Sample Period (s)
STOPAT1	MULTIPARAM	0	0.00000E+000	Stop At 1	None	N/A
STOPAT2	MULTIPARAM	0	0.00000E+000	Stop At 2	None	N/A
AESBHCSELECTOR	TOGGLE	F	Save Both Half Cells
EOC	QUANT	3.432561	Open Circuit (V)
SEQUENCER	TOGGLE	TRUE	Run as Sequence
PSTATMODEL	IQUANT	4	Pstat Model
PSTATSECTION	LABEL	REF600-12055	Pstat Section
PSTATSERIALNO	LABEL	12055	Pstat Serial Number
CTRLMODE	IQUANT	0	Control Mode
ELECTROMETER	IQUANT	0	RE=0 or CS=1
IESTAB	IQUANT	0	I/E Stability
CASPEED	IQUANT	4	Control Amp Speed
CONVENTION	IQUANT	1	Current Convention
ICHRANGE	IQUANT	2	Ich Range
ICHRANGEMODE	TOGGLE	T	Ich Auto Range
ICHOFFSETENABLE	TOGGLE	F	Ich Offset Enable
ICHOFFSET	QUANT	0	Ich Offset (V)
ICHFILTER	IQUANT	1	Ich Filter
VCHRANGE	IQUANT	3	Vch Range
VCHRANGEMODE	TOGGLE	T	Vch Auto Range
VCHOFFSETENABLE	TOGGLE	F	Vch Offset Enable
VCHOFFSET	QUANT	0	Vch Offset (V)
VCHFILTER	IQUANT	1	Vch Filter
ACHRANGE	IQUANT	2	Ach Range
ACHOFFSETENABLE	TOGGLE	F	Ach Offset Enable
ACHOFFSET	QUANT	0	Ach Offset (V)
ACHFILTER	IQUANT	1	Ach Filter
IERANGELOWERLIMIT	IQUANT	7	I/E Range Lower Limit
IERANGEMODE	TOGGLE	F	I/E AutoRange
IERANGE	IQUANT	11	I/E Range
POSFEEDENABLE	TOGGLE	F	Positive Feedback IR Comp
POSFEEDRESISTANCE	QUANT	0	Positive Feedback Resistance (ohm)
ACHSELECT	IQUANT	4	Ach Select
SENSECABLEID	IQUANT	14	Sense Cable ID
PWRCABLEID	IQUANT	14	Power Cable ID
DCCALDATE	LABEL	2/12/2024	DC Calibration Date
ACCALDATE	LABEL	2/12/2024	AC Calibration Date
THERMOSELECT	IQUANT	1	Thermo Select
FRAMEWORKVERSION	LABEL	7.10.3	Framework Version
INSTRUMENTVERSION	LABEL	4.91	Instrument Version
COMMVERSION	LABEL	2.24	Communications Version
CPUPLDVERSION	LABEL	0.00	CPU PLD Version
CTRLPLDVERSION	LABEL	0.00	CTRL PLD Version
PSTATPLDVERSION	LABEL	0.00	PSTAT PLD Version
CURVE	TABLE	600
	Pt	T	Vf	Im	Vu	Pwr	Sig	Ach	Temp	IERange	Over
	#	s	V	A	V	W	V	V	deg C	#	bits
	0	1	3.20863E+000	-4.32948E-007	0.00000E+000	-1.38917E-006	0.00000E+000	9.92540E-004	-3.27687E+002	7	...........
	1	2	3.20903E+000	-4.33877E-007	0.00000E+000	-1.39232E-006	0.00000E+000	9.93590E-004	-3.27687E+002	7	...........
	2	3	3.20938E+000	-4.35088E-007	0.00000E+000	-1.39636E-006	0.00000E+000	9.97807E-004	-3.27687E+002	7	...........
	3	4	3.20969E+000	-4.36158E-007	0.00000E+000	-1.39993E-006	0.00000E+000	9.93607E-004	-3.27687E+002	7	...........
	4	5	3.20996E+000	-4.36478E-007	0.00000E+000	-1.40108E-006	0.00000E+000	9.87474E-004	-3.27687E+002	7	...........
	5	6	3.21019E+000	-4.37523E-007	0.00000E+000	-1.40453E-006	0.00000E+000	9.85307E-004	-3.27687E+002	7	...........
	6	7	3.21039E+000	-4.37851E-007	0.00000E+000	-1.40567E-006	0.00000E+000	9.82957E-004	-3.27687E+002	7	...........
	7	8	3.21057E+000	-4.39082E-007	0.00000E+000	-1.40970E-006	0.00000E+000	9.85574E-004	-3.27687E+002	7	...........
	8	9	3.21073E+000	-4.39669E-007	0.00000E+000	-1.41166E-006	0.00000E+000	9.92824E-004	-3.27687E+002	7	...........
	9	10	3.21091E+000	-4.40476E-007	0.00000E+000	-1.41433E-006	0.00000E+000	9.91457E-004	-3.27687E+002	7	...........
	10	11	3.21108E+000	-4.41276E-007	0.00000E+000	-1.41697E-006	0.00000E+000	9.89957E-004	-3.27687E+002	7	...........
	11	12	3.21128E+000	-4.42014E-007	0.00000E+000	-1.41943E-006	0.00000E+000	9.88524E-004	-3.27687E+002	7	...........
	12	13	3.21145E+000	-4.42635E-007	0.00000E+000	-1.42150E-006	0.00000E+000	9.89674E-004	-3.27687E+002	7	...........
	13	14	3.21159E+000	-4.43261E-007	0.00000E+000	-1.42357E-006	0.00000E+000	9.85124E-004	-3.27687E+002	7	...........
	14	15	3.21172E+000	-4.43899E-007	0.00000E+000	-1.42568E-006	0.00000E+000	9.87707E-004	-3.27687E+002	7	...........
	15	16	3.21183E+000	-4.43959E-007	0.00000E+000	-1.42592E-006	0.00000E+000	9.84824E-004	-3.27687E+002	7	...........
	16	17	3.21195E+000	-4.45443E-007	0.00000E+000	-1.43074E-006	0.00000E+000	9.91640E-004	-3.27687E+002	7	...........
	17	18	3.21208E+000	-4.46012E-007	0.00000E+000	-1.43263E-006	0.00000E+000	9.94207E-004	-3.27687E+002	7	...........
	18	19	3.21224E+000	-4.46454E-007	0.00000E+000	-1.43412E-006	0.00000E+000	9.95957E-004	-3.27687E+002	7	...........
	19	20	3.21240E+000	-4.46553E-007	0.00000E+000	-1.43451E-006	0.00000E+000	1.00127E-003	-3.27687E+002	7	...........
	20	21	3.21256E+000	-4.47551E-007	0.00000E+000	-1.43778E-006	0.00000E+000	8.24307E-004	-3.27687E+002	7	...........
	21	22	3.21273E+000	-4.47264E-007	0.00000E+000	-1.43694E-006	0.00000E+000	7.40307E-004	-3.27687E+002	7	...........
	22	23	3.21289E+000	-4.48381E-007	0.00000E+000	-1.44060E-006	0.00000E+000	7.38057E-004	-3.27687E+002	7	...........
	23	24	3.21304E+000	-4.49411E-007	0.00000E+000	-1.44398E-006	0.00000E+000	7.34924E-004	-3.27687E+002	7	...........
	24	25	3.21317E+000	-4.49709E-007	0.00000E+000	-1.44499E-006	0.00000E+000	7.32657E-004	-3.27687E+002	7	...........
	25	26	3.21327E+000	-4.50583E-007	0.00000E+000	-1.44785E-006	0.00000E+000	7.29040E-004	-3.27687E+002	7	...........
	26	27	3.21337E+000	-4.50728E-007	0.00000E+000	-1.44836E-006	0.00000E+000	7.27574E-004	-3.27687E+002	7	...........
	27	28	3.21349E+000	-4.51033E-007	0.00000E+000	-1.44939E-006	0.00000E+000	7.28274E-004	-3.27687E+002	7	...........
	28	29	3.21359E+000	-4.51165E-007	0.00000E+000	-1.44986E-006	0.00000E+000	7.28357E-004	-3.27687E+002	7	...........
	29	30	3.21369E+000	-4.52343E-007	0.00000E+000	-1.45369E-006	0.00000E+000	7.27557E-004	-3.27687E+002	7	...........
	30	31	3.21382E+000	-4.53239E-007	0.00000E+000	-1.45663E-006	0.00000E+000	7.33157E-004	-3.27687E+002	7	...........
	31	32	3.21392E+000	-4.53777E-007	0.00000E+000	-1.45840E-006	0.00000E+000	7.33224E-004	-3.27687E+002	7	...........
	32	33	3.21403E+000	-4.53782E-007	0.00000E+000	-1.45847E-006	0.00000E+000	7.35974E-004	-3.27687E+002	7	...........
	33	34	3.21415E+000	-4.53837E-007	0.00000E+000	-1.45870E-006	0.00000E+000	7.38957E-004	-3.27687E+002	7	...........
	34	35	3.21428E+000	-4.54484E-007	0.00000E+000	-1.46084E-006	0.00000E+000	7.37924E-004	-3.27687E+002	7	...........
	35	36	3.21439E+000	-4.55324E-007	0.00000E+000	-1.46359E-006	0.00000E+000	7.35557E-004	-3.27687E+002	7	...........
	36	37	3.21450E+000	-4.55395E-007	0.00000E+000	-1.46387E-006	0.00000E+000	7.34740E-004	-3.27687E+002	7	...........
	37	38	3.21460E+000	-4.55969E-007	0.00000E+000	-1.46576E-006	0.00000E+000	7.30524E-004	-3.27687E+002	7	...........
	38	39	3.21472E+000	-4.56628E-007	0.00000E+000	-1.46793E-006	0.00000E+000	7.25057E-004	-3.27687E+002	7	...........
	39	40	3.21480E+000	-4.56392E-007	0.00000E+000	-1.46721E-006	0.00000E+000	7.21224E-004	-3.27687E+002	7	...........
	40	41	3.21489E+000	-4.56745E-007	0.00000E+000	-1.46839E-006	0.00000E+000	7.24090E-004	-3.27687E+002	7	...........
	41	42	3.21497E+000	-4.56844E-007	0.00000E+000	-1.46874E-006	0.00000E+000	7.23257E-004	-3.27687E+002	7	...........
	42	43	3.21505E+000	-4.56044E-007	0.00000E+000	-1.46621E-006	0.00000E+000	7.22957E-004	-3.27687E+002	7	...........
	43	44	3.21513E+000	-4.57313E-007	0.00000E+000	-1.47032E-006	0.00000E+000	7.18607E-004	-3.27687E+002	7	...........
	44	45	3.21522E+000	-4.57651E-007	0.00000E+000	-1.47145E-006	0.00000E+000	7.21707E-004	-3.27687E+002	7	...........
	45	46	3.21530E+000	-4.57964E-007	0.00000E+000	-1.47249E-006	0.00000E+000	7.20257E-004	-3.27687E+002	7	...........
	46	47	3.21539E+000	-4.57862E-007	0.00000E+000	-1.47220E-006	0.00000E+000	7.23557E-004	-3.27687E+002	7	...........
	47	48	3.21547E+000	-4.58356E-007	0.00000E+000	-1.47383E-006	0.00000E+000	7.28474E-004	-3.27687E+002	7	...........
	48	49	3.21556E+000	-4.58663E-007	0.00000E+000	-1.47486E-006	0.00000E+000	7.27790E-004	-3.27687E+002	7	...........
	49	50	3.21565E+000	-4.58973E-007	0.00000E+000	-1.47590E-006	0.00000E+000	7.31190E-004	-3.27687E+002	7	...........
	50	51	3.21575E+000	-4.59837E-007	0.00000E+000	-1.47872E-006	0.00000E+000	7.30890E-004	-3.27687E+002	7	...........
	51	52	3.21584E+000	-4.60012E-007	0.00000E+000	-1.47933E-006	0.00000E+000	7.29240E-004	-3.27687E+002	7	...........
	52	53	3.21594E+000	-4.60442E-007	0.00000E+000	-1.48075E-006	0.00000E+000	7.29757E-004	-3.27687E+002	7	...........
	53	54	3.21603E+000	-4.60526E-007	0.00000E+000	-1.48107E-006	0.00000E+000	7.27424E-004	-3.27687E+002	7	...........
	54	55	3.21612E+000	-4.60622E-007	0.00000E+000	-1.48141E-006	0.00000E+000	7.22824E-004	-3.27687E+002	7	...........
	55	56	3.21621E+000	-4.60426E-007	0.00000E+000	-1.48083E-006	0.00000E+000	7.18024E-004	-3.27687E+002	7	...........
	56	57	3.21628E+000	-4.60341E-007	0.00000E+000	-1.48059E-006	0.00000E+000	7.13290E-004	-3.27687E+002	7	...........
	57	58	3.21638E+000	-4.60835E-007	0.00000E+000	-1.48222E-006	0.00000E+000	7.04974E-004	-3.27687E+002	7	...........
	58	59	3.21645E+000	-4.60361E-007	0.00000E+000	-1.48073E-006	0.00000E+000	7.04990E-004	-3.27687E+002	7	...........
	59	60	3.21654E+000	-4.60743E-007	0.00000E+000	-1.48200E-006	0.00000E+000	7.02557E-004	-3.27687E+002	7	...........
	60	61	3.21661E+000	-4.61108E-007	0.00000E+000	-1.48321E-006	0.00000E+000	7.02757E-004	-3.27687E+002	7	...........
	61	62	3.21669E+000	-4.61757E-007	0.00000E+000	-1.48533E-006	0.00000E+000	7.01874E-004	-3.27687E+002	7	...........
	62	63	3.21677E+000	-4.61644E-007	0.00000E+000	-1.48500E-006	0.00000E+000	7.00824E-004	-3.27687E+002	7	...........
	63	64	3.21682E+000	-4.62160E-007	0.00000E+000	-1.48669E-006	0.00000E+000	7.04957E-004	-3.27687E+002	7	...........
	64	65	3.21690E+000	-4.62355E-007	0.00000E+000	-1.48735E-006	0.00000E+000	7.06174E-004	-3.27687E+002	7	...........
	65	66	3.21696E+000	-4.63263E-007	0.00000E+000	-1.49030E-006	0.00000E+000	7.06940E-004	-3.27687E+002	7	...........
	66	67	3.21702E+000	-4.63655E-007	0.00000E+000	-1.49159E-006	0.00000E+000	7.09940E-004	-3.27687E+002	7	...........
	67	68	3.21707E+000	-4.63779E-007	0.00000E+000	-1.49201E-006	0.00000E+000	7.12440E-004	-3.27687E+002	7	...........
	68	69	3.21714E+000	-4.63956E-007	0.00000E+000	-1.49261E-006	0.00000E+000	7.16824E-004	-3.27687E+002	7	...........
	69	70	3.21721E+000	-4.63694E-007	0.00000E+000	-1.49180E-006	0.00000E+000	7.16124E-004	-3.27687E+002	7	...........
	70	71	3.21728E+000	-4.63988E-007	0.00000E+000	-1.49278E-006	0.00000E+000	7.19907E-004	-3.27687E+002	7	...........
	71	72	3.21735E+000	-4.64782E-007	0.00000E+000	-1.49537E-006	0.00000E+000	7.24207E-004	-3.27687E+002	7	...........
	72	73	3.21742E+000	-4.64825E-007	0.00000E+000	-1.49554E-006	0.00000E+000	7.25507E-004	-3.27687E+002	7	...........
	73	74	3.21748E+000	-4.64482E-007	0.00000E+000	-1.49446E-006	0.00000E+000	7.24240E-004	-3.27687E+002	7	...........
	74	75	3.21755E+000	-4.64642E-007	0.00000E+000	-1.49501E-006	0.00000E+000	7.28190E-004	-3.27687E+002	7	...........
	75	76	3.21763E+000	-4.64803E-007	0.00000E+000	-1.49556E-006	0.00000E+000	7.25874E-004	-3.27687E+002	7	...........
	76	77	3.21769E+000	-4.65386E-007	0.00000E+000	-1.49747E-006	0.00000E+000	7.23290E-004	-3.27687E+002	7	...........
	77	78	3.21776E+000	-4.65266E-007	0.00000E+000	-1.49711E-006	0.00000E+000	7.22690E-004	-3.27687E+002	7	...........
	78	79	3.21783E+000	-4.65719E-007	0.00000E+000	-1.49861E-006	0.00000E+000	7.18174E-004	-3.27687E+002	7	...........
	79	80	3.21789E+000	-4.66399E-007	0.00000E+000	-1.50082E-006	0.00000E+000	7.19774E-004	-3.27687E+002	7	...........
	80	81	3.21795E+000	-4.66326E-007	0.00000E+000	-1.50061E-006	0.00000E+000	7.18024E-004	-3.27687E+002	7	...........
	81	82	3.21801E+000	-4.66218E-007	0.00000E+000	-1.50029E-006	0.00000E+000	7.17157E-004	-3.27687E+002	7	...........
	82	83	3.21806E+000	-4.66491E-007	0.00000E+000	-1.50120E-006	0.00000E+000	7.16190E-004	-3.27687E+002	7	...........
	83	84	3.21811E+000	-4.66330E-007	0.00000E+000	-1.50070E-006	0.00000E+000	7.17374E-004	-3.27687E+002	7	...........
	84	85	3.21816E+000	-4.66969E-007	0.00000E+000	-1.50278E-006	0.00000E+000	7.16590E-004	-3.27687E+002	7	...........
	85	86	3.21821E+000	-4.66208E-007	0.00000E+000	-1.50036E-006	0.00000E+000	7.16590E-004	-3.27687E+002	7	...........
	86	87	3.21827E+000	-4.66586E-007	0.00000E+000	-1.50160E-006	0.00000E+000	7.14174E-004	-3.27687E+002	7	...........
	87	88	3.21832E+000	-4.66274E-007	0.00000E+000	-1.50062E-006	0.00000E+000	7.18940E-004	-3.27687E+002	7	...........
	88	89	3.21837E+000	-4.65996E-007	0.00000E+000	-1.49975E-006	0.00000E+000	7.18857E-004	-3.27687E+002	7	...........
	89	90	3.21842E+000	-4.66164E-007	0.00000E+000	-1.50031E-006	0.00000E+000	7.23140E-004	-3.27687E+002	7	...........
	90	91	3.21848E+000	-4.66716E-007	0.00000E+000	-1.50212E-006	0.00000E+000	7.25124E-004	-3.27687E+002	7	...........
	91	92	3.21854E+000	-4.67058E-007	0.00000E+000	-1.50324E-006	0.00000E+000	7.24907E-004	-3.27687E+002	7	...........
	92	93	3.21858E+000	-4.66430E-007	0.00000E+000	-1.50124E-006	0.00000E+000	7.25907E-004	-3.27687E+002	7	...........
	93	94	3.21864E+000	-4.66582E-007	0.00000E+000	-1.50176E-006	0.00000E+000	7.27507E-004	-3.27687E+002	7	...........
	94	95	3.21870E+000	-4.67548E-007	0.00000E+000	-1.50489E-006	0.00000E+000	7.29407E-004	-3.27687E+002	7	...........
	95	96	3.21875E+000	-4.67575E-007	0.00000E+000	-1.50501E-006	0.00000E+000	7.31107E-004	-3.27687E+002	7	...........
	96	97	3.21881E+000	-4.67264E-007	0.00000E+000	-1.50403E-006	0.00000E+000	7.34690E-004	-3.27687E+002	7	...........
	97	98	3.21885E+000	-4.67540E-007	0.00000E+000	-1.50494E-006	0.00000E+000	7.32757E-004	-3.27687E+002	7	...........
	98	99	3.21891E+000	-4.67884E-007	0.00000E+000	-1.50608E-006	0.00000E+000	7.35274E-004	-3.27687E+002	7	...........
	99	100	3.21898E+000	-4.68786E-007	0.00000E+000	-1.50901E-006	0.00000E+000	7.39090E-004	-3.27687E+002	7	...........
	100	101	3.21903E+000	-4.69297E-007	0.00000E+000	-1.51068E-006	0.00000E+000	7.38224E-004	-3.27687E+002	7	...........
	101	102	3.21910E+000	-4.69342E-007	0.00000E+000	-1.51086E-006	0.00000E+000	7.36457E-004	-3.27687E+002	7	...........
	102	103	3.21914E+000	-4.69122E-007	0.00000E+000	-1.51017E-006	0.00000E+000	7.35274E-004	-3.27687E+002	7	...........
	103	104	3.21920E+000	-4.69811E-007	0.00000E+000	-1.51241E-006	0.00000E+000	7.36674E-004	-3.27687E+002	7	...........
	104	105	3.21926E+000	-4.69916E-007	0.00000E+000	-1.51278E-006	0.00000E+000	7.31857E-004	-3.27687E+002	7	...........
	105	106	3.21931E+000	-4.70592E-007	0.00000E+000	-1.51498E-006	0.00000E+000	7.35457E-004	-3.27687E+002	7	...........
	106	107	3.21937E+000	-4.70795E-007	0.00000E+000	-1.51566E-006	0.00000E+000	7.29907E-004	-3.27687E+002	7	...........
	107	108	3.21942E+000	-4.70632E-007	0.00000E+000	-1.51516E-006	0.00000E+000	7.27790E-004	-3.27687E+002	7	...........
	108	109	3.21947E+000	-4.70609E-007	0.00000E+000	-1.51511E-006	0.00000E+000	7.27307E-004	-3.27687E+002	7	...........
	109	110	3.21951E+000	-4.71018E-007	0.00000E+000	-1.51645E-006	0.00000E+000	7.28040E-004	-3.27687E+002	7	...........
	110	111	3.21957E+000	-4.70650E-007	0.00000E+000	-1.51529E-006	0.00000E+000	7.24740E-004	-3.27687E+002	7	...........
	111	112	3.21961E+000	-4.70332E-007	0.00000E+000	-1.51429E-006	0.00000E+000	7.21657E-004	-3.27687E+002	7	...........
	112	113	3.21966E+000	-4.71554E-007	0.00000E+000	-1.51824E-006	0.00000E+000	7.20907E-004	-3.27687E+002	7	...........
	113	114	3.21969E+000	-4.71420E-007	0.00000E+000	-1.51783E-006	0.00000E+000	7.22324E-004	-3.27687E+002	7	...........
	114	115	3.21974E+000	-4.71316E-007	0.00000E+000	-1.51751E-006	0.00000E+000	7.20407E-004	-3.27687E+002	7	...........
	115	116	3.21978E+000	-4.71422E-007	0.00000E+000	-1.51787E-006	0.00000E+000	7.17840E-004	-3.27687E+002	7	...........
	116	117	3.21982E+000	-4.71552E-007	0.00000E+000	-1.51831E-006	0.00000E+000	7.21190E-004	-3.27687E+002	7	...........
	117	118	3.21986E+000	-4.71456E-007	0.00000E+000	-1.51802E-006	0.00000E+000	7.20040E-004	-3.27687E+002	7	...........
	118	119	3.21989E+000	-4.71945E-007	0.00000E+000	-1.51961E-006	0.00000E+000	7.18690E-004	-3.27687E+002	7	...........
	119	120	3.21994E+000	-4.72006E-007	0.00000E+000	-1.51983E-006	0.00000E+000	7.19824E-004	-3.27687E+002	7	...........
	120	121	3.21998E+000	-4.71710E-007	0.00000E+000	-1.51890E-006	0.00000E+000	7.21807E-004	-3.27687E+002	7	...........
	121	122	3.22003E+000	-4.71798E-007	0.00000E+000	-1.51920E-006	0.00000E+000	7.18574E-004	-3.27687E+002	7	...........
	122	123	3.22007E+000	-4.72468E-007	0.00000E+000	-1.52138E-006	0.00000E+000	7.20424E-004	-3.27687E+002	7	...........
	123	124	3.22012E+000	-4.72658E-007	0.00000E+000	-1.52201E-006	0.00000E+000	7.23774E-004	-3.27687E+002	7	...........
	124	125	3.22016E+000	-4.72317E-007	0.00000E+000	-1.52093E-006	0.00000E+000	7.21774E-004	-3.27687E+002	7	...........
	125	126	3.22021E+000	-4.71847E-007	0.00000E+000	-1.51945E-006	0.00000E+000	7.23157E-004	-3.27687E+002	7	...........
	126	127	3.22025E+000	-4.72175E-007	0.00000E+000	-1.52052E-006	0.00000E+000	7.25840E-004	-3.27687E+002	7	...........
	127	128	3.22029E+000	-4.72320E-007	0.00000E+000	-1.52101E-006	0.00000E+000	7.28374E-004	-3.27687E+002	7	...........
	128	129	3.22033E+000	-4.72558E-007	0.00000E+000	-1.52179E-006	0.00000E+000	7.26907E-004	-3.27687E+002	7	...........
	129	130	3.22037E+000	-4.72615E-007	0.00000E+000	-1.52200E-006	0.00000E+000	7.26657E-004	-3.27687E+002	7	...........
	130	131	3.22042E+000	-4.72949E-007	0.00000E+000	-1.52309E-006	0.00000E+000	7.28440E-004	-3.27687E+002	7	...........
	131	132	3.22046E+000	-4.73270E-007	0.00000E+000	-1.52415E-006	0.00000E+000	7.28007E-004	-3.27687E+002	7	...........
	132	133	3.22051E+000	-4.73148E-007	0.00000E+000	-1.52378E-006	0.00000E+000	7.29190E-004	-3.27687E+002	7	...........
	133	134	3.22056E+000	-4.72773E-007	0.00000E+000	-1.52259E-006	0.00000E+000	7.28790E-004	-3.27687E+002	7	...........
	134	135	3.22061E+000	-4.73420E-007	0.00000E+000	-1.52470E-006	0.00000E+000	7.32657E-004	-3.27687E+002	7	...........
	135	136	3.22065E+000	-4.73899E-007	0.00000E+000	-1.52626E-006	0.00000E+000	7.29624E-004	-3.27687E+002	7	...........
	136	137	3.22070E+000	-4.73373E-007	0.00000E+000	-1.52459E-006	0.00000E+000	7.29140E-004	-3.27687E+002	7	...........
	137	138	3.22074E+000	-4.73161E-007	0.00000E+000	-1.52393E-006	0.00000E+000	7.27890E-004	-3.27687E+002	7	...........
	138	139	3.22080E+000	-4.72790E-007	0.00000E+000	-1.52276E-006	0.00000E+000	7.30340E-004	-3.27687E+002	7	...........
	139	140	3.22084E+000	-4.72207E-007	0.00000E+000	-1.52090E-006	0.00000E+000	7.27057E-004	-3.27687E+002	7	...........
	140	141	3.22088E+000	-4.73449E-007	0.00000E+000	-1.52492E-006	0.00000E+000	7.26724E-004	-3.27687E+002	7	...........
	141	142	3.22092E+000	-4.72974E-007	0.00000E+000	-1.52341E-006	0.00000E+000	7.26657E-004	-3.27687E+002	7	...........
	142	143	3.22097E+000	-4.72790E-007	0.00000E+000	-1.52284E-006	0.00000E+000	7.24874E-004	-3.27687E+002	7	...........
	143	144	3.22101E+000	-4.73020E-007	0.00000E+000	-1.52360E-006	0.00000E+000	7.22240E-004	-3.27687E+002	7	...........
	144	145	3.22105E+000	-4.73071E-007	0.00000E+000	-1.52379E-006	0.00000E+000	7.22990E-004	-3.27687E+002	7	...........
	145	146	3.22110E+000	-4.73090E-007	0.00000E+000	-1.52387E-006	0.00000E+000	7.20407E-004	-3.27687E+002	7	...........
	146	147	3.22114E+000	-4.73418E-007	0.00000E+000	-1.52495E-006	0.00000E+000	7.18074E-004	-3.27687E+002	7	...........
	147	148	3.22117E+000	-4.74100E-007	0.00000E+000	-1.52716E-006	0.00000E+000	7.16924E-004	-3.27687E+002	7	...........
	148	149	3.22121E+000	-4.74535E-007	0.00000E+000	-1.52858E-006	0.00000E+000	7.15474E-004	-3.27687E+002	7	...........
	149	150	3.22125E+000	-4.74654E-007	0.00000E+000	-1.52898E-006	0.00000E+000	7.13457E-004	-3.27687E+002	7	...........
	150	151	3.22128E+000	-4.74500E-007	0.00000E+000	-1.52850E-006	0.00000E+000	7.14040E-004	-3.27687E+002	7	...........
	151	152	3.22131E+000	-4.74622E-007	0.00000E+000	-1.52891E-006	0.00000E+000	7.12224E-004	-3.27687E+002	7	...........
	152	153	3.22135E+000	-4.73764E-007	0.00000E+000	-1.52616E-006	0.00000E+000	7.11440E-004	-3.27687E+002	7	...........
	153	154	3.22138E+000	-4.73549E-007	0.00000E+000	-1.52548E-006	0.00000E+000	7.13190E-004	-3.27687E+002	7	...........
	154	155	3.22141E+000	-4.74111E-007	0.00000E+000	-1.52731E-006	0.00000E+000	7.10574E-004	-3.27687E+002	7	...........
	155	156	3.22146E+000	-4.74414E-007	0.00000E+000	-1.52831E-006	0.00000E+000	7.08324E-004	-3.27687E+002	7	...........
	156	157	3.22149E+000	-4.74160E-007	0.00000E+000	-1.52750E-006	0.00000E+000	7.09857E-004	-3.27687E+002	7	...........
	157	158	3.22152E+000	-4.74173E-007	0.00000E+000	-1.52756E-006	0.00000E+000	7.09840E-004	-3.27687E+002	7	...........
	158	159	3.22156E+000	-4.74338E-007	0.00000E+000	-1.52811E-006	0.00000E+000	7.11124E-004	-3.27687E+002	7	...........
	159	160	3.22160E+000	-4.74083E-007	0.00000E+000	-1.52730E-006	0.00000E+000	7.10474E-004	-3.27687E+002	7	...........
	160	161	3.22162E+000	-4.74321E-007	0.00000E+000	-1.52808E-006	0.00000E+000	7.09574E-004	-3.27687E+002	7	...........
	161	162	3.22166E+000	-4.74409E-007	0.00000E+000	-1.52839E-006	0.00000E+000	7.10774E-004	-3.27687E+002	7	...........
	162	163	3.22170E+000	-4.74001E-007	0.00000E+000	-1.52709E-006	0.00000E+000	7.09674E-004	-3.27687E+002	7	...........
	163	164	3.22173E+000	-4.74854E-007	0.00000E+000	-1.52985E-006	0.00000E+000	7.09607E-004	-3.27687E+002	7	...........
	164	165	3.22177E+000	-4.74631E-007	0.00000E+000	-1.52915E-006	0.00000E+000	7.12024E-004	-3.27687E+002	7	...........
	165	166	3.22180E+000	-4.74312E-007	0.00000E+000	-1.52814E-006	0.00000E+000	7.10924E-004	-3.27687E+002	7	...........
	166	167	3.22184E+000	-4.73837E-007	0.00000E+000	-1.52663E-006	0.00000E+000	7.12857E-004	-3.27687E+002	7	...........
	167	168	3.22187E+000	-4.73799E-007	0.00000E+000	-1.52652E-006	0.00000E+000	7.13774E-004	-3.27687E+002	7	...........
	168	169	3.22191E+000	-4.74601E-007	0.00000E+000	-1.52912E-006	0.00000E+000	7.16507E-004	-3.27687E+002	7	...........
	169	170	3.22195E+000	-4.74871E-007	0.00000E+000	-1.53001E-006	0.00000E+000	7.15240E-004	-3.27687E+002	7	...........
	170	171	3.22198E+000	-4.75097E-007	0.00000E+000	-1.53075E-006	0.00000E+000	7.16590E-004	-3.27687E+002	7	...........
	171	172	3.22203E+000	-4.74692E-007	0.00000E+000	-1.52947E-006	0.00000E+000	7.20707E-004	-3.27687E+002	7	...........
	172	173	3.22207E+000	-4.74584E-007	0.00000E+000	-1.52914E-006	0.00000E+000	7.18507E-004	-3.27687E+002	7	...........
	173	174	3.22210E+000	-4.74935E-007	0.00000E+000	-1.53029E-006	0.00000E+000	7.17224E-004	-3.27687E+002	7	...........
	174	175	3.22214E+000	-4.75055E-007	0.00000E+000	-1.53070E-006	0.00000E+000	7.21424E-004	-3.27687E+002	7	...........
	175	176	3.22219E+000	-4.75053E-007	0.00000E+000	-1.53071E-006	0.00000E+000	7.21040E-004	-3.27687E+002	7	...........
	176	177	3.22222E+000	-4.75153E-007	0.00000E+000	-1.53105E-006	0.00000E+000	7.18507E-004	-3.27687E+002	7	...........
	177	178	3.22226E+000	-4.74633E-007	0.00000E+000	-1.52939E-006	0.00000E+000	7.21257E-004	-3.27687E+002	7	...........
	178	179	3.22230E+000	-4.75175E-007	0.00000E+000	-1.53116E-006	0.00000E+000	7.20107E-004	-3.27687E+002	7	...........
	179	180	3.22234E+000	-4.74757E-007	0.00000E+000	-1.52983E-006	0.00000E+000	7.18140E-004	-3.27687E+002	7	...........
	180	181	3.22237E+000	-4.73715E-007	0.00000E+000	-1.52649E-006	0.00000E+000	7.18040E-004	-3.27687E+002	7	...........
	181	182	3.22242E+000	-4.74558E-007	0.00000E+000	-1.52923E-006	0.00000E+000	7.17924E-004	-3.27687E+002	7	...........
	182	183	3.22245E+000	-4.74774E-007	0.00000E+000	-1.52994E-006	0.00000E+000	7.15857E-004	-3.27687E+002	7	...........
	183	184	3.22249E+000	-4.74595E-007	0.00000E+000	-1.52938E-006	0.00000E+000	7.16957E-004	-3.27687E+002	7	...........
	184	185	3.22252E+000	-4.75266E-007	0.00000E+000	-1.53155E-006	0.00000E+000	7.16257E-004	-3.27687E+002	7	...........
	185	186	3.22256E+000	-4.74308E-007	0.00000E+000	-1.52849E-006	0.00000E+000	7.14124E-004	-3.27687E+002	7	...........
	186	187	3.22259E+000	-4.74921E-007	0.00000E+000	-1.53048E-006	0.00000E+000	7.09257E-004	-3.27687E+002	7	...........
	187	188	3.22263E+000	-4.74688E-007	0.00000E+000	-1.52974E-006	0.00000E+000	7.09907E-004	-3.27687E+002	7	...........
	188	189	3.22267E+000	-4.75037E-007	0.00000E+000	-1.53089E-006	0.00000E+000	7.09340E-004	-3.27687E+002	7	...........
	189	190	3.22269E+000	-4.75670E-007	0.00000E+000	-1.53294E-006	0.00000E+000	7.07407E-004	-3.27687E+002	7	...........
	190	191	3.22273E+000	-4.75836E-007	0.00000E+000	-1.53349E-006	0.00000E+000	7.06690E-004	-3.27687E+002	7	...........
	191	192	3.22277E+000	-4.75769E-007	0.00000E+000	-1.53329E-006	0.00000E+000	7.02507E-004	-3.27687E+002	7	...........
	192	193	3.22279E+000	-4.76135E-007	0.00000E+000	-1.53448E-006	0.00000E+000	7.02874E-004	-3.27687E+002	7	...........
	193	194	3.22283E+000	-4.75793E-007	0.00000E+000	-1.53340E-006	0.00000E+000	7.02357E-004	-3.27687E+002	7	...........
	194	195	3.22285E+000	-4.75375E-007	0.00000E+000	-1.53206E-006	0.00000E+000	7.02174E-004	-3.27687E+002	7	...........
	195	196	3.22289E+000	-4.75388E-007	0.00000E+000	-1.53212E-006	0.00000E+000	6.98924E-004	-3.27687E+002	7	...........
	196	197	3.22292E+000	-4.75696E-007	0.00000E+000	-1.53313E-006	0.00000E+000	6.98924E-004	-3.27687E+002	7	...........
	197	198	3.22295E+000	-4.76031E-007	0.00000E+000	-1.53423E-006	0.00000E+000	6.99424E-004	-3.27687E+002	7	...........
	198	199	3.22300E+000	-4.76079E-007	0.00000E+000	-1.53440E-006	0.00000E+000	6.98607E-004	-3.27687E+002	7	...........
	199	200	3.22303E+000	-4.75906E-007	0.00000E+000	-1.53386E-006	0.00000E+000	6.99124E-004	-3.27687E+002	7	...........
	200	201	3.22306E+000	-4.75912E-007	0.00000E+000	-1.53389E-006	0.00000E+000	6.96290E-004	-3.27687E+002	7	...........
	201	202	3.22309E+000	-4.76434E-007	0.00000E+000	-1.53559E-006	0.00000E+000	6.99407E-004	-3.27687E+002	7	...........
	202	203	3.22313E+000	-4.76042E-007	0.00000E+000	-1.53434E-006	0.00000E+000	6.98807E-004	-3.27687E+002	7	...........
	203	204	3.22315E+000	-4.76304E-007	0.00000E+000	-1.53520E-006	0.00000E+000	6.96640E-004	-3.27687E+002	7	...........
	204	205	3.22318E+000	-4.76027E-007	0.00000E+000	-1.53432E-006	0.00000E+000	6.95590E-004	-3.27687E+002	7	...........
	205	206	3.22322E+000	-4.76057E-007	0.00000E+000	-1.53444E-006	0.00000E+000	6.99240E-004	-3.27687E+002	7	...........
	206	207	3.22324E+000	-4.75693E-007	0.00000E+000	-1.53327E-006	0.00000E+000	6.98024E-004	-3.27687E+002	7	...........
	207	208	3.22327E+000	-4.75387E-007	0.00000E+000	-1.53230E-006	0.00000E+000	7.01957E-004	-3.27687E+002	7	...........
	208	209	3.22330E+000	-4.75173E-007	0.00000E+000	-1.53163E-006	0.00000E+000	7.01224E-004	-3.27687E+002	7	...........
	209	210	3.22333E+000	-4.75186E-007	0.00000E+000	-1.53168E-006	0.00000E+000	7.04807E-004	-3.27687E+002	7	...........
	210	211	3.22336E+000	-4.76388E-007	0.00000E+000	-1.53557E-006	0.00000E+000	7.04957E-004	-3.27687E+002	7	...........
	211	212	3.22338E+000	-4.76288E-007	0.00000E+000	-1.53526E-006	0.00000E+000	7.05624E-004	-3.27687E+002	7	...........
	212	213	3.22341E+000	-4.75970E-007	0.00000E+000	-1.53425E-006	0.00000E+000	7.08724E-004	-3.27687E+002	7	...........
	213	214	3.22344E+000	-4.75862E-007	0.00000E+000	-1.53391E-006	0.00000E+000	7.07407E-004	-3.27687E+002	7	...........
	214	215	3.22347E+000	-4.75638E-007	0.00000E+000	-1.53320E-006	0.00000E+000	7.10940E-004	-3.27687E+002	7	...........
	215	216	3.22349E+000	-4.75791E-007	0.00000E+000	-1.53371E-006	0.00000E+000	7.14057E-004	-3.27687E+002	7	...........
	216	217	3.22351E+000	-4.76222E-007	0.00000E+000	-1.53511E-006	0.00000E+000	7.10874E-004	-3.27687E+002	7	...........
	217	218	3.22354E+000	-4.76522E-007	0.00000E+000	-1.53609E-006	0.00000E+000	7.13074E-004	-3.27687E+002	7	...........
	218	219	3.22358E+000	-4.76717E-007	0.00000E+000	-1.53673E-006	0.00000E+000	7.14490E-004	-3.27687E+002	7	...........
	219	220	3.22361E+000	-4.76964E-007	0.00000E+000	-1.53755E-006	0.00000E+000	7.16590E-004	-3.27687E+002	7	...........
	220	221	3.22364E+000	-4.76907E-007	0.00000E+000	-1.53738E-006	0.00000E+000	7.15624E-004	-3.27687E+002	7	...........
	221	222	3.22368E+000	-4.76277E-007	0.00000E+000	-1.53536E-006	0.00000E+000	7.18557E-004	-3.27687E+002	7	...........
	222	223	3.22371E+000	-4.75736E-007	0.00000E+000	-1.53363E-006	0.00000E+000	7.18374E-004	-3.27687E+002	7	...........
	223	224	3.22374E+000	-4.75576E-007	0.00000E+000	-1.53313E-006	0.00000E+000	7.18024E-004	-3.27687E+002	7	...........
	224	225	3.22377E+000	-4.76751E-007	0.00000E+000	-1.53694E-006	0.00000E+000	7.19040E-004	-3.27687E+002	7	...........
	225	226	3.22380E+000	-4.76721E-007	0.00000E+000	-1.53685E-006	0.00000E+000	7.21424E-004	-3.27687E+002	7	...........
	226	227	3.22384E+000	-4.76570E-007	0.00000E+000	-1.53638E-006	0.00000E+000	7.23757E-004	-3.27687E+002	7	...........
	227	228	3.22387E+000	-4.76838E-007	0.00000E+000	-1.53726E-006	0.00000E+000	7.21707E-004	-3.27687E+002	7	...........
	228	229	3.22390E+000	-4.76641E-007	0.00000E+000	-1.53664E-006	0.00000E+000	7.22590E-004	-3.27687E+002	7	...........
	229	230	3.22393E+000	-4.76846E-007	0.00000E+000	-1.53732E-006	0.00000E+000	7.22540E-004	-3.27687E+002	7	...........
	230	231	3.22396E+000	-4.77904E-007	0.00000E+000	-1.54074E-006	0.00000E+000	7.25907E-004	-3.27687E+002	7	...........
	231	232	3.22399E+000	-4.77816E-007	0.00000E+000	-1.54047E-006	0.00000E+000	7.25690E-004	-3.27687E+002	7	...........
	232	233	3.22403E+000	-4.78185E-007	0.00000E+000	-1.54168E-006	0.00000E+000	7.21924E-004	-3.27687E+002	7	...........
	233	234	3.22406E+000	-4.78273E-007	0.00000E+000	-1.54198E-006	0.00000E+000	7.20924E-004	-3.27687E+002	7	...........
	234	235	3.22409E+000	-4.78523E-007	0.00000E+000	-1.54280E-006	0.00000E+000	7.21674E-004	-3.27687E+002	7	...........
	235	236	3.22411E+000	-4.78425E-007	0.00000E+000	-1.54250E-006	0.00000E+000	7.19840E-004	-3.27687E+002	7	...........
	236	237	3.22415E+000	-4.78309E-007	0.00000E+000	-1.54214E-006	0.00000E+000	7.18857E-004	-3.27687E+002	7	...........
	237	238	3.22417E+000	-4.77586E-007	0.00000E+000	-1.53982E-006	0.00000E+000	7.19574E-004	-3.27687E+002	7	...........
	238	239	3.22420E+000	-4.78904E-007	0.00000E+000	-1.54408E-006	0.00000E+000	7.18974E-004	-3.27687E+002	7	...........
	239	240	3.22423E+000	-4.78705E-007	0.00000E+000	-1.54345E-006	0.00000E+000	7.15924E-004	-3.27687E+002	7	...........
	240	241	3.22425E+000	-4.78589E-007	0.00000E+000	-1.54309E-006	0.00000E+000	7.19440E-004	-3.27687E+002	7	...........
	241	242	3.22428E+000	-4.78351E-007	0.00000E+000	-1.54234E-006	0.00000E+000	7.15657E-004	-3.27687E+002	7	...........
	242	243	3.22431E+000	-4.78538E-007	0.00000E+000	-1.54296E-006	0.00000E+000	7.13374E-004	-3.27687E+002	7	...........
	243	244	3.22434E+000	-4.78375E-007	0.00000E+000	-1.54244E-006	0.00000E+000	7.14424E-004	-3.27687E+002	7	...........
	244	245	3.22436E+000	-4.78644E-007	0.00000E+000	-1.54332E-006	0.00000E+000	7.14557E-004	-3.27687E+002	7	...........
	245	246	3.22439E+000	-4.78892E-007	0.00000E+000	-1.54414E-006	0.00000E+000	7.12674E-004	-3.27687E+002	7	...........
	246	247	3.22442E+000	-4.79198E-007	0.00000E+000	-1.54514E-006	0.00000E+000	7.10707E-004	-3.27687E+002	7	...........
	247	248	3.22445E+000	-4.79825E-007	0.00000E+000	-1.54717E-006	0.00000E+000	7.11940E-004	-3.27687E+002	7	...........
	248	249	3.22447E+000	-4.79849E-007	0.00000E+000	-1.54726E-006	0.00000E+000	7.12024E-004	-3.27687E+002	7	...........
	249	250	3.22450E+000	-4.79373E-007	0.00000E+000	-1.54574E-006	0.00000E+000	7.10757E-004	-3.27687E+002	7	...........
	250	251	3.22453E+000	-4.79538E-007	0.00000E+000	-1.54629E-006	0.00000E+000	7.11057E-004	-3.27687E+002	7	...........
	251	252	3.22456E+000	-4.78724E-007	0.00000E+000	-1.54367E-006	0.00000E+000	7.10290E-004	-3.27687E+002	7	...........
	252	253	3.22459E+000	-4.79199E-007	0.00000E+000	-1.54522E-006	0.00000E+000	7.12424E-004	-3.27687E+002	7	...........
	253	254	3.22462E+000	-4.79151E-007	0.00000E+000	-1.54508E-006	0.00000E+000	7.10440E-004	-3.27687E+002	7	...........
	254	255	3.22465E+000	-4.79033E-007	0.00000E+000	-1.54472E-006	0.00000E+000	7.08524E-004	-3.27687E+002	7	...........
	255	256	3.22467E+000	-4.78929E-007	0.00000E+000	-1.54439E-006	0.00000E+000	7.12124E-004	-3.27687E+002	7	...........
	256	257	3.22471E+000	-4.79316E-007	0.00000E+000	-1.54566E-006	0.00000E+000	7.10624E-004	-3.27687E+002	7	...........
	257	258	3.22473E+000	-4.78893E-007	0.00000E+000	-1.54430E-006	0.00000E+000	7.11174E-004	-3.27687E+002	7	...........
	258	259	3.22475E+000	-4.79120E-007	0.00000E+000	-1.54504E-006	0.00000E+000	7.13624E-004	-3.27687E+002	7	...........
	259	260	3.22480E+000	-4.79746E-007	0.00000E+000	-1.54708E-006	0.00000E+000	7.16074E-004	-3.27687E+002	7	...........
	260	261	3.22483E+000	-4.80382E-007	0.00000E+000	-1.54915E-006	0.00000E+000	7.17507E-004	-3.27687E+002	7	...........
	261	262	3.22485E+000	-4.80369E-007	0.00000E+000	-1.54912E-006	0.00000E+000	7.14107E-004	-3.27687E+002	7	...........
	262	263	3.22489E+000	-4.79808E-007	0.00000E+000	-1.54733E-006	0.00000E+000	7.16907E-004	-3.27687E+002	7	...........
	263	264	3.22491E+000	-4.80173E-007	0.00000E+000	-1.54852E-006	0.00000E+000	7.18007E-004	-3.27687E+002	7	...........
	264	265	3.22496E+000	-4.79902E-007	0.00000E+000	-1.54766E-006	0.00000E+000	7.15690E-004	-3.27687E+002	7	...........
	265	266	3.22498E+000	-4.79202E-007	0.00000E+000	-1.54541E-006	0.00000E+000	7.14690E-004	-3.27687E+002	7	...........
	266	267	3.22502E+000	-4.80233E-007	0.00000E+000	-1.54876E-006	0.00000E+000	7.19124E-004	-3.27687E+002	7	...........
	267	268	3.22505E+000	-4.80606E-007	0.00000E+000	-1.54998E-006	0.00000E+000	7.20190E-004	-3.27687E+002	7	...........
	268	269	3.22508E+000	-4.80496E-007	0.00000E+000	-1.54964E-006	0.00000E+000	7.18457E-004	-3.27687E+002	7	...........
	269	270	3.22510E+000	-4.81015E-007	0.00000E+000	-1.55132E-006	0.00000E+000	7.19874E-004	-3.27687E+002	7	...........
	270	271	3.22514E+000	-4.80560E-007	0.00000E+000	-1.54988E-006	0.00000E+000	7.23707E-004	-3.27687E+002	7	...........
	271	272	3.22518E+000	-4.80417E-007	0.00000E+000	-1.54943E-006	0.00000E+000	7.18724E-004	-3.27687E+002	7	...........
	272	273	3.22521E+000	-4.80465E-007	0.00000E+000	-1.54960E-006	0.00000E+000	7.21107E-004	-3.27687E+002	7	...........
	273	274	3.22525E+000	-4.80886E-007	0.00000E+000	-1.55098E-006	0.00000E+000	7.18174E-004	-3.27687E+002	7	...........
	274	275	3.22528E+000	-4.81380E-007	0.00000E+000	-1.55258E-006	0.00000E+000	7.21907E-004	-3.27687E+002	7	...........
	275	276	3.22531E+000	-4.81533E-007	0.00000E+000	-1.55309E-006	0.00000E+000	7.19940E-004	-3.27687E+002	7	...........
	276	277	3.22535E+000	-4.80927E-007	0.00000E+000	-1.55116E-006	0.00000E+000	7.20657E-004	-3.27687E+002	7	...........
	277	278	3.22537E+000	-4.80771E-007	0.00000E+000	-1.55067E-006	0.00000E+000	7.25674E-004	-3.27687E+002	7	...........
	278	279	3.22540E+000	-4.80718E-007	0.00000E+000	-1.55051E-006	0.00000E+000	7.22924E-004	-3.27687E+002	7	...........
	279	280	3.22544E+000	-4.79912E-007	0.00000E+000	-1.54792E-006	0.00000E+000	7.22640E-004	-3.27687E+002	7	...........
	280	281	3.22547E+000	-4.80852E-007	0.00000E+000	-1.55097E-006	0.00000E+000	7.23490E-004	-3.27687E+002	7	...........
	281	282	3.22549E+000	-4.81205E-007	0.00000E+000	-1.55212E-006	0.00000E+000	7.23890E-004	-3.27687E+002	7	...........
	282	283	3.22552E+000	-4.81156E-007	0.00000E+000	-1.55198E-006	0.00000E+000	7.22240E-004	-3.27687E+002	7	...........
	283	284	3.22555E+000	-4.80902E-007	0.00000E+000	-1.55117E-006	0.00000E+000	7.22890E-004	-3.27687E+002	7	...........
	284	285	3.22556E+000	-4.81461E-007	0.00000E+000	-1.55298E-006	0.00000E+000	7.22090E-004	-3.27687E+002	7	...........
	285	286	3.22561E+000	-4.81459E-007	0.00000E+000	-1.55300E-006	0.00000E+000	7.22190E-004	-3.27687E+002	7	...........
	286	287	3.22563E+000	-4.81770E-007	0.00000E+000	-1.55401E-006	0.00000E+000	7.22124E-004	-3.27687E+002	7	...........
	287	288	3.22565E+000	-4.81954E-007	0.00000E+000	-1.55461E-006	0.00000E+000	7.20574E-004	-3.27687E+002	7	...........
	288	289	3.22567E+000	-4.81848E-007	0.00000E+000	-1.55428E-006	0.00000E+000	7.23440E-004	-3.27687E+002	7	...........
	289	290	3.22569E+000	-4.81835E-007	0.00000E+000	-1.55425E-006	0.00000E+000	7.20657E-004	-3.27687E+002	7	...........
	290	291	3.22571E+000	-4.82677E-007	0.00000E+000	-1.55698E-006	0.00000E+000	7.23824E-004	-3.27687E+002	7	...........
	291	292	3.22574E+000	-4.82506E-007	0.00000E+000	-1.55644E-006	0.00000E+000	7.19407E-004	-3.27687E+002	7	...........
	292	293	3.22576E+000	-4.81908E-007	0.00000E+000	-1.55452E-006	0.00000E+000	7.19407E-004	-3.27687E+002	7	...........
	293	294	3.22579E+000	-4.81503E-007	0.00000E+000	-1.55323E-006	0.00000E+000	7.20640E-004	-3.27687E+002	7	...........
	294	295	3.22580E+000	-4.81533E-007	0.00000E+000	-1.55333E-006	0.00000E+000	7.22424E-004	-3.27687E+002	7	...........
	295	296	3.22582E+000	-4.81507E-007	0.00000E+000	-1.55326E-006	0.00000E+000	7.19840E-004	-3.27687E+002	7	...........
	296	297	3.22583E+000	-4.81442E-007	0.00000E+000	-1.55305E-006	0.00000E+000	7.18590E-004	-3.27687E+002	7	...........
	297	298	3.22586E+000	-4.81474E-007	0.00000E+000	-1.55317E-006	0.00000E+000	7.16274E-004	-3.27687E+002	7	...........
	298	299	3.22588E+000	-4.81231E-007	0.00000E+000	-1.55240E-006	0.00000E+000	7.17190E-004	-3.27687E+002	7	...........
	299	300	3.22590E+000	-4.81296E-007	0.00000E+000	-1.55261E-006	0.00000E+000	7.18624E-004	-3.27687E+002	7	...........
	300	301	3.22592E+000	-4.81677E-007	0.00000E+000	-1.55385E-006	0.00000E+000	7.17890E-004	-3.27687E+002	7	...........
	301	302	3.22593E+000	-4.82164E-007	0.00000E+000	-1.55543E-006	0.00000E+000	7.20324E-004	-3.27687E+002	7	...........
	302	303	3.22596E+000	-4.82162E-007	0.00000E+000	-1.55544E-006	0.00000E+000	7.19290E-004	-3.27687E+002	7	...........
	303	304	3.22597E+000	-4.82560E-007	0.00000E+000	-1.55672E-006	0.00000E+000	7.17924E-004	-3.27687E+002	7	...........
	304	305	3.22599E+000	-4.82721E-007	0.00000E+000	-1.55726E-006	0.00000E+000	7.17257E-004	-3.27687E+002	7	...........
	305	306	3.22600E+000	-4.82227E-007	0.00000E+000	-1.55566E-006	0.00000E+000	7.17574E-004	-3.27687E+002	7	...........
	306	307	3.22602E+000	-4.81446E-007	0.00000E+000	-1.55315E-006	0.00000E+000	7.16590E-004	-3.27687E+002	7	...........
	307	308	3.22604E+000	-4.81425E-007	0.00000E+000	-1.55310E-006	0.00000E+000	7.18307E-004	-3.27687E+002	7	...........
	308	309	3.22605E+000	-4.81593E-007	0.00000E+000	-1.55364E-006	0.00000E+000	7.19574E-004	-3.27687E+002	7	...........
	309	310	3.22607E+000	-4.82066E-007	0.00000E+000	-1.55518E-006	0.00000E+000	7.18224E-004	-3.27687E+002	7	...........
	310	311	3.22610E+000	-4.82115E-007	0.00000E+000	-1.55535E-006	0.00000E+000	7.17507E-004	-3.27687E+002	7	...........
	311	312	3.22611E+000	-4.82023E-007	0.00000E+000	-1.55506E-006	0.00000E+000	7.19907E-004	-3.27687E+002	7	...........
	312	313	3.22613E+000	-4.81722E-007	0.00000E+000	-1.55410E-006	0.00000E+000	7.16290E-004	-3.27687E+002	7	...........
	313	314	3.22615E+000	-4.82077E-007	0.00000E+000	-1.55525E-006	0.00000E+000	7.17540E-004	-3.27687E+002	7	...........
	314	315	3.22617E+000	-4.82466E-007	0.00000E+000	-1.55652E-006	0.00000E+000	7.17040E-004	-3.27687E+002	7	...........
	315	316	3.22618E+000	-4.82586E-007	0.00000E+000	-1.55691E-006	0.00000E+000	7.15140E-004	-3.27687E+002	7	...........
	316	317	3.22620E+000	-4.82325E-007	0.00000E+000	-1.55608E-006	0.00000E+000	7.15240E-004	-3.27687E+002	7	...........
	317	318	3.22621E+000	-4.82864E-007	0.00000E+000	-1.55782E-006	0.00000E+000	7.16374E-004	-3.27687E+002	7	...........
	318	319	3.22624E+000	-4.83079E-007	0.00000E+000	-1.55853E-006	0.00000E+000	7.17207E-004	-3.27687E+002	7	...........
	319	320	3.22625E+000	-4.82600E-007	0.00000E+000	-1.55699E-006	0.00000E+000	7.20357E-004	-3.27687E+002	7	...........
	320	321	3.22628E+000	-4.82236E-007	0.00000E+000	-1.55583E-006	0.00000E+000	7.19540E-004	-3.27687E+002	7	...........
	321	322	3.22628E+000	-4.81996E-007	0.00000E+000	-1.55505E-006	0.00000E+000	7.17540E-004	-3.27687E+002	7	...........
	322	323	3.22630E+000	-4.82108E-007	0.00000E+000	-1.55542E-006	0.00000E+000	7.18874E-004	-3.27687E+002	7	...........
	323	324	3.22632E+000	-4.82925E-007	0.00000E+000	-1.55807E-006	0.00000E+000	7.19840E-004	-3.27687E+002	7	...........
	324	325	3.22634E+000	-4.82449E-007	0.00000E+000	-1.55654E-006	0.00000E+000	7.19007E-004	-3.27687E+002	7	...........
	325	326	3.22635E+000	-4.82868E-007	0.00000E+000	-1.55790E-006	0.00000E+000	7.20190E-004	-3.27687E+002	7	...........
	326	327	3.22636E+000	-4.82614E-007	0.00000E+000	-1.55709E-006	0.00000E+000	7.18657E-004	-3.27687E+002	7	...........
	327	328	3.22639E+000	-4.82263E-007	0.00000E+000	-1.55597E-006	0.00000E+000	7.17740E-004	-3.27687E+002	7	...........
	328	329	3.22639E+000	-4.82850E-007	0.00000E+000	-1.55786E-006	0.00000E+000	7.19407E-004	-3.27687E+002	7	...........
	329	330	3.22643E+000	-4.82465E-007	0.00000E+000	-1.55664E-006	0.00000E+000	7.18874E-004	-3.27687E+002	7	...........
	330	331	3.22643E+000	-4.82695E-007	0.00000E+000	-1.55738E-006	0.00000E+000	7.17457E-004	-3.27687E+002	7	...........
	331	332	3.22645E+000	-4.82853E-007	0.00000E+000	-1.55790E-006	0.00000E+000	7.21307E-004	-3.27687E+002	7	...........
	332	333	3.22646E+000	-4.83375E-007	0.00000E+000	-1.55959E-006	0.00000E+000	7.19607E-004	-3.27687E+002	7	...........
	333	334	3.22647E+000	-4.83030E-007	0.00000E+000	-1.55848E-006	0.00000E+000	7.19724E-004	-3.27687E+002	7	...........
	334	335	3.22649E+000	-4.83212E-007	0.00000E+000	-1.55907E-006	0.00000E+000	7.19107E-004	-3.27687E+002	7	...........
	335	336	3.22651E+000	-4.82830E-007	0.00000E+000	-1.55785E-006	0.00000E+000	7.17390E-004	-3.27687E+002	7	...........
	336	337	3.22653E+000	-4.82088E-007	0.00000E+000	-1.55547E-006	0.00000E+000	7.20457E-004	-3.27687E+002	7	...........
	337	338	3.22654E+000	-4.82762E-007	0.00000E+000	-1.55765E-006	0.00000E+000	7.17274E-004	-3.27687E+002	7	...........
	338	339	3.22654E+000	-4.82599E-007	0.00000E+000	-1.55713E-006	0.00000E+000	7.18340E-004	-3.27687E+002	7	...........
	339	340	3.22656E+000	-4.82780E-007	0.00000E+000	-1.55772E-006	0.00000E+000	7.17857E-004	-3.27687E+002	7	...........
	340	341	3.22658E+000	-4.82468E-007	0.00000E+000	-1.55672E-006	0.00000E+000	7.17457E-004	-3.27687E+002	7	...........
	341	342	3.22658E+000	-4.82417E-007	0.00000E+000	-1.55656E-006	0.00000E+000	7.17674E-004	-3.27687E+002	7	...........
	342	343	3.22660E+000	-4.82367E-007	0.00000E+000	-1.55641E-006	0.00000E+000	7.17340E-004	-3.27687E+002	7	...........
	343	344	3.22661E+000	-4.82350E-007	0.00000E+000	-1.55635E-006	0.00000E+000	7.18074E-004	-3.27687E+002	7	...........
	344	345	3.22664E+000	-4.83165E-007	0.00000E+000	-1.55900E-006	0.00000E+000	7.18324E-004	-3.27687E+002	7	...........
	345	346	3.22665E+000	-4.83241E-007	0.00000E+000	-1.55925E-006	0.00000E+000	7.17907E-004	-3.27687E+002	7	...........
	346	347	3.22667E+000	-4.83337E-007	0.00000E+000	-1.55957E-006	0.00000E+000	7.15174E-004	-3.27687E+002	7	...........
	347	348	3.22669E+000	-4.83258E-007	0.00000E+000	-1.55932E-006	0.00000E+000	7.17940E-004	-3.27687E+002	7	...........
	348	349	3.22671E+000	-4.83011E-007	0.00000E+000	-1.55854E-006	0.00000E+000	7.13874E-004	-3.27687E+002	7	...........
	349	350	3.22671E+000	-4.83059E-007	0.00000E+000	-1.55869E-006	0.00000E+000	7.15340E-004	-3.27687E+002	7	...........
	350	351	3.22675E+000	-4.82782E-007	0.00000E+000	-1.55782E-006	0.00000E+000	7.13140E-004	-3.27687E+002	7	...........
	351	352	3.22675E+000	-4.83065E-007	0.00000E+000	-1.55873E-006	0.00000E+000	7.12390E-004	-3.27687E+002	7	...........
	352	353	3.22677E+000	-4.83087E-007	0.00000E+000	-1.55881E-006	0.00000E+000	7.15090E-004	-3.27687E+002	7	...........
	353	354	3.22679E+000	-4.83178E-007	0.00000E+000	-1.55911E-006	0.00000E+000	7.11007E-004	-3.27687E+002	7	...........
	354	355	3.22682E+000	-4.83344E-007	0.00000E+000	-1.55967E-006	0.00000E+000	7.12974E-004	-3.27687E+002	7	...........
	355	356	3.22685E+000	-4.82794E-007	0.00000E+000	-1.55790E-006	0.00000E+000	7.08757E-004	-3.27687E+002	7	...........
	356	357	3.22685E+000	-4.83250E-007	0.00000E+000	-1.55938E-006	0.00000E+000	7.11457E-004	-3.27687E+002	7	...........
	357	358	3.22687E+000	-4.83385E-007	0.00000E+000	-1.55982E-006	0.00000E+000	7.09757E-004	-3.27687E+002	7	...........
	358	359	3.22690E+000	-4.83617E-007	0.00000E+000	-1.56059E-006	0.00000E+000	7.09174E-004	-3.27687E+002	7	...........
	359	360	3.22692E+000	-4.83750E-007	0.00000E+000	-1.56102E-006	0.00000E+000	7.10774E-004	-3.27687E+002	7	...........
	360	361	3.22694E+000	-4.84553E-007	0.00000E+000	-1.56362E-006	0.00000E+000	7.09224E-004	-3.27687E+002	7	...........
	361	362	3.22696E+000	-4.84199E-007	0.00000E+000	-1.56249E-006	0.00000E+000	7.10640E-004	-3.27687E+002	7	...........
	362	363	3.22698E+000	-4.83846E-007	0.00000E+000	-1.56136E-006	0.00000E+000	7.08357E-004	-3.27687E+002	7	...........
	363	364	3.22701E+000	-4.83419E-007	0.00000E+000	-1.56000E-006	0.00000E+000	7.07940E-004	-3.27687E+002	7	...........
	364	365	3.22703E+000	-4.82861E-007	0.00000E+000	-1.55821E-006	0.00000E+000	7.06857E-004	-3.27687E+002	7	...........
	365	366	3.22707E+000	-4.83593E-007	0.00000E+000	-1.56059E-006	0.00000E+000	7.03857E-004	-3.27687E+002	7	...........
	366	367	3.22711E+000	-4.83904E-007	0.00000E+000	-1.56161E-006	0.00000E+000	7.03957E-004	-3.27687E+002	7	...........
	367	368	3.22713E+000	-4.84113E-007	0.00000E+000	-1.56229E-006	0.00000E+000	7.03590E-004	-3.27687E+002	7	...........
	368	369	3.22716E+000	-4.83485E-007	0.00000E+000	-1.56028E-006	0.00000E+000	7.03757E-004	-3.27687E+002	7	...........
	369	370	3.22718E+000	-4.84239E-007	0.00000E+000	-1.56273E-006	0.00000E+000	7.06440E-004	-3.27687E+002	7	...........
	370	371	3.22720E+000	-4.84115E-007	0.00000E+000	-1.56234E-006	0.00000E+000	7.02974E-004	-3.27687E+002	7	...........
	371	372	3.22722E+000	-4.84256E-007	0.00000E+000	-1.56280E-006	0.00000E+000	7.04974E-004	-3.27687E+002	7	...........
	372	373	3.22723E+000	-4.85064E-007	0.00000E+000	-1.56541E-006	0.00000E+000	7.03457E-004	-3.27687E+002	7	...........
	373	374	3.22726E+000	-4.85458E-007	0.00000E+000	-1.56670E-006	0.00000E+000	7.03340E-004	-3.27687E+002	7	...........
	374	375	3.22730E+000	-4.85446E-007	0.00000E+000	-1.56668E-006	0.00000E+000	7.02840E-004	-3.27687E+002	7	...........
	375	376	3.22732E+000	-4.85774E-007	0.00000E+000	-1.56775E-006	0.00000E+000	7.01840E-004	-3.27687E+002	7	...........
	376	377	3.22735E+000	-4.85355E-007	0.00000E+000	-1.56641E-006	0.00000E+000	7.01140E-004	-3.27687E+002	7	...........
	377	378	3.22738E+000	-4.85221E-007	0.00000E+000	-1.56599E-006	0.00000E+000	7.01940E-004	-3.27687E+002	7	...........
	378	379	3.22739E+000	-4.84617E-007	0.00000E+000	-1.56405E-006	0.00000E+000	7.02990E-004	-3.27687E+002	7	...........
	379	380	3.22743E+000	-4.84735E-007	0.00000E+000	-1.56445E-006	0.00000E+000	7.03740E-004	-3.27687E+002	7	...........
	380	381	3.22744E+000	-4.85669E-007	0.00000E+000	-1.56747E-006	0.00000E+000	7.01374E-004	-3.27687E+002	7	...........
	381	382	3.22746E+000	-4.85473E-007	0.00000E+000	-1.56685E-006	0.00000E+000	7.00240E-004	-3.27687E+002	7	...........
	382	383	3.22748E+000	-4.85514E-007	0.00000E+000	-1.56699E-006	0.00000E+000	7.01540E-004	-3.27687E+002	7	...........
	383	384	3.22752E+000	-4.85376E-007	0.00000E+000	-1.56656E-006	0.00000E+000	7.04040E-004	-3.27687E+002	7	...........
	384	385	3.22755E+000	-4.85766E-007	0.00000E+000	-1.56783E-006	0.00000E+000	6.97940E-004	-3.27687E+002	7	...........
	385	386	3.22756E+000	-4.85428E-007	0.00000E+000	-1.56675E-006	0.00000E+000	7.00374E-004	-3.27687E+002	7	...........
	386	387	3.22759E+000	-4.85892E-007	0.00000E+000	-1.56826E-006	0.00000E+000	7.02507E-004	-3.27687E+002	7	...........
	387	388	3.22760E+000	-4.85559E-007	0.00000E+000	-1.56719E-006	0.00000E+000	7.00507E-004	-3.27687E+002	7	...........
	388	389	3.22762E+000	-4.86531E-007	0.00000E+000	-1.57034E-006	0.00000E+000	7.04524E-004	-3.27687E+002	7	...........
	389	390	3.22765E+000	-4.86098E-007	0.00000E+000	-1.56895E-006	0.00000E+000	7.01257E-004	-3.27687E+002	7	...........
	390	391	3.22767E+000	-4.86661E-007	0.00000E+000	-1.57078E-006	0.00000E+000	7.03207E-004	-3.27687E+002	7	...........
	391	392	3.22768E+000	-4.85690E-007	0.00000E+000	-1.56765E-006	0.00000E+000	6.99874E-004	-3.27687E+002	7	...........
	392	393	3.22772E+000	-4.85961E-007	0.00000E+000	-1.56854E-006	0.00000E+000	6.99124E-004	-3.27687E+002	7	...........
	393	394	3.22774E+000	-4.84740E-007	0.00000E+000	-1.56461E-006	0.00000E+000	7.00307E-004	-3.27687E+002	7	...........
	394	395	3.22777E+000	-4.85603E-007	0.00000E+000	-1.56741E-006	0.00000E+000	7.05040E-004	-3.27687E+002	7	...........
	395	396	3.22778E+000	-4.85918E-007	0.00000E+000	-1.56844E-006	0.00000E+000	7.03390E-004	-3.27687E+002	7	...........
	396	397	3.22780E+000	-4.85814E-007	0.00000E+000	-1.56811E-006	0.00000E+000	7.00474E-004	-3.27687E+002	7	...........
	397	398	3.22781E+000	-4.85584E-007	0.00000E+000	-1.56737E-006	0.00000E+000	7.00524E-004	-3.27687E+002	7	...........
	398	399	3.22783E+000	-4.85892E-007	0.00000E+000	-1.56838E-006	0.00000E+000	7.02140E-004	-3.27687E+002	7	...........
	399	400	3.22785E+000	-4.85804E-007	0.00000E+000	-1.56810E-006	0.00000E+000	7.00790E-004	-3.27687E+002	7	...........
	400	401	3.22787E+000	-4.86388E-007	0.00000E+000	-1.57000E-006	0.00000E+000	7.01140E-004	-3.27687E+002	7	...........
	401	402	3.22790E+000	-4.85849E-007	0.00000E+000	-1.56827E-006	0.00000E+000	6.99607E-004	-3.27687E+002	7	...........
	402	403	3.22792E+000	-4.86254E-007	0.00000E+000	-1.56959E-006	0.00000E+000	7.03040E-004	-3.27687E+002	7	...........
	403	404	3.22793E+000	-4.86666E-007	0.00000E+000	-1.57093E-006	0.00000E+000	7.01940E-004	-3.27687E+002	7	...........
	404	405	3.22795E+000	-4.86233E-007	0.00000E+000	-1.56954E-006	0.00000E+000	7.01490E-004	-3.27687E+002	7	...........
	405	406	3.22796E+000	-4.86325E-007	0.00000E+000	-1.56984E-006	0.00000E+000	7.04107E-004	-3.27687E+002	7	...........
	406	407	3.22797E+000	-4.86533E-007	0.00000E+000	-1.57051E-006	0.00000E+000	7.02257E-004	-3.27687E+002	7	...........
	407	408	3.22801E+000	-4.85472E-007	0.00000E+000	-1.56711E-006	0.00000E+000	7.03007E-004	-3.27687E+002	7	...........
	408	409	3.22803E+000	-4.85750E-007	0.00000E+000	-1.56802E-006	0.00000E+000	7.01207E-004	-3.27687E+002	7	...........
	409	410	3.22805E+000	-4.86387E-007	0.00000E+000	-1.57008E-006	0.00000E+000	7.05757E-004	-3.27687E+002	7	...........
	410	411	3.22805E+000	-4.86568E-007	0.00000E+000	-1.57067E-006	0.00000E+000	7.03824E-004	-3.27687E+002	7	...........
	411	412	3.22807E+000	-4.86480E-007	0.00000E+000	-1.57039E-006	0.00000E+000	7.02490E-004	-3.27687E+002	7	...........
	412	413	3.22808E+000	-4.86333E-007	0.00000E+000	-1.56992E-006	0.00000E+000	7.02574E-004	-3.27687E+002	7	...........
	413	414	3.22812E+000	-4.86660E-007	0.00000E+000	-1.57099E-006	0.00000E+000	7.02324E-004	-3.27687E+002	7	...........
	414	415	3.22814E+000	-4.86717E-007	0.00000E+000	-1.57119E-006	0.00000E+000	7.03407E-004	-3.27687E+002	7	...........
	415	416	3.22815E+000	-4.86415E-007	0.00000E+000	-1.57022E-006	0.00000E+000	7.02824E-004	-3.27687E+002	7	...........
	416	417	3.22816E+000	-4.87345E-007	0.00000E+000	-1.57323E-006	0.00000E+000	6.98574E-004	-3.27687E+002	7	...........
	417	418	3.22819E+000	-4.87285E-007	0.00000E+000	-1.57305E-006	0.00000E+000	7.00024E-004	-3.27687E+002	7	...........
	418	419	3.22820E+000	-4.87355E-007	0.00000E+000	-1.57328E-006	0.00000E+000	7.03007E-004	-3.27687E+002	7	...........
	419	420	3.22823E+000	-4.86964E-007	0.00000E+000	-1.57203E-006	0.00000E+000	7.01640E-004	-3.27687E+002	7	...........
	420	421	3.22823E+000	-4.86897E-007	0.00000E+000	-1.57182E-006	0.00000E+000	7.02607E-004	-3.27687E+002	7	...........
	421	422	3.22825E+000	-4.86636E-007	0.00000E+000	-1.57098E-006	0.00000E+000	6.98740E-004	-3.27687E+002	7	...........
	422	423	3.22827E+000	-4.86256E-007	0.00000E+000	-1.56977E-006	0.00000E+000	6.98224E-004	-3.27687E+002	7	...........
	423	424	3.22829E+000	-4.86763E-007	0.00000E+000	-1.57141E-006	0.00000E+000	7.03740E-004	-3.27687E+002	7	...........
	424	425	3.22831E+000	-4.86776E-007	0.00000E+000	-1.57146E-006	0.00000E+000	7.03440E-004	-3.27687E+002	7	...........
	425	426	3.22833E+000	-4.86391E-007	0.00000E+000	-1.57023E-006	0.00000E+000	7.00424E-004	-3.27687E+002	7	...........
	426	427	3.22834E+000	-4.86164E-007	0.00000E+000	-1.56950E-006	0.00000E+000	7.00607E-004	-3.27687E+002	7	...........
	427	428	3.22837E+000	-4.86405E-007	0.00000E+000	-1.57029E-006	0.00000E+000	7.00274E-004	-3.27687E+002	7	...........
	428	429	3.22839E+000	-4.86426E-007	0.00000E+000	-1.57037E-006	0.00000E+000	6.99707E-004	-3.27687E+002	7	...........
	429	430	3.22839E+000	-4.86434E-007	0.00000E+000	-1.57040E-006	0.00000E+000	6.97974E-004	-3.27687E+002	7	...........
	430	431	3.22842E+000	-4.86106E-007	0.00000E+000	-1.56935E-006	0.00000E+000	6.98424E-004	-3.27687E+002	7	...........
	431	432	3.22845E+000	-4.86570E-007	0.00000E+000	-1.57087E-006	0.00000E+000	6.95157E-004	-3.27687E+002	7	...........
	432	433	3.22846E+000	-4.86304E-007	0.00000E+000	-1.57001E-006	0.00000E+000	6.99607E-004	-3.27687E+002	7	...........
	433	434	3.22850E+000	-4.85923E-007	0.00000E+000	-1.56880E-006	0.00000E+000	6.98290E-004	-3.27687E+002	7	...........
	434	435	3.22850E+000	-4.86102E-007	0.00000E+000	-1.56938E-006	0.00000E+000	6.98140E-004	-3.27687E+002	7	...........
	435	436	3.22853E+000	-4.85743E-007	0.00000E+000	-1.56824E-006	0.00000E+000	6.98024E-004	-3.27687E+002	7	...........
	436	437	3.22855E+000	-4.85482E-007	0.00000E+000	-1.56740E-006	0.00000E+000	6.99224E-004	-3.27687E+002	7	...........
	437	438	3.22858E+000	-4.86133E-007	0.00000E+000	-1.56952E-006	0.00000E+000	7.00490E-004	-3.27687E+002	7	...........
	438	439	3.22860E+000	-4.86550E-007	0.00000E+000	-1.57088E-006	0.00000E+000	7.00424E-004	-3.27687E+002	7	...........
	439	440	3.22861E+000	-4.86210E-007	0.00000E+000	-1.56978E-006	0.00000E+000	6.99540E-004	-3.27687E+002	7	...........
	440	441	3.22863E+000	-4.86242E-007	0.00000E+000	-1.56990E-006	0.00000E+000	6.94907E-004	-3.27687E+002	7	...........
	441	442	3.22866E+000	-4.86039E-007	0.00000E+000	-1.56926E-006	0.00000E+000	6.99924E-004	-3.27687E+002	7	...........
	442	443	3.22866E+000	-4.86207E-007	0.00000E+000	-1.56980E-006	0.00000E+000	6.98574E-004	-3.27687E+002	7	...........
	443	444	3.22869E+000	-4.86262E-007	0.00000E+000	-1.56999E-006	0.00000E+000	6.97457E-004	-3.27687E+002	7	...........
	444	445	3.22872E+000	-4.86094E-007	0.00000E+000	-1.56946E-006	0.00000E+000	6.97507E-004	-3.27687E+002	7	...........
	445	446	3.22874E+000	-4.86654E-007	0.00000E+000	-1.57128E-006	0.00000E+000	6.99090E-004	-3.27687E+002	7	...........
	446	447	3.22876E+000	-4.86838E-007	0.00000E+000	-1.57188E-006	0.00000E+000	6.97107E-004	-3.27687E+002	7	...........
	447	448	3.22878E+000	-4.86752E-007	0.00000E+000	-1.57162E-006	0.00000E+000	6.98724E-004	-3.27687E+002	7	...........
	448	449	3.22879E+000	-4.86830E-007	0.00000E+000	-1.57187E-006	0.00000E+000	6.94957E-004	-3.27687E+002	7	...........
	449	450	3.22882E+000	-4.86684E-007	0.00000E+000	-1.57141E-006	0.00000E+000	6.97224E-004	-3.27687E+002	7	...........
	450	451	3.22884E+000	-4.85857E-007	0.00000E+000	-1.56876E-006	0.00000E+000	6.96290E-004	-3.27687E+002	7	...........
	451	452	3.22886E+000	-4.86701E-007	0.00000E+000	-1.57149E-006	0.00000E+000	6.95724E-004	-3.27687E+002	7	...........
	452	453	3.22887E+000	-4.87014E-007	0.00000E+000	-1.57250E-006	0.00000E+000	6.94924E-004	-3.27687E+002	7	...........
	453	454	3.22889E+000	-4.86972E-007	0.00000E+000	-1.57238E-006	0.00000E+000	6.98224E-004	-3.27687E+002	7	...........
	454	455	3.22891E+000	-4.86933E-007	0.00000E+000	-1.57226E-006	0.00000E+000	6.98857E-004	-3.27687E+002	7	...........
	455	456	3.22893E+000	-4.86955E-007	0.00000E+000	-1.57234E-006	0.00000E+000	6.98607E-004	-3.27687E+002	7	...........
	456	457	3.22894E+000	-4.86903E-007	0.00000E+000	-1.57218E-006	0.00000E+000	6.96507E-004	-3.27687E+002	7	...........
	457	458	3.22896E+000	-4.87343E-007	0.00000E+000	-1.57361E-006	0.00000E+000	6.97040E-004	-3.27687E+002	7	...........
	458	459	3.22899E+000	-4.87849E-007	0.00000E+000	-1.57526E-006	0.00000E+000	6.99240E-004	-3.27687E+002	7	...........
	459	460	3.22900E+000	-4.87973E-007	0.00000E+000	-1.57566E-006	0.00000E+000	6.96690E-004	-3.27687E+002	7	...........
	460	461	3.22903E+000	-4.88221E-007	0.00000E+000	-1.57648E-006	0.00000E+000	6.93890E-004	-3.27687E+002	7	...........
	461	462	3.22903E+000	-4.88341E-007	0.00000E+000	-1.57687E-006	0.00000E+000	6.97440E-004	-3.27687E+002	7	...........
	462	463	3.22905E+000	-4.88146E-007	0.00000E+000	-1.57625E-006	0.00000E+000	6.95024E-004	-3.27687E+002	7	...........
	463	464	3.22908E+000	-4.88385E-007	0.00000E+000	-1.57703E-006	0.00000E+000	6.97740E-004	-3.27687E+002	7	...........
	464	465	3.22911E+000	-4.87707E-007	0.00000E+000	-1.57486E-006	0.00000E+000	6.97190E-004	-3.27687E+002	7	...........
	465	466	3.22912E+000	-4.87287E-007	0.00000E+000	-1.57351E-006	0.00000E+000	6.96974E-004	-3.27687E+002	7	...........
	466	467	3.22913E+000	-4.88029E-007	0.00000E+000	-1.57591E-006	0.00000E+000	6.95407E-004	-3.27687E+002	7	...........
	467	468	3.22916E+000	-4.87458E-007	0.00000E+000	-1.57408E-006	0.00000E+000	6.96307E-004	-3.27687E+002	7	...........
	468	469	3.22917E+000	-4.87515E-007	0.00000E+000	-1.57427E-006	0.00000E+000	6.93707E-004	-3.27687E+002	7	...........
	469	470	3.22919E+000	-4.87287E-007	0.00000E+000	-1.57354E-006	0.00000E+000	6.93590E-004	-3.27687E+002	7	...........
	470	471	3.22920E+000	-4.87117E-007	0.00000E+000	-1.57300E-006	0.00000E+000	6.95290E-004	-3.27687E+002	7	...........
	471	472	3.22921E+000	-4.87158E-007	0.00000E+000	-1.57314E-006	0.00000E+000	6.94157E-004	-3.27687E+002	7	...........
	472	473	3.22923E+000	-4.86928E-007	0.00000E+000	-1.57240E-006	0.00000E+000	6.93540E-004	-3.27687E+002	7	...........
	473	474	3.22926E+000	-4.87098E-007	0.00000E+000	-1.57296E-006	0.00000E+000	6.96757E-004	-3.27687E+002	7	...........
	474	475	3.22928E+000	-4.87158E-007	0.00000E+000	-1.57317E-006	0.00000E+000	6.93607E-004	-3.27687E+002	7	...........
	475	476	3.22930E+000	-4.87724E-007	0.00000E+000	-1.57501E-006	0.00000E+000	6.95790E-004	-3.27687E+002	7	...........
	476	477	3.22932E+000	-4.87548E-007	0.00000E+000	-1.57445E-006	0.00000E+000	6.96190E-004	-3.27687E+002	7	...........
	477	478	3.22933E+000	-4.87460E-007	0.00000E+000	-1.57417E-006	0.00000E+000	6.91974E-004	-3.27687E+002	7	...........
	478	479	3.22934E+000	-4.87440E-007	0.00000E+000	-1.57411E-006	0.00000E+000	6.91790E-004	-3.27687E+002	7	...........
	479	480	3.22937E+000	-4.87103E-007	0.00000E+000	-1.57304E-006	0.00000E+000	6.92624E-004	-3.27687E+002	7	...........
	480	481	3.22938E+000	-4.87477E-007	0.00000E+000	-1.57425E-006	0.00000E+000	6.94807E-004	-3.27687E+002	7	...........
	481	482	3.22939E+000	-4.87574E-007	0.00000E+000	-1.57457E-006	0.00000E+000	6.97124E-004	-3.27687E+002	7	...........
	482	483	3.22942E+000	-4.87535E-007	0.00000E+000	-1.57446E-006	0.00000E+000	6.93824E-004	-3.27687E+002	7	...........
	483	484	3.22942E+000	-4.87104E-007	0.00000E+000	-1.57307E-006	0.00000E+000	6.95190E-004	-3.27687E+002	7	...........
	484	485	3.22945E+000	-4.87406E-007	0.00000E+000	-1.57405E-006	0.00000E+000	6.93407E-004	-3.27687E+002	7	...........
	485	486	3.22947E+000	-4.86845E-007	0.00000E+000	-1.57225E-006	0.00000E+000	6.92974E-004	-3.27687E+002	7	...........
	486	487	3.22950E+000	-4.87442E-007	0.00000E+000	-1.57419E-006	0.00000E+000	6.93090E-004	-3.27687E+002	7	...........
	487	488	3.22952E+000	-4.87432E-007	0.00000E+000	-1.57417E-006	0.00000E+000	6.93040E-004	-3.27687E+002	7	...........
	488	489	3.22953E+000	-4.87746E-007	0.00000E+000	-1.57519E-006	0.00000E+000	6.93074E-004	-3.27687E+002	7	...........
	489	490	3.22955E+000	-4.87810E-007	0.00000E+000	-1.57541E-006	0.00000E+000	6.93857E-004	-3.27687E+002	7	...........
	490	491	3.22956E+000	-4.88217E-007	0.00000E+000	-1.57673E-006	0.00000E+000	6.96374E-004	-3.27687E+002	7	...........
	491	492	3.22957E+000	-4.87849E-007	0.00000E+000	-1.57554E-006	0.00000E+000	6.93740E-004	-3.27687E+002	7	...........
	492	493	3.22961E+000	-4.87772E-007	0.00000E+000	-1.57532E-006	0.00000E+000	6.93074E-004	-3.27687E+002	7	...........
	493	494	3.22963E+000	-4.87441E-007	0.00000E+000	-1.57425E-006	0.00000E+000	6.93724E-004	-3.27687E+002	7	...........
	494	495	3.22965E+000	-4.87061E-007	0.00000E+000	-1.57303E-006	0.00000E+000	6.93807E-004	-3.27687E+002	7	...........
	495	496	3.22967E+000	-4.87580E-007	0.00000E+000	-1.57472E-006	0.00000E+000	6.92424E-004	-3.27687E+002	7	...........
	496	497	3.22968E+000	-4.87769E-007	0.00000E+000	-1.57534E-006	0.00000E+000	6.93207E-004	-3.27687E+002	7	...........
	497	498	3.22969E+000	-4.87910E-007	0.00000E+000	-1.57580E-006	0.00000E+000	6.93390E-004	-3.27687E+002	7	...........
	498	499	3.22971E+000	-4.87518E-007	0.00000E+000	-1.57454E-006	0.00000E+000	6.93257E-004	-3.27687E+002	7	...........
	499	500	3.22973E+000	-4.87237E-007	0.00000E+000	-1.57365E-006	0.00000E+000	6.91174E-004	-3.27687E+002	7	...........
	500	501	3.22976E+000	-4.87652E-007	0.00000E+000	-1.57500E-006	0.00000E+000	6.92290E-004	-3.27687E+002	7	...........
	501	502	3.22978E+000	-4.87939E-007	0.00000E+000	-1.57594E-006	0.00000E+000	6.92690E-004	-3.27687E+002	7	...........
	502	503	3.22979E+000	-4.88089E-007	0.00000E+000	-1.57642E-006	0.00000E+000	6.91374E-004	-3.27687E+002	7	...........
	503	504	3.22982E+000	-4.88680E-007	0.00000E+000	-1.57835E-006	0.00000E+000	6.93574E-004	-3.27687E+002	7	...........
	504	505	3.22982E+000	-4.88832E-007	0.00000E+000	-1.57884E-006	0.00000E+000	6.90690E-004	-3.27687E+002	7	...........
	505	506	3.22984E+000	-4.89315E-007	0.00000E+000	-1.58041E-006	0.00000E+000	6.90274E-004	-3.27687E+002	7	...........
	506	507	3.22987E+000	-4.88646E-007	0.00000E+000	-1.57826E-006	0.00000E+000	6.88674E-004	-3.27687E+002	7	...........
	507	508	3.22989E+000	-4.88289E-007	0.00000E+000	-1.57712E-006	0.00000E+000	6.88574E-004	-3.27687E+002	7	...........
	508	509	3.22990E+000	-4.87905E-007	0.00000E+000	-1.57589E-006	0.00000E+000	6.90457E-004	-3.27687E+002	7	...........
	509	510	3.22993E+000	-4.88441E-007	0.00000E+000	-1.57763E-006	0.00000E+000	6.91940E-004	-3.27687E+002	7	...........
	510	511	3.22994E+000	-4.88586E-007	0.00000E+000	-1.57811E-006	0.00000E+000	6.92874E-004	-3.27687E+002	7	...........
	511	512	3.22996E+000	-4.88528E-007	0.00000E+000	-1.57793E-006	0.00000E+000	6.90557E-004	-3.27687E+002	7	...........
	512	513	3.22997E+000	-4.88020E-007	0.00000E+000	-1.57629E-006	0.00000E+000	6.90574E-004	-3.27687E+002	7	...........
	513	514	3.23001E+000	-4.88724E-007	0.00000E+000	-1.57858E-006	0.00000E+000	6.91140E-004	-3.27687E+002	7	...........
	514	515	3.23002E+000	-4.88641E-007	0.00000E+000	-1.57832E-006	0.00000E+000	6.92090E-004	-3.27687E+002	7	...........
	515	516	3.23003E+000	-4.89476E-007	0.00000E+000	-1.58102E-006	0.00000E+000	6.91624E-004	-3.27687E+002	7	...........
	516	517	3.23005E+000	-4.89332E-007	0.00000E+000	-1.58056E-006	0.00000E+000	6.92107E-004	-3.27687E+002	7	...........
	517	518	3.23007E+000	-4.89502E-007	0.00000E+000	-1.58112E-006	0.00000E+000	6.88424E-004	-3.27687E+002	7	...........
	518	519	3.23009E+000	-4.89914E-007	0.00000E+000	-1.58247E-006	0.00000E+000	6.89890E-004	-3.27687E+002	7	...........
	519	520	3.23011E+000	-4.89730E-007	0.00000E+000	-1.58188E-006	0.00000E+000	6.91357E-004	-3.27687E+002	7	...........
	520	521	3.23015E+000	-4.89960E-007	0.00000E+000	-1.58264E-006	0.00000E+000	6.91557E-004	-3.27687E+002	7	...........
	521	522	3.23015E+000	-4.89554E-007	0.00000E+000	-1.58133E-006	0.00000E+000	6.91290E-004	-3.27687E+002	7	...........
	522	523	3.23018E+000	-4.89090E-007	0.00000E+000	-1.57985E-006	0.00000E+000	6.91507E-004	-3.27687E+002	7	...........
	523	524	3.23019E+000	-4.88987E-007	0.00000E+000	-1.57952E-006	0.00000E+000	6.89374E-004	-3.27687E+002	7	...........
	524	525	3.23021E+000	-4.89454E-007	0.00000E+000	-1.58104E-006	0.00000E+000	6.89607E-004	-3.27687E+002	7	...........
	525	526	3.23025E+000	-4.89041E-007	0.00000E+000	-1.57973E-006	0.00000E+000	6.90624E-004	-3.27687E+002	7	...........
	526	527	3.23026E+000	-4.88971E-007	0.00000E+000	-1.57950E-006	0.00000E+000	6.88490E-004	-3.27687E+002	7	...........
	527	528	3.23029E+000	-4.88831E-007	0.00000E+000	-1.57907E-006	0.00000E+000	6.91590E-004	-3.27687E+002	7	...........
	528	529	3.23030E+000	-4.88700E-007	0.00000E+000	-1.57865E-006	0.00000E+000	6.92557E-004	-3.27687E+002	7	...........
	529	530	3.23032E+000	-4.88954E-007	0.00000E+000	-1.57948E-006	0.00000E+000	6.92307E-004	-3.27687E+002	7	...........
	530	531	3.23034E+000	-4.89171E-007	0.00000E+000	-1.58019E-006	0.00000E+000	6.91174E-004	-3.27687E+002	7	...........
	531	532	3.23037E+000	-4.89153E-007	0.00000E+000	-1.58015E-006	0.00000E+000	6.93107E-004	-3.27687E+002	7	...........
	532	533	3.23039E+000	-4.89844E-007	0.00000E+000	-1.58239E-006	0.00000E+000	6.91240E-004	-3.27687E+002	7	...........
	533	534	3.23042E+000	-4.90204E-007	0.00000E+000	-1.58356E-006	0.00000E+000	6.90457E-004	-3.27687E+002	7	...........
	534	535	3.23044E+000	-4.89711E-007	0.00000E+000	-1.58198E-006	0.00000E+000	6.94040E-004	-3.27687E+002	7	...........
	535	536	3.23045E+000	-4.89557E-007	0.00000E+000	-1.58149E-006	0.00000E+000	6.93057E-004	-3.27687E+002	7	...........
	536	537	3.23046E+000	-4.90022E-007	0.00000E+000	-1.58300E-006	0.00000E+000	6.94774E-004	-3.27687E+002	7	...........
	537	538	3.23048E+000	-4.89351E-007	0.00000E+000	-1.58084E-006	0.00000E+000	6.95024E-004	-3.27687E+002	7	...........
	538	539	3.23052E+000	-4.89963E-007	0.00000E+000	-1.58284E-006	0.00000E+000	6.93690E-004	-3.27687E+002	7	...........
	539	540	3.23052E+000	-4.90108E-007	0.00000E+000	-1.58330E-006	0.00000E+000	6.94790E-004	-3.27687E+002	7	...........
	540	541	3.23054E+000	-4.90109E-007	0.00000E+000	-1.58332E-006	0.00000E+000	6.95007E-004	-3.27687E+002	7	...........
	541	542	3.23057E+000	-4.89904E-007	0.00000E+000	-1.58267E-006	0.00000E+000	6.96190E-004	-3.27687E+002	7	...........
	542	543	3.23061E+000	-4.89731E-007	0.00000E+000	-1.58213E-006	0.00000E+000	6.94840E-004	-3.27687E+002	7	...........
	543	544	3.23061E+000	-4.90367E-007	0.00000E+000	-1.58419E-006	0.00000E+000	6.95174E-004	-3.27687E+002	7	...........
	544	545	3.23066E+000	-4.90697E-007	0.00000E+000	-1.58527E-006	0.00000E+000	6.98224E-004	-3.27687E+002	7	...........
	545	546	3.23066E+000	-4.91026E-007	0.00000E+000	-1.58634E-006	0.00000E+000	6.97974E-004	-3.27687E+002	7	...........
	546	547	3.23068E+000	-4.91147E-007	0.00000E+000	-1.58674E-006	0.00000E+000	6.98007E-004	-3.27687E+002	7	...........
	547	548	3.23072E+000	-4.91169E-007	0.00000E+000	-1.58683E-006	0.00000E+000	6.99424E-004	-3.27687E+002	7	...........
	548	549	3.23071E+000	-4.91052E-007	0.00000E+000	-1.58645E-006	0.00000E+000	6.99874E-004	-3.27687E+002	7	...........
	549	550	3.23074E+000	-4.91213E-007	0.00000E+000	-1.58698E-006	0.00000E+000	6.98574E-004	-3.27687E+002	7	...........
	550	551	3.23076E+000	-4.90340E-007	0.00000E+000	-1.58417E-006	0.00000E+000	7.01224E-004	-3.27687E+002	7	...........
	551	552	3.23078E+000	-4.89584E-007	0.00000E+000	-1.58174E-006	0.00000E+000	6.97857E-004	-3.27687E+002	7	...........
	552	553	3.23080E+000	-4.90422E-007	0.00000E+000	-1.58446E-006	0.00000E+000	6.99990E-004	-3.27687E+002	7	...........
	553	554	3.23082E+000	-4.90914E-007	0.00000E+000	-1.58606E-006	0.00000E+000	7.00274E-004	-3.27687E+002	7	...........
	554	555	3.23084E+000	-4.90950E-007	0.00000E+000	-1.58618E-006	0.00000E+000	7.00140E-004	-3.27687E+002	7	...........
	555	556	3.23086E+000	-4.90616E-007	0.00000E+000	-1.58511E-006	0.00000E+000	7.00424E-004	-3.27687E+002	7	...........
	556	557	3.23088E+000	-4.90652E-007	0.00000E+000	-1.58524E-006	0.00000E+000	7.00140E-004	-3.27687E+002	7	...........
	557	558	3.23090E+000	-4.91139E-007	0.00000E+000	-1.58682E-006	0.00000E+000	7.00790E-004	-3.27687E+002	7	...........
	558	559	3.23092E+000	-4.90713E-007	0.00000E+000	-1.58545E-006	0.00000E+000	6.99440E-004	-3.27687E+002	7	...........
	559	560	3.23095E+000	-4.90914E-007	0.00000E+000	-1.58612E-006	0.00000E+000	7.00257E-004	-3.27687E+002	7	...........
	560	561	3.23098E+000	-4.91305E-007	0.00000E+000	-1.58740E-006	0.00000E+000	6.98874E-004	-3.27687E+002	7	...........
	561	562	3.23100E+000	-4.91303E-007	0.00000E+000	-1.58740E-006	0.00000E+000	7.02040E-004	-3.27687E+002	7	...........
	562	563	3.23101E+000	-4.91438E-007	0.00000E+000	-1.58784E-006	0.00000E+000	7.00757E-004	-3.27687E+002	7	...........
	563	564	3.23104E+000	-4.91493E-007	0.00000E+000	-1.58804E-006	0.00000E+000	7.01174E-004	-3.27687E+002	7	...........
	564	565	3.23106E+000	-4.91338E-007	0.00000E+000	-1.58754E-006	0.00000E+000	7.01724E-004	-3.27687E+002	7	...........
	565	566	3.23107E+000	-4.91372E-007	0.00000E+000	-1.58766E-006	0.00000E+000	7.02440E-004	-3.27687E+002	7	...........
	566	567	3.23110E+000	-4.90785E-007	0.00000E+000	-1.58578E-006	0.00000E+000	7.04007E-004	-3.27687E+002	7	...........
	567	568	3.23111E+000	-4.91141E-007	0.00000E+000	-1.58693E-006	0.00000E+000	7.01957E-004	-3.27687E+002	7	...........
	568	569	3.23113E+000	-4.91356E-007	0.00000E+000	-1.58764E-006	0.00000E+000	7.04840E-004	-3.27687E+002	7	...........
	569	570	3.23115E+000	-4.90582E-007	0.00000E+000	-1.58515E-006	0.00000E+000	7.04374E-004	-3.27687E+002	7	...........
	570	571	3.23116E+000	-4.90741E-007	0.00000E+000	-1.58566E-006	0.00000E+000	7.07024E-004	-3.27687E+002	7	...........
	571	572	3.23120E+000	-4.90430E-007	0.00000E+000	-1.58467E-006	0.00000E+000	7.07174E-004	-3.27687E+002	7	...........
	572	573	3.23121E+000	-4.90660E-007	0.00000E+000	-1.58543E-006	0.00000E+000	7.04524E-004	-3.27687E+002	7	...........
	573	574	3.23121E+000	-4.90766E-007	0.00000E+000	-1.58577E-006	0.00000E+000	7.04374E-004	-3.27687E+002	7	...........
	574	575	3.23125E+000	-4.91097E-007	0.00000E+000	-1.58686E-006	0.00000E+000	7.06690E-004	-3.27687E+002	7	...........
	575	576	3.23126E+000	-4.91478E-007	0.00000E+000	-1.58809E-006	0.00000E+000	7.07474E-004	-3.27687E+002	7	...........
	576	577	3.23128E+000	-4.91588E-007	0.00000E+000	-1.58846E-006	0.00000E+000	7.08774E-004	-3.27687E+002	7	...........
	577	578	3.23128E+000	-4.91198E-007	0.00000E+000	-1.58720E-006	0.00000E+000	7.08340E-004	-3.27687E+002	7	...........
	578	579	3.23130E+000	-4.91221E-007	0.00000E+000	-1.58728E-006	0.00000E+000	7.06407E-004	-3.27687E+002	7	...........
	579	580	3.23133E+000	-4.90836E-007	0.00000E+000	-1.58605E-006	0.00000E+000	7.05807E-004	-3.27687E+002	7	...........
	580	581	3.23134E+000	-4.90744E-007	0.00000E+000	-1.58576E-006	0.00000E+000	7.08390E-004	-3.27687E+002	7	...........
	581	582	3.23138E+000	-4.91395E-007	0.00000E+000	-1.58789E-006	0.00000E+000	7.09807E-004	-3.27687E+002	7	...........
	582	583	3.23139E+000	-4.92172E-007	0.00000E+000	-1.59040E-006	0.00000E+000	7.08807E-004	-3.27687E+002	7	...........
	583	584	3.23142E+000	-4.91841E-007	0.00000E+000	-1.58935E-006	0.00000E+000	7.08807E-004	-3.27687E+002	7	...........
	584	585	3.23143E+000	-4.91286E-007	0.00000E+000	-1.58756E-006	0.00000E+000	7.07874E-004	-3.27687E+002	7	...........
	585	586	3.23146E+000	-4.90766E-007	0.00000E+000	-1.58589E-006	0.00000E+000	7.08974E-004	-3.27687E+002	7	...........
	586	587	3.23147E+000	-4.90457E-007	0.00000E+000	-1.58490E-006	0.00000E+000	7.07790E-004	-3.27687E+002	7	...........
	587	588	3.23148E+000	-4.90684E-007	0.00000E+000	-1.58564E-006	0.00000E+000	7.07240E-004	-3.27687E+002	7	...........
	588	589	3.23150E+000	-4.90867E-007	0.00000E+000	-1.58624E-006	0.00000E+000	7.09390E-004	-3.27687E+002	7	...........
	589	590	3.23152E+000	-4.90581E-007	0.00000E+000	-1.58532E-006	0.00000E+000	7.09524E-004	-3.27687E+002	7	...........
	590	591	3.23152E+000	-4.90934E-007	0.00000E+000	-1.58646E-006	0.00000E+000	7.08540E-004	-3.27687E+002	7	...........
	591	592	3.23153E+000	-4.91136E-007	0.00000E+000	-1.58712E-006	0.00000E+000	7.07907E-004	-3.27687E+002	7	...........
	592	593	3.23155E+000	-4.91213E-007	0.00000E+000	-1.58738E-006	0.00000E+000	7.06140E-004	-3.27687E+002	7	...........
	593	594	3.23158E+000	-4.90930E-007	0.00000E+000	-1.58648E-006	0.00000E+000	7.10457E-004	-3.27687E+002	7	...........
	594	595	3.23157E+000	-4.90551E-007	0.00000E+000	-1.58525E-006	0.00000E+000	7.09157E-004	-3.27687E+002	7	...........
	595	596	3.23159E+000	-4.90453E-007	0.00000E+000	-1.58495E-006	0.00000E+000	7.09390E-004	-3.27687E+002	7	...........
	596	597	3.23162E+000	-4.90753E-007	0.00000E+000	-1.58593E-006	0.00000E+000	7.08524E-004	-3.27687E+002	7	...........
	597	598	3.23162E+000	-4.90755E-007	0.00000E+000	-1.58594E-006	0.00000E+000	7.12340E-004	-3.27687E+002	7	...........
	598	599	3.23164E+000	-4.90924E-007	0.00000E+000	-1.58649E-006	0.00000E+000	7.11857E-004	-3.27687E+002	7	...........
	599	600	3.23166E+000	-4.90919E-007	0.00000E+000	-1.58648E-006	0.00000E+000	7.09790E-004	-3.27687E+002	7	...........
