EXPLAIN
TAG	PWR800_READVOLTAGE
TITLE	LABEL	PWR Read Voltage	Test Identifier
DATE	LABEL	23.4.2024	Date
TIME	LABEL	2:30:12	Time
NOTES	NOTES	1	Notes...
	
PSTAT	PSTAT	REF600-12055	Potentiostat
CAPACITY	QUANT	1.00000E+000	Capacity (A-hr)
CELLTYPE	SELECTOR	1	Cell Type
WORKINGCONNECTION	SELECTOR	0	Working Connection
MAXTIME	VARIABLEANDUNITS	6.00000E+002	s	6.00000E+002	second(s)	Max Time
SAMPLETIME	QUANT	1.00000E+000	Sample Period (s)
STOPAT1	MULTIPARAM	0	0.00000E+000	Stop At 1	None	N/A
STOPAT2	MULTIPARAM	0	0.00000E+000	Stop At 2	None	N/A
AESBHCSELECTOR	TOGGLE	F	Save Both Half Cells
EOC	QUANT	4.034224	Open Circuit (V)
SEQUENCER	TOGGLE	TRUE	Run as Sequence
PSTATMODEL	IQUANT	4	Pstat Model
PSTATSECTION	LABEL	REF600-12055	Pstat Section
PSTATSERIALNO	LABEL	12055	Pstat Serial Number
CTRLMODE	IQUANT	0	Control Mode
ELECTROMETER	IQUANT	0	RE=0 or CS=1
IESTAB	IQUANT	0	I/E Stability
CASPEED	IQUANT	4	Control Amp Speed
CONVENTION	IQUANT	1	Current Convention
ICHRANGE	IQUANT	2	Ich Range
ICHRANGEMODE	TOGGLE	T	Ich Auto Range
ICHOFFSETENABLE	TOGGLE	F	Ich Offset Enable
ICHOFFSET	QUANT	0	Ich Offset (V)
ICHFILTER	IQUANT	1	Ich Filter
VCHRANGE	IQUANT	3	Vch Range
VCHRANGEMODE	TOGGLE	T	Vch Auto Range
VCHOFFSETENABLE	TOGGLE	F	Vch Offset Enable
VCHOFFSET	QUANT	0	Vch Offset (V)
VCHFILTER	IQUANT	1	Vch Filter
ACHRANGE	IQUANT	2	Ach Range
ACHOFFSETENABLE	TOGGLE	F	Ach Offset Enable
ACHOFFSET	QUANT	0	Ach Offset (V)
ACHFILTER	IQUANT	1	Ach Filter
IERANGELOWERLIMIT	IQUANT	7	I/E Range Lower Limit
IERANGEMODE	TOGGLE	F	I/E AutoRange
IERANGE	IQUANT	11	I/E Range
POSFEEDENABLE	TOGGLE	F	Positive Feedback IR Comp
POSFEEDRESISTANCE	QUANT	0	Positive Feedback Resistance (ohm)
ACHSELECT	IQUANT	4	Ach Select
SENSECABLEID	IQUANT	14	Sense Cable ID
PWRCABLEID	IQUANT	14	Power Cable ID
DCCALDATE	LABEL	2/12/2024	DC Calibration Date
ACCALDATE	LABEL	2/12/2024	AC Calibration Date
THERMOSELECT	IQUANT	1	Thermo Select
FRAMEWORKVERSION	LABEL	7.10.3	Framework Version
INSTRUMENTVERSION	LABEL	4.91	Instrument Version
COMMVERSION	LABEL	2.24	Communications Version
CPUPLDVERSION	LABEL	0.00	CPU PLD Version
CTRLPLDVERSION	LABEL	0.00	CTRL PLD Version
PSTATPLDVERSION	LABEL	0.00	PSTAT PLD Version
CURVE	TABLE	600
	Pt	T	Vf	Im	Vu	Pwr	Sig	Ach	Temp	IERange	Over
	#	s	V	A	V	W	V	V	deg C	#	bits
	0	1	3.92715E+000	1.44861E-006	0.00000E+000	5.68890E-006	0.00000E+000	9.57357E-004	-3.27687E+002	7	...........
	1	2	3.92745E+000	1.44680E-006	0.00000E+000	5.68221E-006	0.00000E+000	9.62374E-004	-3.27687E+002	7	...........
	2	3	3.92767E+000	1.44640E-006	0.00000E+000	5.68099E-006	0.00000E+000	9.63540E-004	-3.27687E+002	7	...........
	3	4	3.92786E+000	1.44619E-006	0.00000E+000	5.68044E-006	0.00000E+000	9.65357E-004	-3.27687E+002	7	...........
	4	5	3.92804E+000	1.44469E-006	0.00000E+000	5.67478E-006	0.00000E+000	9.64924E-004	-3.27687E+002	7	...........
	5	6	3.92820E+000	1.44424E-006	0.00000E+000	5.67325E-006	0.00000E+000	9.62640E-004	-3.27687E+002	7	...........
	6	7	3.92833E+000	1.44326E-006	0.00000E+000	5.66962E-006	0.00000E+000	9.63657E-004	-3.27687E+002	7	...........
	7	8	3.92844E+000	1.44248E-006	0.00000E+000	5.66671E-006	0.00000E+000	9.61790E-004	-3.27687E+002	7	...........
	8	9	3.92854E+000	1.44210E-006	0.00000E+000	5.66536E-006	0.00000E+000	9.62107E-004	-3.27687E+002	7	...........
	9	10	3.92863E+000	1.44189E-006	0.00000E+000	5.66466E-006	0.00000E+000	9.66007E-004	-3.27687E+002	7	...........
	10	11	3.92871E+000	1.44130E-006	0.00000E+000	5.66243E-006	0.00000E+000	9.67457E-004	-3.27687E+002	7	...........
	11	12	3.92878E+000	1.44015E-006	0.00000E+000	5.65804E-006	0.00000E+000	9.66024E-004	-3.27687E+002	7	...........
	12	13	3.92887E+000	1.43918E-006	0.00000E+000	5.65436E-006	0.00000E+000	9.66607E-004	-3.27687E+002	7	...........
	13	14	3.92895E+000	1.43883E-006	0.00000E+000	5.65310E-006	0.00000E+000	9.69140E-004	-3.27687E+002	7	...........
	14	15	3.92903E+000	1.43778E-006	0.00000E+000	5.64908E-006	0.00000E+000	9.69940E-004	-3.27687E+002	7	...........
	15	16	3.92912E+000	1.43697E-006	0.00000E+000	5.64602E-006	0.00000E+000	9.72207E-004	-3.27687E+002	7	...........
	16	17	3.92922E+000	1.43692E-006	0.00000E+000	5.64599E-006	0.00000E+000	9.73840E-004	-3.27687E+002	7	...........
	17	18	3.92931E+000	1.43731E-006	0.00000E+000	5.64764E-006	0.00000E+000	9.74057E-004	-3.27687E+002	7	...........
	18	19	3.92941E+000	1.43543E-006	0.00000E+000	5.64040E-006	0.00000E+000	9.72674E-004	-3.27687E+002	7	...........
	19	20	3.92951E+000	1.43475E-006	0.00000E+000	5.63788E-006	0.00000E+000	9.73724E-004	-3.27687E+002	7	...........
	20	21	3.92961E+000	1.43410E-006	0.00000E+000	5.63547E-006	0.00000E+000	8.02107E-004	-3.27687E+002	7	...........
	21	22	3.92970E+000	1.43419E-006	0.00000E+000	5.63594E-006	0.00000E+000	7.22307E-004	-3.27687E+002	7	...........
	22	23	3.92978E+000	1.43396E-006	0.00000E+000	5.63514E-006	0.00000E+000	7.19240E-004	-3.27687E+002	7	...........
	23	24	3.92987E+000	1.43326E-006	0.00000E+000	5.63252E-006	0.00000E+000	7.16807E-004	-3.27687E+002	7	...........
	24	25	3.92996E+000	1.43231E-006	0.00000E+000	5.62890E-006	0.00000E+000	7.12524E-004	-3.27687E+002	7	...........
	25	26	3.93002E+000	1.43134E-006	0.00000E+000	5.62517E-006	0.00000E+000	7.10140E-004	-3.27687E+002	7	...........
	26	27	3.93008E+000	1.43060E-006	0.00000E+000	5.62239E-006	0.00000E+000	7.12807E-004	-3.27687E+002	7	...........
	27	28	3.93014E+000	1.42997E-006	0.00000E+000	5.61998E-006	0.00000E+000	7.11040E-004	-3.27687E+002	7	...........
	28	29	3.93020E+000	1.43007E-006	0.00000E+000	5.62045E-006	0.00000E+000	7.09890E-004	-3.27687E+002	7	...........
	29	30	3.93025E+000	1.42978E-006	0.00000E+000	5.61941E-006	0.00000E+000	7.08940E-004	-3.27687E+002	7	...........
	30	31	3.93031E+000	1.43006E-006	0.00000E+000	5.62059E-006	0.00000E+000	7.09490E-004	-3.27687E+002	7	...........
	31	32	3.93037E+000	1.42940E-006	0.00000E+000	5.61806E-006	0.00000E+000	7.09724E-004	-3.27687E+002	7	...........
	32	33	3.93042E+000	1.42801E-006	0.00000E+000	5.61269E-006	0.00000E+000	7.11974E-004	-3.27687E+002	7	...........
	33	34	3.93048E+000	1.42816E-006	0.00000E+000	5.61335E-006	0.00000E+000	7.10274E-004	-3.27687E+002	7	...........
	34	35	3.93054E+000	1.42735E-006	0.00000E+000	5.61026E-006	0.00000E+000	7.10440E-004	-3.27687E+002	7	...........
	35	36	3.93058E+000	1.42747E-006	0.00000E+000	5.61079E-006	0.00000E+000	7.13657E-004	-3.27687E+002	7	...........
	36	37	3.93064E+000	1.42732E-006	0.00000E+000	5.61030E-006	0.00000E+000	7.13640E-004	-3.27687E+002	7	...........
	37	38	3.93070E+000	1.42632E-006	0.00000E+000	5.60645E-006	0.00000E+000	7.15807E-004	-3.27687E+002	7	...........
	38	39	3.93075E+000	1.42614E-006	0.00000E+000	5.60579E-006	0.00000E+000	7.16424E-004	-3.27687E+002	7	...........
	39	40	3.93080E+000	1.42510E-006	0.00000E+000	5.60180E-006	0.00000E+000	7.19124E-004	-3.27687E+002	7	...........
	40	41	3.93085E+000	1.42394E-006	0.00000E+000	5.59730E-006	0.00000E+000	7.19624E-004	-3.27687E+002	7	...........
	41	42	3.93090E+000	1.42396E-006	0.00000E+000	5.59746E-006	0.00000E+000	7.20074E-004	-3.27687E+002	7	...........
	42	43	3.93095E+000	1.42408E-006	0.00000E+000	5.59797E-006	0.00000E+000	7.17574E-004	-3.27687E+002	7	...........
	43	44	3.93100E+000	1.42345E-006	0.00000E+000	5.59556E-006	0.00000E+000	7.18657E-004	-3.27687E+002	7	...........
	44	45	3.93105E+000	1.42403E-006	0.00000E+000	5.59792E-006	0.00000E+000	7.19840E-004	-3.27687E+002	7	...........
	45	46	3.93110E+000	1.42321E-006	0.00000E+000	5.59478E-006	0.00000E+000	7.17557E-004	-3.27687E+002	7	...........
	46	47	3.93115E+000	1.42213E-006	0.00000E+000	5.59060E-006	0.00000E+000	7.16257E-004	-3.27687E+002	7	...........
	47	48	3.93120E+000	1.42191E-006	0.00000E+000	5.58981E-006	0.00000E+000	7.15757E-004	-3.27687E+002	7	...........
	48	49	3.93124E+000	1.42173E-006	0.00000E+000	5.58918E-006	0.00000E+000	7.18007E-004	-3.27687E+002	7	...........
	49	50	3.93129E+000	1.42192E-006	0.00000E+000	5.58997E-006	0.00000E+000	7.14040E-004	-3.27687E+002	7	...........
	50	51	3.93133E+000	1.42192E-006	0.00000E+000	5.59003E-006	0.00000E+000	7.14357E-004	-3.27687E+002	7	...........
	51	52	3.93138E+000	1.42132E-006	0.00000E+000	5.58774E-006	0.00000E+000	7.10157E-004	-3.27687E+002	7	...........
	52	53	3.93142E+000	1.42143E-006	0.00000E+000	5.58823E-006	0.00000E+000	7.13057E-004	-3.27687E+002	7	...........
	53	54	3.93146E+000	1.42115E-006	0.00000E+000	5.58718E-006	0.00000E+000	7.10340E-004	-3.27687E+002	7	...........
	54	55	3.93150E+000	1.42059E-006	0.00000E+000	5.58504E-006	0.00000E+000	7.11240E-004	-3.27687E+002	7	...........
	55	56	3.93154E+000	1.42058E-006	0.00000E+000	5.58507E-006	0.00000E+000	7.05790E-004	-3.27687E+002	7	...........
	56	57	3.93157E+000	1.42002E-006	0.00000E+000	5.58291E-006	0.00000E+000	7.09607E-004	-3.27687E+002	7	...........
	57	58	3.93161E+000	1.41938E-006	0.00000E+000	5.58046E-006	0.00000E+000	7.08474E-004	-3.27687E+002	7	...........
	58	59	3.93164E+000	1.42000E-006	0.00000E+000	5.58293E-006	0.00000E+000	7.06774E-004	-3.27687E+002	7	...........
	59	60	3.93168E+000	1.42001E-006	0.00000E+000	5.58303E-006	0.00000E+000	7.06107E-004	-3.27687E+002	7	...........
	60	61	3.93171E+000	1.41958E-006	0.00000E+000	5.58137E-006	0.00000E+000	7.07590E-004	-3.27687E+002	7	...........
	61	62	3.93174E+000	1.41883E-006	0.00000E+000	5.57847E-006	0.00000E+000	7.07890E-004	-3.27687E+002	7	...........
	62	63	3.93177E+000	1.41864E-006	0.00000E+000	5.57778E-006	0.00000E+000	7.05624E-004	-3.27687E+002	7	...........
	63	64	3.93180E+000	1.41918E-006	0.00000E+000	5.57992E-006	0.00000E+000	7.08057E-004	-3.27687E+002	7	...........
	64	65	3.93183E+000	1.41848E-006	0.00000E+000	5.57722E-006	0.00000E+000	7.07424E-004	-3.27687E+002	7	...........
	65	66	3.93186E+000	1.41850E-006	0.00000E+000	5.57737E-006	0.00000E+000	7.06357E-004	-3.27687E+002	7	...........
	66	67	3.93189E+000	1.41740E-006	0.00000E+000	5.57306E-006	0.00000E+000	7.06924E-004	-3.27687E+002	7	...........
	67	68	3.93192E+000	1.41720E-006	0.00000E+000	5.57232E-006	0.00000E+000	7.08374E-004	-3.27687E+002	7	...........
	68	69	3.93196E+000	1.41723E-006	0.00000E+000	5.57250E-006	0.00000E+000	7.09807E-004	-3.27687E+002	7	...........
	69	70	3.93198E+000	1.41705E-006	0.00000E+000	5.57181E-006	0.00000E+000	7.07240E-004	-3.27687E+002	7	...........
	70	71	3.93201E+000	1.41746E-006	0.00000E+000	5.57347E-006	0.00000E+000	7.06507E-004	-3.27687E+002	7	...........
	71	72	3.93204E+000	1.41650E-006	0.00000E+000	5.56974E-006	0.00000E+000	7.05890E-004	-3.27687E+002	7	...........
	72	73	3.93207E+000	1.41671E-006	0.00000E+000	5.57061E-006	0.00000E+000	7.05740E-004	-3.27687E+002	7	...........
	73	74	3.93210E+000	1.41659E-006	0.00000E+000	5.57017E-006	0.00000E+000	7.10807E-004	-3.27687E+002	7	...........
	74	75	3.93213E+000	1.41567E-006	0.00000E+000	5.56659E-006	0.00000E+000	7.09424E-004	-3.27687E+002	7	...........
	75	76	3.93215E+000	1.41533E-006	0.00000E+000	5.56527E-006	0.00000E+000	7.06640E-004	-3.27687E+002	7	...........
	76	77	3.93218E+000	1.41554E-006	0.00000E+000	5.56615E-006	0.00000E+000	7.09957E-004	-3.27687E+002	7	...........
	77	78	3.93221E+000	1.41467E-006	0.00000E+000	5.56279E-006	0.00000E+000	7.12290E-004	-3.27687E+002	7	...........
	78	79	3.93223E+000	1.41523E-006	0.00000E+000	5.56499E-006	0.00000E+000	7.10757E-004	-3.27687E+002	7	...........
	79	80	3.93225E+000	1.41428E-006	0.00000E+000	5.56133E-006	0.00000E+000	7.13707E-004	-3.27687E+002	7	...........
	80	81	3.93227E+000	1.41463E-006	0.00000E+000	5.56271E-006	0.00000E+000	7.12974E-004	-3.27687E+002	7	...........
	81	82	3.93230E+000	1.41394E-006	0.00000E+000	5.56005E-006	0.00000E+000	7.13440E-004	-3.27687E+002	7	...........
	82	83	3.93233E+000	1.41394E-006	0.00000E+000	5.56007E-006	0.00000E+000	7.14224E-004	-3.27687E+002	7	...........
	83	84	3.93236E+000	1.41340E-006	0.00000E+000	5.55799E-006	0.00000E+000	7.15890E-004	-3.27687E+002	7	...........
	84	85	3.93238E+000	1.41303E-006	0.00000E+000	5.55659E-006	0.00000E+000	7.17507E-004	-3.27687E+002	7	...........
	85	86	3.93240E+000	1.41303E-006	0.00000E+000	5.55662E-006	0.00000E+000	7.17357E-004	-3.27687E+002	7	...........
	86	87	3.93243E+000	1.41452E-006	0.00000E+000	5.56251E-006	0.00000E+000	7.15657E-004	-3.27687E+002	7	...........
	87	88	3.93245E+000	1.41478E-006	0.00000E+000	5.56355E-006	0.00000E+000	7.19574E-004	-3.27687E+002	7	...........
	88	89	3.93247E+000	1.41358E-006	0.00000E+000	5.55886E-006	0.00000E+000	7.18240E-004	-3.27687E+002	7	...........
	89	90	3.93252E+000	1.41310E-006	0.00000E+000	5.55704E-006	0.00000E+000	7.19874E-004	-3.27687E+002	7	...........
	90	91	3.93253E+000	1.41339E-006	0.00000E+000	5.55821E-006	0.00000E+000	7.16540E-004	-3.27687E+002	7	...........
	91	92	3.93256E+000	1.41363E-006	0.00000E+000	5.55918E-006	0.00000E+000	7.14990E-004	-3.27687E+002	7	...........
	92	93	3.93259E+000	1.41319E-006	0.00000E+000	5.55748E-006	0.00000E+000	7.19440E-004	-3.27687E+002	7	...........
	93	94	3.93260E+000	1.41354E-006	0.00000E+000	5.55888E-006	0.00000E+000	7.18940E-004	-3.27687E+002	7	...........
	94	95	3.93263E+000	1.41293E-006	0.00000E+000	5.55654E-006	0.00000E+000	7.15674E-004	-3.27687E+002	7	...........
	95	96	3.93265E+000	1.41265E-006	0.00000E+000	5.55544E-006	0.00000E+000	7.17124E-004	-3.27687E+002	7	...........
	96	97	3.93268E+000	1.41166E-006	0.00000E+000	5.55160E-006	0.00000E+000	7.14107E-004	-3.27687E+002	7	...........
	97	98	3.93269E+000	1.41196E-006	0.00000E+000	5.55283E-006	0.00000E+000	7.15590E-004	-3.27687E+002	7	...........
	98	99	3.93273E+000	1.41120E-006	0.00000E+000	5.54986E-006	0.00000E+000	7.15957E-004	-3.27687E+002	7	...........
	99	100	3.93275E+000	1.41119E-006	0.00000E+000	5.54985E-006	0.00000E+000	7.14207E-004	-3.27687E+002	7	...........
	100	101	3.93277E+000	1.41192E-006	0.00000E+000	5.55274E-006	0.00000E+000	7.12574E-004	-3.27687E+002	7	...........
	101	102	3.93280E+000	1.41135E-006	0.00000E+000	5.55056E-006	0.00000E+000	7.13607E-004	-3.27687E+002	7	...........
	102	103	3.93283E+000	1.41134E-006	0.00000E+000	5.55057E-006	0.00000E+000	7.12674E-004	-3.27687E+002	7	...........
	103	104	3.93284E+000	1.41200E-006	0.00000E+000	5.55317E-006	0.00000E+000	7.13690E-004	-3.27687E+002	7	...........
	104	105	3.93287E+000	1.41130E-006	0.00000E+000	5.55044E-006	0.00000E+000	7.10740E-004	-3.27687E+002	7	...........
	105	106	3.93288E+000	1.41137E-006	0.00000E+000	5.55074E-006	0.00000E+000	7.11690E-004	-3.27687E+002	7	...........
	106	107	3.93291E+000	1.41100E-006	0.00000E+000	5.54933E-006	0.00000E+000	7.08357E-004	-3.27687E+002	7	...........
	107	108	3.93294E+000	1.41134E-006	0.00000E+000	5.55070E-006	0.00000E+000	7.11174E-004	-3.27687E+002	7	...........
	108	109	3.93296E+000	1.41013E-006	0.00000E+000	5.54597E-006	0.00000E+000	7.07324E-004	-3.27687E+002	7	...........
	109	110	3.93297E+000	1.40958E-006	0.00000E+000	5.54383E-006	0.00000E+000	7.07807E-004	-3.27687E+002	7	...........
	110	111	3.93299E+000	1.40924E-006	0.00000E+000	5.54251E-006	0.00000E+000	7.06240E-004	-3.27687E+002	7	...........
	111	112	3.93300E+000	1.40932E-006	0.00000E+000	5.54287E-006	0.00000E+000	7.08940E-004	-3.27687E+002	7	...........
	112	113	3.93303E+000	1.40974E-006	0.00000E+000	5.54454E-006	0.00000E+000	7.04307E-004	-3.27687E+002	7	...........
	113	114	3.93305E+000	1.40968E-006	0.00000E+000	5.54432E-006	0.00000E+000	7.02474E-004	-3.27687E+002	7	...........
	114	115	3.93307E+000	1.40995E-006	0.00000E+000	5.54542E-006	0.00000E+000	7.02324E-004	-3.27687E+002	7	...........
	115	116	3.93309E+000	1.41062E-006	0.00000E+000	5.54810E-006	0.00000E+000	7.01790E-004	-3.27687E+002	7	...........
	116	117	3.93310E+000	1.40990E-006	0.00000E+000	5.54528E-006	0.00000E+000	7.05257E-004	-3.27687E+002	7	...........
	117	118	3.93312E+000	1.41037E-006	0.00000E+000	5.54716E-006	0.00000E+000	7.02240E-004	-3.27687E+002	7	...........
	118	119	3.93314E+000	1.40947E-006	0.00000E+000	5.54362E-006	0.00000E+000	6.98674E-004	-3.27687E+002	7	...........
	119	120	3.93315E+000	1.41007E-006	0.00000E+000	5.54602E-006	0.00000E+000	6.99840E-004	-3.27687E+002	7	...........
	120	121	3.93317E+000	1.40966E-006	0.00000E+000	5.54445E-006	0.00000E+000	6.97224E-004	-3.27687E+002	7	...........
	121	122	3.93319E+000	1.41011E-006	0.00000E+000	5.54622E-006	0.00000E+000	6.96524E-004	-3.27687E+002	7	...........
	122	123	3.93321E+000	1.40909E-006	0.00000E+000	5.54226E-006	0.00000E+000	6.98874E-004	-3.27687E+002	7	...........
	123	124	3.93322E+000	1.40900E-006	0.00000E+000	5.54190E-006	0.00000E+000	6.97057E-004	-3.27687E+002	7	...........
	124	125	3.93324E+000	1.40840E-006	0.00000E+000	5.53956E-006	0.00000E+000	6.95374E-004	-3.27687E+002	7	...........
	125	126	3.93326E+000	1.40869E-006	0.00000E+000	5.54075E-006	0.00000E+000	6.91640E-004	-3.27687E+002	7	...........
	126	127	3.93327E+000	1.40875E-006	0.00000E+000	5.54101E-006	0.00000E+000	6.91324E-004	-3.27687E+002	7	...........
	127	128	3.93328E+000	1.40883E-006	0.00000E+000	5.54131E-006	0.00000E+000	6.92807E-004	-3.27687E+002	7	...........
	128	129	3.93329E+000	1.40852E-006	0.00000E+000	5.54013E-006	0.00000E+000	6.91040E-004	-3.27687E+002	7	...........
	129	130	3.93331E+000	1.40890E-006	0.00000E+000	5.54163E-006	0.00000E+000	6.94474E-004	-3.27687E+002	7	...........
	130	131	3.93332E+000	1.40813E-006	0.00000E+000	5.53862E-006	0.00000E+000	6.90474E-004	-3.27687E+002	7	...........
	131	132	3.93333E+000	1.40821E-006	0.00000E+000	5.53896E-006	0.00000E+000	6.92640E-004	-3.27687E+002	7	...........
	132	133	3.93336E+000	1.40820E-006	0.00000E+000	5.53897E-006	0.00000E+000	6.93790E-004	-3.27687E+002	7	...........
	133	134	3.93336E+000	1.40783E-006	0.00000E+000	5.53750E-006	0.00000E+000	6.93740E-004	-3.27687E+002	7	...........
	134	135	3.93338E+000	1.40812E-006	0.00000E+000	5.53869E-006	0.00000E+000	6.90274E-004	-3.27687E+002	7	...........
	135	136	3.93340E+000	1.40806E-006	0.00000E+000	5.53846E-006	0.00000E+000	6.93090E-004	-3.27687E+002	7	...........
	136	137	3.93342E+000	1.40797E-006	0.00000E+000	5.53813E-006	0.00000E+000	6.91357E-004	-3.27687E+002	7	...........
	137	138	3.93342E+000	1.40810E-006	0.00000E+000	5.53863E-006	0.00000E+000	6.88257E-004	-3.27687E+002	7	...........
	138	139	3.93344E+000	1.40731E-006	0.00000E+000	5.53555E-006	0.00000E+000	6.89024E-004	-3.27687E+002	7	...........
	139	140	3.93345E+000	1.40755E-006	0.00000E+000	5.53652E-006	0.00000E+000	6.88124E-004	-3.27687E+002	7	...........
	140	141	3.93345E+000	1.40755E-006	0.00000E+000	5.53652E-006	0.00000E+000	6.88857E-004	-3.27687E+002	7	...........
	141	142	3.93347E+000	1.40765E-006	0.00000E+000	5.53693E-006	0.00000E+000	6.88974E-004	-3.27687E+002	7	...........
	142	143	3.93348E+000	1.40801E-006	0.00000E+000	5.53840E-006	0.00000E+000	6.90257E-004	-3.27687E+002	7	...........
	143	144	3.93350E+000	1.40836E-006	0.00000E+000	5.53977E-006	0.00000E+000	6.86974E-004	-3.27687E+002	7	...........
	144	145	3.93351E+000	1.40751E-006	0.00000E+000	5.53647E-006	0.00000E+000	6.91257E-004	-3.27687E+002	7	...........
	145	146	3.93352E+000	1.40751E-006	0.00000E+000	5.53648E-006	0.00000E+000	6.90974E-004	-3.27687E+002	7	...........
	146	147	3.93353E+000	1.40699E-006	0.00000E+000	5.53445E-006	0.00000E+000	6.88557E-004	-3.27687E+002	7	...........
	147	148	3.93354E+000	1.40710E-006	0.00000E+000	5.53489E-006	0.00000E+000	6.88024E-004	-3.27687E+002	7	...........
	148	149	3.93356E+000	1.40723E-006	0.00000E+000	5.53543E-006	0.00000E+000	6.87757E-004	-3.27687E+002	7	...........
	149	150	3.93357E+000	1.40657E-006	0.00000E+000	5.53285E-006	0.00000E+000	6.87657E-004	-3.27687E+002	7	...........
	150	151	3.93358E+000	1.40605E-006	0.00000E+000	5.53081E-006	0.00000E+000	6.90890E-004	-3.27687E+002	7	...........
	151	152	3.93359E+000	1.40629E-006	0.00000E+000	5.53178E-006	0.00000E+000	6.89590E-004	-3.27687E+002	7	...........
	152	153	3.93360E+000	1.40628E-006	0.00000E+000	5.53173E-006	0.00000E+000	6.89040E-004	-3.27687E+002	7	...........
	153	154	3.93361E+000	1.40618E-006	0.00000E+000	5.53136E-006	0.00000E+000	6.89090E-004	-3.27687E+002	7	...........
	154	155	3.93361E+000	1.40629E-006	0.00000E+000	5.53182E-006	0.00000E+000	6.88840E-004	-3.27687E+002	7	...........
	155	156	3.93364E+000	1.40674E-006	0.00000E+000	5.53362E-006	0.00000E+000	6.89074E-004	-3.27687E+002	7	...........
	156	157	3.93365E+000	1.40654E-006	0.00000E+000	5.53282E-006	0.00000E+000	6.90274E-004	-3.27687E+002	7	...........
	157	158	3.93365E+000	1.40695E-006	0.00000E+000	5.53446E-006	0.00000E+000	6.90540E-004	-3.27687E+002	7	...........
	158	159	3.93366E+000	1.40625E-006	0.00000E+000	5.53172E-006	0.00000E+000	6.85374E-004	-3.27687E+002	7	...........
	159	160	3.93368E+000	1.40590E-006	0.00000E+000	5.53036E-006	0.00000E+000	6.89574E-004	-3.27687E+002	7	...........
	160	161	3.93368E+000	1.40543E-006	0.00000E+000	5.52849E-006	0.00000E+000	6.89274E-004	-3.27687E+002	7	...........
	161	162	3.93369E+000	1.40570E-006	0.00000E+000	5.52958E-006	0.00000E+000	6.90190E-004	-3.27687E+002	7	...........
	162	163	3.93370E+000	1.40563E-006	0.00000E+000	5.52933E-006	0.00000E+000	6.90524E-004	-3.27687E+002	7	...........
	163	164	3.93372E+000	1.40548E-006	0.00000E+000	5.52875E-006	0.00000E+000	6.91474E-004	-3.27687E+002	7	...........
	164	165	3.93373E+000	1.40494E-006	0.00000E+000	5.52663E-006	0.00000E+000	6.92874E-004	-3.27687E+002	7	...........
	165	166	3.93373E+000	1.40514E-006	0.00000E+000	5.52744E-006	0.00000E+000	6.93957E-004	-3.27687E+002	7	...........
	166	167	3.93374E+000	1.40500E-006	0.00000E+000	5.52691E-006	0.00000E+000	6.94574E-004	-3.27687E+002	7	...........
	167	168	3.93376E+000	1.40501E-006	0.00000E+000	5.52696E-006	0.00000E+000	6.94024E-004	-3.27687E+002	7	...........
	168	169	3.93376E+000	1.40472E-006	0.00000E+000	5.52584E-006	0.00000E+000	6.93690E-004	-3.27687E+002	7	...........
	169	170	3.93377E+000	1.40538E-006	0.00000E+000	5.52842E-006	0.00000E+000	6.95040E-004	-3.27687E+002	7	...........
	170	171	3.93378E+000	1.40488E-006	0.00000E+000	5.52649E-006	0.00000E+000	6.94974E-004	-3.27687E+002	7	...........
	171	172	3.93379E+000	1.40509E-006	0.00000E+000	5.52734E-006	0.00000E+000	6.94690E-004	-3.27687E+002	7	...........
	172	173	3.93380E+000	1.40477E-006	0.00000E+000	5.52609E-006	0.00000E+000	6.95040E-004	-3.27687E+002	7	...........
	173	174	3.93381E+000	1.40479E-006	0.00000E+000	5.52620E-006	0.00000E+000	6.95924E-004	-3.27687E+002	7	...........
	174	175	3.93382E+000	1.40532E-006	0.00000E+000	5.52828E-006	0.00000E+000	6.95240E-004	-3.27687E+002	7	...........
	175	176	3.93382E+000	1.40522E-006	0.00000E+000	5.52788E-006	0.00000E+000	6.96257E-004	-3.27687E+002	7	...........
	176	177	3.93383E+000	1.40546E-006	0.00000E+000	5.52883E-006	0.00000E+000	6.97690E-004	-3.27687E+002	7	...........
	177	178	3.93385E+000	1.40509E-006	0.00000E+000	5.52740E-006	0.00000E+000	6.99440E-004	-3.27687E+002	7	...........
	178	179	3.93385E+000	1.40543E-006	0.00000E+000	5.52876E-006	0.00000E+000	6.99774E-004	-3.27687E+002	7	...........
	179	180	3.93386E+000	1.40466E-006	0.00000E+000	5.52573E-006	0.00000E+000	6.98174E-004	-3.27687E+002	7	...........
	180	181	3.93387E+000	1.40491E-006	0.00000E+000	5.52674E-006	0.00000E+000	6.97224E-004	-3.27687E+002	7	...........
	181	182	3.93388E+000	1.40469E-006	0.00000E+000	5.52588E-006	0.00000E+000	7.00574E-004	-3.27687E+002	7	...........
	182	183	3.93389E+000	1.40428E-006	0.00000E+000	5.52430E-006	0.00000E+000	7.01174E-004	-3.27687E+002	7	...........
	183	184	3.93390E+000	1.40405E-006	0.00000E+000	5.52341E-006	0.00000E+000	7.00707E-004	-3.27687E+002	7	...........
	184	185	3.93390E+000	1.40434E-006	0.00000E+000	5.52451E-006	0.00000E+000	6.99307E-004	-3.27687E+002	7	...........
	185	186	3.93391E+000	1.40452E-006	0.00000E+000	5.52526E-006	0.00000E+000	6.99874E-004	-3.27687E+002	7	...........
	186	187	3.93393E+000	1.40358E-006	0.00000E+000	5.52156E-006	0.00000E+000	7.01974E-004	-3.27687E+002	7	...........
	187	188	3.93394E+000	1.40348E-006	0.00000E+000	5.52122E-006	0.00000E+000	6.98974E-004	-3.27687E+002	7	...........
	188	189	3.93394E+000	1.40395E-006	0.00000E+000	5.52306E-006	0.00000E+000	7.02057E-004	-3.27687E+002	7	...........
	189	190	3.93395E+000	1.40386E-006	0.00000E+000	5.52273E-006	0.00000E+000	6.99057E-004	-3.27687E+002	7	...........
	190	191	3.93397E+000	1.40434E-006	0.00000E+000	5.52464E-006	0.00000E+000	7.00340E-004	-3.27687E+002	7	...........
	191	192	3.93397E+000	1.40404E-006	0.00000E+000	5.52344E-006	0.00000E+000	7.01224E-004	-3.27687E+002	7	...........
	192	193	3.93398E+000	1.40378E-006	0.00000E+000	5.52246E-006	0.00000E+000	7.03390E-004	-3.27687E+002	7	...........
	193	194	3.93399E+000	1.40357E-006	0.00000E+000	5.52163E-006	0.00000E+000	7.00207E-004	-3.27687E+002	7	...........
	194	195	3.93400E+000	1.40349E-006	0.00000E+000	5.52132E-006	0.00000E+000	7.04090E-004	-3.27687E+002	7	...........
	195	196	3.93400E+000	1.40315E-006	0.00000E+000	5.52001E-006	0.00000E+000	7.02707E-004	-3.27687E+002	7	...........
	196	197	3.93400E+000	1.40355E-006	0.00000E+000	5.52156E-006	0.00000E+000	7.01607E-004	-3.27687E+002	7	...........
	197	198	3.93401E+000	1.40385E-006	0.00000E+000	5.52277E-006	0.00000E+000	7.05724E-004	-3.27687E+002	7	...........
	198	199	3.93403E+000	1.40424E-006	0.00000E+000	5.52433E-006	0.00000E+000	7.04157E-004	-3.27687E+002	7	...........
	199	200	3.93404E+000	1.40431E-006	0.00000E+000	5.52459E-006	0.00000E+000	7.04374E-004	-3.27687E+002	7	...........
	200	201	3.93404E+000	1.40472E-006	0.00000E+000	5.52621E-006	0.00000E+000	7.04357E-004	-3.27687E+002	7	...........
	201	202	3.93406E+000	1.40315E-006	0.00000E+000	5.52007E-006	0.00000E+000	7.06640E-004	-3.27687E+002	7	...........
	202	203	3.93406E+000	1.40334E-006	0.00000E+000	5.52080E-006	0.00000E+000	7.06340E-004	-3.27687E+002	7	...........
	203	204	3.93406E+000	1.40288E-006	0.00000E+000	5.51900E-006	0.00000E+000	7.07657E-004	-3.27687E+002	7	...........
	204	205	3.93408E+000	1.40421E-006	0.00000E+000	5.52426E-006	0.00000E+000	7.05374E-004	-3.27687E+002	7	...........
	205	206	3.93408E+000	1.40402E-006	0.00000E+000	5.52353E-006	0.00000E+000	7.06324E-004	-3.27687E+002	7	...........
	206	207	3.93409E+000	1.40408E-006	0.00000E+000	5.52377E-006	0.00000E+000	7.06790E-004	-3.27687E+002	7	...........
	207	208	3.93410E+000	1.40400E-006	0.00000E+000	5.52348E-006	0.00000E+000	7.09007E-004	-3.27687E+002	7	...........
	208	209	3.93410E+000	1.40384E-006	0.00000E+000	5.52285E-006	0.00000E+000	7.06557E-004	-3.27687E+002	7	...........
	209	210	3.93411E+000	1.40357E-006	0.00000E+000	5.52180E-006	0.00000E+000	7.09340E-004	-3.27687E+002	7	...........
	210	211	3.93413E+000	1.40310E-006	0.00000E+000	5.51996E-006	0.00000E+000	7.09807E-004	-3.27687E+002	7	...........
	211	212	3.93413E+000	1.40385E-006	0.00000E+000	5.52293E-006	0.00000E+000	7.09524E-004	-3.27687E+002	7	...........
	212	213	3.93414E+000	1.40350E-006	0.00000E+000	5.52158E-006	0.00000E+000	7.10057E-004	-3.27687E+002	7	...........
	213	214	3.93415E+000	1.40349E-006	0.00000E+000	5.52154E-006	0.00000E+000	7.11074E-004	-3.27687E+002	7	...........
	214	215	3.93416E+000	1.40406E-006	0.00000E+000	5.52379E-006	0.00000E+000	7.10607E-004	-3.27687E+002	7	...........
	215	216	3.93417E+000	1.40302E-006	0.00000E+000	5.51971E-006	0.00000E+000	7.10524E-004	-3.27687E+002	7	...........
	216	217	3.93417E+000	1.40311E-006	0.00000E+000	5.52007E-006	0.00000E+000	7.11490E-004	-3.27687E+002	7	...........
	217	218	3.93417E+000	1.40306E-006	0.00000E+000	5.51989E-006	0.00000E+000	7.12674E-004	-3.27687E+002	7	...........
	218	219	3.93419E+000	1.40398E-006	0.00000E+000	5.52352E-006	0.00000E+000	7.11774E-004	-3.27687E+002	7	...........
	219	220	3.93418E+000	1.40378E-006	0.00000E+000	5.52274E-006	0.00000E+000	7.09224E-004	-3.27687E+002	7	...........
	220	221	3.93418E+000	1.40413E-006	0.00000E+000	5.52409E-006	0.00000E+000	7.11590E-004	-3.27687E+002	7	...........
	221	222	3.93420E+000	1.40364E-006	0.00000E+000	5.52220E-006	0.00000E+000	7.10157E-004	-3.27687E+002	7	...........
	222	223	3.93420E+000	1.40306E-006	0.00000E+000	5.51993E-006	0.00000E+000	7.13774E-004	-3.27687E+002	7	...........
	223	224	3.93420E+000	1.40287E-006	0.00000E+000	5.51917E-006	0.00000E+000	7.10774E-004	-3.27687E+002	7	...........
	224	225	3.93422E+000	1.40284E-006	0.00000E+000	5.51910E-006	0.00000E+000	7.13807E-004	-3.27687E+002	7	...........
	225	226	3.93422E+000	1.40284E-006	0.00000E+000	5.51907E-006	0.00000E+000	7.12757E-004	-3.27687E+002	7	...........
	226	227	3.93424E+000	1.40318E-006	0.00000E+000	5.52043E-006	0.00000E+000	7.12374E-004	-3.27687E+002	7	...........
	227	228	3.93424E+000	1.40385E-006	0.00000E+000	5.52308E-006	0.00000E+000	7.12857E-004	-3.27687E+002	7	...........
	228	229	3.93425E+000	1.40390E-006	0.00000E+000	5.52327E-006	0.00000E+000	7.16874E-004	-3.27687E+002	7	...........
	229	230	3.93426E+000	1.40361E-006	0.00000E+000	5.52216E-006	0.00000E+000	7.14324E-004	-3.27687E+002	7	...........
	230	231	3.93427E+000	1.40307E-006	0.00000E+000	5.52005E-006	0.00000E+000	7.11324E-004	-3.27687E+002	7	...........
	231	232	3.93428E+000	1.40266E-006	0.00000E+000	5.51844E-006	0.00000E+000	7.13940E-004	-3.27687E+002	7	...........
	232	233	3.93427E+000	1.40281E-006	0.00000E+000	5.51902E-006	0.00000E+000	7.14274E-004	-3.27687E+002	7	...........
	233	234	3.93429E+000	1.40271E-006	0.00000E+000	5.51867E-006	0.00000E+000	7.11540E-004	-3.27687E+002	7	...........
	234	235	3.93429E+000	1.40323E-006	0.00000E+000	5.52073E-006	0.00000E+000	7.11390E-004	-3.27687E+002	7	...........
	235	236	3.93430E+000	1.40278E-006	0.00000E+000	5.51896E-006	0.00000E+000	7.10440E-004	-3.27687E+002	7	...........
	236	237	3.93429E+000	1.40394E-006	0.00000E+000	5.52350E-006	0.00000E+000	7.12257E-004	-3.27687E+002	7	...........
	237	238	3.93431E+000	1.40318E-006	0.00000E+000	5.52054E-006	0.00000E+000	7.11707E-004	-3.27687E+002	7	...........
	238	239	3.93431E+000	1.40257E-006	0.00000E+000	5.51816E-006	0.00000E+000	7.11874E-004	-3.27687E+002	7	...........
	239	240	3.93433E+000	1.40196E-006	0.00000E+000	5.51577E-006	0.00000E+000	7.10774E-004	-3.27687E+002	7	...........
	240	241	3.93434E+000	1.40246E-006	0.00000E+000	5.51776E-006	0.00000E+000	7.12524E-004	-3.27687E+002	7	...........
	241	242	3.93434E+000	1.40266E-006	0.00000E+000	5.51853E-006	0.00000E+000	7.13807E-004	-3.27687E+002	7	...........
	242	243	3.93434E+000	1.40293E-006	0.00000E+000	5.51961E-006	0.00000E+000	7.12090E-004	-3.27687E+002	7	...........
	243	244	3.93436E+000	1.40228E-006	0.00000E+000	5.51709E-006	0.00000E+000	7.11474E-004	-3.27687E+002	7	...........
	244	245	3.93436E+000	1.40264E-006	0.00000E+000	5.51848E-006	0.00000E+000	7.10824E-004	-3.27687E+002	7	...........
	245	246	3.93436E+000	1.40194E-006	0.00000E+000	5.51575E-006	0.00000E+000	7.11740E-004	-3.27687E+002	7	...........
	246	247	3.93438E+000	1.40267E-006	0.00000E+000	5.51864E-006	0.00000E+000	7.09824E-004	-3.27687E+002	7	...........
	247	248	3.93438E+000	1.40229E-006	0.00000E+000	5.51715E-006	0.00000E+000	7.09357E-004	-3.27687E+002	7	...........
	248	249	3.93439E+000	1.40223E-006	0.00000E+000	5.51691E-006	0.00000E+000	7.11040E-004	-3.27687E+002	7	...........
	249	250	3.93440E+000	1.40211E-006	0.00000E+000	5.51648E-006	0.00000E+000	7.11640E-004	-3.27687E+002	7	...........
	250	251	3.93441E+000	1.40187E-006	0.00000E+000	5.51554E-006	0.00000E+000	7.11757E-004	-3.27687E+002	7	...........
	251	252	3.93441E+000	1.40172E-006	0.00000E+000	5.51492E-006	0.00000E+000	7.08390E-004	-3.27687E+002	7	...........
	252	253	3.93442E+000	1.40106E-006	0.00000E+000	5.51237E-006	0.00000E+000	7.11657E-004	-3.27687E+002	7	...........
	253	254	3.93442E+000	1.40030E-006	0.00000E+000	5.50939E-006	0.00000E+000	7.10290E-004	-3.27687E+002	7	...........
	254	255	3.93443E+000	1.40117E-006	0.00000E+000	5.51282E-006	0.00000E+000	7.13390E-004	-3.27687E+002	7	...........
	255	256	3.93444E+000	1.40141E-006	0.00000E+000	5.51375E-006	0.00000E+000	7.13524E-004	-3.27687E+002	7	...........
	256	257	3.93444E+000	1.40175E-006	0.00000E+000	5.51510E-006	0.00000E+000	7.11657E-004	-3.27687E+002	7	...........
	257	258	3.93444E+000	1.40171E-006	0.00000E+000	5.51493E-006	0.00000E+000	7.14240E-004	-3.27687E+002	7	...........
	258	259	3.93446E+000	1.40165E-006	0.00000E+000	5.51475E-006	0.00000E+000	7.14940E-004	-3.27687E+002	7	...........
	259	260	3.93446E+000	1.40134E-006	0.00000E+000	5.51352E-006	0.00000E+000	7.11990E-004	-3.27687E+002	7	...........
	260	261	3.93447E+000	1.40127E-006	0.00000E+000	5.51325E-006	0.00000E+000	7.11774E-004	-3.27687E+002	7	...........
	261	262	3.93447E+000	1.40174E-006	0.00000E+000	5.51508E-006	0.00000E+000	7.15407E-004	-3.27687E+002	7	...........
	262	263	3.93448E+000	1.40193E-006	0.00000E+000	5.51587E-006	0.00000E+000	7.10890E-004	-3.27687E+002	7	...........
	263	264	3.93448E+000	1.40208E-006	0.00000E+000	5.51646E-006	0.00000E+000	7.11807E-004	-3.27687E+002	7	...........
	264	265	3.93449E+000	1.40116E-006	0.00000E+000	5.51284E-006	0.00000E+000	7.09740E-004	-3.27687E+002	7	...........
	265	266	3.93449E+000	1.40151E-006	0.00000E+000	5.51422E-006	0.00000E+000	7.12624E-004	-3.27687E+002	7	...........
	266	267	3.93450E+000	1.40049E-006	0.00000E+000	5.51023E-006	0.00000E+000	7.09190E-004	-3.27687E+002	7	...........
	267	268	3.93451E+000	1.40038E-006	0.00000E+000	5.50981E-006	0.00000E+000	7.10624E-004	-3.27687E+002	7	...........
	268	269	3.93452E+000	1.40071E-006	0.00000E+000	5.51111E-006	0.00000E+000	7.11857E-004	-3.27687E+002	7	...........
	269	270	3.93452E+000	1.40068E-006	0.00000E+000	5.51101E-006	0.00000E+000	7.14374E-004	-3.27687E+002	7	...........
	270	271	3.93453E+000	1.40162E-006	0.00000E+000	5.51471E-006	0.00000E+000	7.12107E-004	-3.27687E+002	7	...........
	271	272	3.93453E+000	1.40211E-006	0.00000E+000	5.51663E-006	0.00000E+000	7.13557E-004	-3.27687E+002	7	...........
	272	273	3.93454E+000	1.40127E-006	0.00000E+000	5.51336E-006	0.00000E+000	7.10190E-004	-3.27687E+002	7	...........
	273	274	3.93454E+000	1.40097E-006	0.00000E+000	5.51217E-006	0.00000E+000	7.11490E-004	-3.27687E+002	7	...........
	274	275	3.93453E+000	1.40097E-006	0.00000E+000	5.51215E-006	0.00000E+000	7.12540E-004	-3.27687E+002	7	...........
	275	276	3.93455E+000	1.40090E-006	0.00000E+000	5.51190E-006	0.00000E+000	7.12957E-004	-3.27687E+002	7	...........
	276	277	3.93455E+000	1.40156E-006	0.00000E+000	5.51450E-006	0.00000E+000	7.11974E-004	-3.27687E+002	7	...........
	277	278	3.93456E+000	1.40187E-006	0.00000E+000	5.51575E-006	0.00000E+000	7.12557E-004	-3.27687E+002	7	...........
	278	279	3.93456E+000	1.40106E-006	0.00000E+000	5.51257E-006	0.00000E+000	7.11740E-004	-3.27687E+002	7	...........
	279	280	3.93457E+000	1.40048E-006	0.00000E+000	5.51030E-006	0.00000E+000	7.15274E-004	-3.27687E+002	7	...........
	280	281	3.93457E+000	1.40029E-006	0.00000E+000	5.50955E-006	0.00000E+000	7.13040E-004	-3.27687E+002	7	...........
	281	282	3.93458E+000	1.39960E-006	0.00000E+000	5.50685E-006	0.00000E+000	7.07974E-004	-3.27687E+002	7	...........
	282	283	3.93459E+000	1.39999E-006	0.00000E+000	5.50837E-006	0.00000E+000	7.15324E-004	-3.27687E+002	7	...........
	283	284	3.93459E+000	1.40028E-006	0.00000E+000	5.50955E-006	0.00000E+000	7.13107E-004	-3.27687E+002	7	...........
	284	285	3.93460E+000	1.40050E-006	0.00000E+000	5.51043E-006	0.00000E+000	7.12957E-004	-3.27687E+002	7	...........
	285	286	3.93460E+000	1.40167E-006	0.00000E+000	5.51502E-006	0.00000E+000	7.13774E-004	-3.27687E+002	7	...........
	286	287	3.93461E+000	1.40057E-006	0.00000E+000	5.51070E-006	0.00000E+000	7.10240E-004	-3.27687E+002	7	...........
	287	288	3.93462E+000	1.40021E-006	0.00000E+000	5.50928E-006	0.00000E+000	7.12240E-004	-3.27687E+002	7	...........
	288	289	3.93462E+000	1.40003E-006	0.00000E+000	5.50858E-006	0.00000E+000	7.11940E-004	-3.27687E+002	7	...........
	289	290	3.93463E+000	1.39966E-006	0.00000E+000	5.50714E-006	0.00000E+000	7.11157E-004	-3.27687E+002	7	...........
	290	291	3.93464E+000	1.39990E-006	0.00000E+000	5.50809E-006	0.00000E+000	7.10690E-004	-3.27687E+002	7	...........
	291	292	3.93464E+000	1.39964E-006	0.00000E+000	5.50707E-006	0.00000E+000	7.09757E-004	-3.27687E+002	7	...........
	292	293	3.93464E+000	1.39950E-006	0.00000E+000	5.50653E-006	0.00000E+000	7.13540E-004	-3.27687E+002	7	...........
	293	294	3.93464E+000	1.39934E-006	0.00000E+000	5.50592E-006	0.00000E+000	7.11990E-004	-3.27687E+002	7	...........
	294	295	3.93464E+000	1.39911E-006	0.00000E+000	5.50499E-006	0.00000E+000	7.12707E-004	-3.27687E+002	7	...........
	295	296	3.93465E+000	1.39915E-006	0.00000E+000	5.50518E-006	0.00000E+000	7.11957E-004	-3.27687E+002	7	...........
	296	297	3.93467E+000	1.39856E-006	0.00000E+000	5.50287E-006	0.00000E+000	7.11824E-004	-3.27687E+002	7	...........
	297	298	3.93467E+000	1.39866E-006	0.00000E+000	5.50327E-006	0.00000E+000	7.12374E-004	-3.27687E+002	7	...........
	298	299	3.93467E+000	1.39885E-006	0.00000E+000	5.50400E-006	0.00000E+000	7.09540E-004	-3.27687E+002	7	...........
	299	300	3.93467E+000	1.39993E-006	0.00000E+000	5.50827E-006	0.00000E+000	7.13340E-004	-3.27687E+002	7	...........
	300	301	3.93468E+000	1.39937E-006	0.00000E+000	5.50606E-006	0.00000E+000	7.14424E-004	-3.27687E+002	7	...........
	301	302	3.93467E+000	1.39954E-006	0.00000E+000	5.50674E-006	0.00000E+000	7.12024E-004	-3.27687E+002	7	...........
	302	303	3.93468E+000	1.39953E-006	0.00000E+000	5.50671E-006	0.00000E+000	7.13874E-004	-3.27687E+002	7	...........
	303	304	3.93468E+000	1.39947E-006	0.00000E+000	5.50647E-006	0.00000E+000	7.12690E-004	-3.27687E+002	7	...........
	304	305	3.93469E+000	1.39966E-006	0.00000E+000	5.50722E-006	0.00000E+000	7.15174E-004	-3.27687E+002	7	...........
	305	306	3.93470E+000	1.39975E-006	0.00000E+000	5.50760E-006	0.00000E+000	7.12224E-004	-3.27687E+002	7	...........
	306	307	3.93470E+000	1.39954E-006	0.00000E+000	5.50676E-006	0.00000E+000	7.15107E-004	-3.27687E+002	7	...........
	307	308	3.93470E+000	1.39919E-006	0.00000E+000	5.50540E-006	0.00000E+000	7.15090E-004	-3.27687E+002	7	...........
	308	309	3.93471E+000	1.39885E-006	0.00000E+000	5.50407E-006	0.00000E+000	7.11440E-004	-3.27687E+002	7	...........
	309	310	3.93472E+000	1.39820E-006	0.00000E+000	5.50152E-006	0.00000E+000	7.10290E-004	-3.27687E+002	7	...........
	310	311	3.93472E+000	1.39866E-006	0.00000E+000	5.50335E-006	0.00000E+000	7.14157E-004	-3.27687E+002	7	...........
	311	312	3.93472E+000	1.39874E-006	0.00000E+000	5.50366E-006	0.00000E+000	7.14974E-004	-3.27687E+002	7	...........
	312	313	3.93473E+000	1.39867E-006	0.00000E+000	5.50339E-006	0.00000E+000	7.12207E-004	-3.27687E+002	7	...........
	313	314	3.93474E+000	1.39899E-006	0.00000E+000	5.50466E-006	0.00000E+000	7.12590E-004	-3.27687E+002	7	...........
	314	315	3.93474E+000	1.39937E-006	0.00000E+000	5.50617E-006	0.00000E+000	7.14040E-004	-3.27687E+002	7	...........
	315	316	3.93474E+000	1.39888E-006	0.00000E+000	5.50423E-006	0.00000E+000	7.13357E-004	-3.27687E+002	7	...........
	316	317	3.93475E+000	1.39852E-006	0.00000E+000	5.50284E-006	0.00000E+000	7.14824E-004	-3.27687E+002	7	...........
	317	318	3.93476E+000	1.39844E-006	0.00000E+000	5.50252E-006	0.00000E+000	7.11657E-004	-3.27687E+002	7	...........
	318	319	3.93476E+000	1.39926E-006	0.00000E+000	5.50576E-006	0.00000E+000	7.12640E-004	-3.27687E+002	7	...........
	319	320	3.93476E+000	1.39874E-006	0.00000E+000	5.50372E-006	0.00000E+000	7.11024E-004	-3.27687E+002	7	...........
	320	321	3.93477E+000	1.39952E-006	0.00000E+000	5.50679E-006	0.00000E+000	7.12740E-004	-3.27687E+002	7	...........
	321	322	3.93477E+000	1.39860E-006	0.00000E+000	5.50315E-006	0.00000E+000	7.12790E-004	-3.27687E+002	7	...........
	322	323	3.93477E+000	1.39829E-006	0.00000E+000	5.50193E-006	0.00000E+000	7.13224E-004	-3.27687E+002	7	...........
	323	324	3.93477E+000	1.39792E-006	0.00000E+000	5.50051E-006	0.00000E+000	7.10790E-004	-3.27687E+002	7	...........
	324	325	3.93478E+000	1.39796E-006	0.00000E+000	5.50066E-006	0.00000E+000	7.11674E-004	-3.27687E+002	7	...........
	325	326	3.93478E+000	1.39730E-006	0.00000E+000	5.49807E-006	0.00000E+000	7.12024E-004	-3.27687E+002	7	...........
	326	327	3.93478E+000	1.39706E-006	0.00000E+000	5.49713E-006	0.00000E+000	7.11707E-004	-3.27687E+002	7	...........
	327	328	3.93479E+000	1.39717E-006	0.00000E+000	5.49757E-006	0.00000E+000	7.12090E-004	-3.27687E+002	7	...........
	328	329	3.93479E+000	1.39743E-006	0.00000E+000	5.49858E-006	0.00000E+000	7.12424E-004	-3.27687E+002	7	...........
	329	330	3.93480E+000	1.39692E-006	0.00000E+000	5.49659E-006	0.00000E+000	7.10557E-004	-3.27687E+002	7	...........
	330	331	3.93480E+000	1.39751E-006	0.00000E+000	5.49891E-006	0.00000E+000	7.11840E-004	-3.27687E+002	7	...........
	331	332	3.93480E+000	1.39749E-006	0.00000E+000	5.49885E-006	0.00000E+000	7.10524E-004	-3.27687E+002	7	...........
	332	333	3.93481E+000	1.39774E-006	0.00000E+000	5.49982E-006	0.00000E+000	7.12907E-004	-3.27687E+002	7	...........
	333	334	3.93481E+000	1.39755E-006	0.00000E+000	5.49911E-006	0.00000E+000	7.09624E-004	-3.27687E+002	7	...........
	334	335	3.93481E+000	1.39753E-006	0.00000E+000	5.49902E-006	0.00000E+000	7.10824E-004	-3.27687E+002	7	...........
	335	336	3.93481E+000	1.39695E-006	0.00000E+000	5.49675E-006	0.00000E+000	7.11474E-004	-3.27687E+002	7	...........
	336	337	3.93482E+000	1.39701E-006	0.00000E+000	5.49700E-006	0.00000E+000	7.10074E-004	-3.27687E+002	7	...........
	337	338	3.93483E+000	1.39681E-006	0.00000E+000	5.49621E-006	0.00000E+000	7.11457E-004	-3.27687E+002	7	...........
	338	339	3.93483E+000	1.39690E-006	0.00000E+000	5.49654E-006	0.00000E+000	7.12507E-004	-3.27687E+002	7	...........
	339	340	3.93484E+000	1.39647E-006	0.00000E+000	5.49489E-006	0.00000E+000	7.12490E-004	-3.27687E+002	7	...........
	340	341	3.93483E+000	1.39745E-006	0.00000E+000	5.49875E-006	0.00000E+000	7.14357E-004	-3.27687E+002	7	...........
	341	342	3.93484E+000	1.39770E-006	0.00000E+000	5.49972E-006	0.00000E+000	7.13074E-004	-3.27687E+002	7	...........
	342	343	3.93485E+000	1.39882E-006	0.00000E+000	5.50414E-006	0.00000E+000	7.12940E-004	-3.27687E+002	7	...........
	343	344	3.93485E+000	1.39874E-006	0.00000E+000	5.50385E-006	0.00000E+000	7.13790E-004	-3.27687E+002	7	...........
	344	345	3.93485E+000	1.39806E-006	0.00000E+000	5.50117E-006	0.00000E+000	7.12707E-004	-3.27687E+002	7	...........
	345	346	3.93485E+000	1.39745E-006	0.00000E+000	5.49876E-006	0.00000E+000	7.12657E-004	-3.27687E+002	7	...........
	346	347	3.93486E+000	1.39751E-006	0.00000E+000	5.49900E-006	0.00000E+000	7.12474E-004	-3.27687E+002	7	...........
	347	348	3.93487E+000	1.39747E-006	0.00000E+000	5.49884E-006	0.00000E+000	7.11274E-004	-3.27687E+002	7	...........
	348	349	3.93487E+000	1.39798E-006	0.00000E+000	5.50088E-006	0.00000E+000	7.11607E-004	-3.27687E+002	7	...........
	349	350	3.93487E+000	1.39727E-006	0.00000E+000	5.49807E-006	0.00000E+000	7.12440E-004	-3.27687E+002	7	...........
	350	351	3.93488E+000	1.39659E-006	0.00000E+000	5.49540E-006	0.00000E+000	7.10990E-004	-3.27687E+002	7	...........
	351	352	3.93488E+000	1.39571E-006	0.00000E+000	5.49194E-006	0.00000E+000	7.11257E-004	-3.27687E+002	7	...........
	352	353	3.93488E+000	1.39598E-006	0.00000E+000	5.49300E-006	0.00000E+000	7.13124E-004	-3.27687E+002	7	...........
	353	354	3.93487E+000	1.39535E-006	0.00000E+000	5.49052E-006	0.00000E+000	7.13107E-004	-3.27687E+002	7	...........
	354	355	3.93488E+000	1.39596E-006	0.00000E+000	5.49293E-006	0.00000E+000	7.10107E-004	-3.27687E+002	7	...........
	355	356	3.93489E+000	1.39597E-006	0.00000E+000	5.49300E-006	0.00000E+000	7.11090E-004	-3.27687E+002	7	...........
	356	357	3.93489E+000	1.39687E-006	0.00000E+000	5.49655E-006	0.00000E+000	7.10340E-004	-3.27687E+002	7	...........
	357	358	3.93489E+000	1.39659E-006	0.00000E+000	5.49544E-006	0.00000E+000	7.14007E-004	-3.27687E+002	7	...........
	358	359	3.93490E+000	1.39549E-006	0.00000E+000	5.49111E-006	0.00000E+000	7.11274E-004	-3.27687E+002	7	...........
	359	360	3.93490E+000	1.39551E-006	0.00000E+000	5.49119E-006	0.00000E+000	7.10357E-004	-3.27687E+002	7	...........
	360	361	3.93490E+000	1.39588E-006	0.00000E+000	5.49264E-006	0.00000E+000	7.10924E-004	-3.27687E+002	7	...........
	361	362	3.93491E+000	1.39595E-006	0.00000E+000	5.49293E-006	0.00000E+000	7.11574E-004	-3.27687E+002	7	...........
	362	363	3.93490E+000	1.39586E-006	0.00000E+000	5.49256E-006	0.00000E+000	7.11357E-004	-3.27687E+002	7	...........
	363	364	3.93491E+000	1.39603E-006	0.00000E+000	5.49327E-006	0.00000E+000	7.10757E-004	-3.27687E+002	7	...........
	364	365	3.93492E+000	1.39697E-006	0.00000E+000	5.49696E-006	0.00000E+000	7.11124E-004	-3.27687E+002	7	...........
	365	366	3.93491E+000	1.39659E-006	0.00000E+000	5.49545E-006	0.00000E+000	7.11924E-004	-3.27687E+002	7	...........
	366	367	3.93491E+000	1.39641E-006	0.00000E+000	5.49476E-006	0.00000E+000	7.15357E-004	-3.27687E+002	7	...........
	367	368	3.93492E+000	1.39661E-006	0.00000E+000	5.49555E-006	0.00000E+000	7.12440E-004	-3.27687E+002	7	...........
	368	369	3.93492E+000	1.39595E-006	0.00000E+000	5.49294E-006	0.00000E+000	7.11257E-004	-3.27687E+002	7	...........
	369	370	3.93493E+000	1.39706E-006	0.00000E+000	5.49732E-006	0.00000E+000	7.12307E-004	-3.27687E+002	7	...........
	370	371	3.93493E+000	1.39749E-006	0.00000E+000	5.49901E-006	0.00000E+000	7.10440E-004	-3.27687E+002	7	...........
	371	372	3.93493E+000	1.39770E-006	0.00000E+000	5.49986E-006	0.00000E+000	7.09090E-004	-3.27687E+002	7	...........
	372	373	3.93493E+000	1.39696E-006	0.00000E+000	5.49694E-006	0.00000E+000	7.11524E-004	-3.27687E+002	7	...........
	373	374	3.93494E+000	1.39677E-006	0.00000E+000	5.49620E-006	0.00000E+000	7.12507E-004	-3.27687E+002	7	...........
	374	375	3.93494E+000	1.39607E-006	0.00000E+000	5.49347E-006	0.00000E+000	7.12607E-004	-3.27687E+002	7	...........
	375	376	3.93495E+000	1.39677E-006	0.00000E+000	5.49622E-006	0.00000E+000	7.13024E-004	-3.27687E+002	7	...........
	376	377	3.93494E+000	1.39622E-006	0.00000E+000	5.49406E-006	0.00000E+000	7.12140E-004	-3.27687E+002	7	...........
	377	378	3.93495E+000	1.39617E-006	0.00000E+000	5.49387E-006	0.00000E+000	7.08574E-004	-3.27687E+002	7	...........
	378	379	3.93495E+000	1.39679E-006	0.00000E+000	5.49628E-006	0.00000E+000	7.13207E-004	-3.27687E+002	7	...........
	379	380	3.93495E+000	1.39623E-006	0.00000E+000	5.49410E-006	0.00000E+000	7.09190E-004	-3.27687E+002	7	...........
	380	381	3.93495E+000	1.39665E-006	0.00000E+000	5.49574E-006	0.00000E+000	7.12190E-004	-3.27687E+002	7	...........
	381	382	3.93494E+000	1.39594E-006	0.00000E+000	5.49296E-006	0.00000E+000	7.16807E-004	-3.27687E+002	7	...........
	382	383	3.93496E+000	1.39597E-006	0.00000E+000	5.49308E-006	0.00000E+000	7.14274E-004	-3.27687E+002	7	...........
	383	384	3.93496E+000	1.39541E-006	0.00000E+000	5.49090E-006	0.00000E+000	7.12840E-004	-3.27687E+002	7	...........
	384	385	3.93496E+000	1.39535E-006	0.00000E+000	5.49067E-006	0.00000E+000	7.15890E-004	-3.27687E+002	7	...........
	385	386	3.93497E+000	1.39563E-006	0.00000E+000	5.49176E-006	0.00000E+000	7.15240E-004	-3.27687E+002	7	...........
	386	387	3.93498E+000	1.39642E-006	0.00000E+000	5.49488E-006	0.00000E+000	7.13757E-004	-3.27687E+002	7	...........
	387	388	3.93498E+000	1.39585E-006	0.00000E+000	5.49262E-006	0.00000E+000	7.13924E-004	-3.27687E+002	7	...........
	388	389	3.93498E+000	1.39548E-006	0.00000E+000	5.49120E-006	0.00000E+000	7.13924E-004	-3.27687E+002	7	...........
	389	390	3.93498E+000	1.39535E-006	0.00000E+000	5.49069E-006	0.00000E+000	7.13940E-004	-3.27687E+002	7	...........
	390	391	3.93498E+000	1.39556E-006	0.00000E+000	5.49152E-006	0.00000E+000	7.11990E-004	-3.27687E+002	7	...........
	391	392	3.93499E+000	1.39512E-006	0.00000E+000	5.48979E-006	0.00000E+000	7.15940E-004	-3.27687E+002	7	...........
	392	393	3.93499E+000	1.39539E-006	0.00000E+000	5.49083E-006	0.00000E+000	7.13374E-004	-3.27687E+002	7	...........
	393	394	3.93499E+000	1.39576E-006	0.00000E+000	5.49230E-006	0.00000E+000	7.14907E-004	-3.27687E+002	7	...........
	394	395	3.93500E+000	1.39536E-006	0.00000E+000	5.49072E-006	0.00000E+000	7.12940E-004	-3.27687E+002	7	...........
	395	396	3.93500E+000	1.39568E-006	0.00000E+000	5.49201E-006	0.00000E+000	7.12890E-004	-3.27687E+002	7	...........
	396	397	3.93501E+000	1.39531E-006	0.00000E+000	5.49054E-006	0.00000E+000	7.12040E-004	-3.27687E+002	7	...........
	397	398	3.93501E+000	1.39510E-006	0.00000E+000	5.48974E-006	0.00000E+000	7.15340E-004	-3.27687E+002	7	...........
	398	399	3.93501E+000	1.39496E-006	0.00000E+000	5.48917E-006	0.00000E+000	7.15057E-004	-3.27687E+002	7	...........
	399	400	3.93501E+000	1.39498E-006	0.00000E+000	5.48927E-006	0.00000E+000	7.16590E-004	-3.27687E+002	7	...........
	400	401	3.93501E+000	1.39598E-006	0.00000E+000	5.49320E-006	0.00000E+000	7.12274E-004	-3.27687E+002	7	...........
	401	402	3.93502E+000	1.39555E-006	0.00000E+000	5.49150E-006	0.00000E+000	7.15457E-004	-3.27687E+002	7	...........
	402	403	3.93502E+000	1.39489E-006	0.00000E+000	5.48891E-006	0.00000E+000	7.12207E-004	-3.27687E+002	7	...........
	403	404	3.93502E+000	1.39421E-006	0.00000E+000	5.48626E-006	0.00000E+000	7.11407E-004	-3.27687E+002	7	...........
	404	405	3.93502E+000	1.39437E-006	0.00000E+000	5.48687E-006	0.00000E+000	7.15440E-004	-3.27687E+002	7	...........
	405	406	3.93502E+000	1.39468E-006	0.00000E+000	5.48809E-006	0.00000E+000	7.13257E-004	-3.27687E+002	7	...........
	406	407	3.93503E+000	1.39523E-006	0.00000E+000	5.49028E-006	0.00000E+000	7.13507E-004	-3.27687E+002	7	...........
	407	408	3.93504E+000	1.39512E-006	0.00000E+000	5.48986E-006	0.00000E+000	7.15624E-004	-3.27687E+002	7	...........
	408	409	3.93504E+000	1.39442E-006	0.00000E+000	5.48711E-006	0.00000E+000	7.13924E-004	-3.27687E+002	7	...........
	409	410	3.93504E+000	1.39454E-006	0.00000E+000	5.48756E-006	0.00000E+000	7.15874E-004	-3.27687E+002	7	...........
	410	411	3.93505E+000	1.39486E-006	0.00000E+000	5.48884E-006	0.00000E+000	7.11607E-004	-3.27687E+002	7	...........
	411	412	3.93505E+000	1.39471E-006	0.00000E+000	5.48823E-006	0.00000E+000	7.11724E-004	-3.27687E+002	7	...........
	412	413	3.93504E+000	1.39513E-006	0.00000E+000	5.48990E-006	0.00000E+000	7.10690E-004	-3.27687E+002	7	...........
	413	414	3.93504E+000	1.39485E-006	0.00000E+000	5.48879E-006	0.00000E+000	7.10507E-004	-3.27687E+002	7	...........
	414	415	3.93504E+000	1.39547E-006	0.00000E+000	5.49123E-006	0.00000E+000	7.15324E-004	-3.27687E+002	7	...........
	415	416	3.93505E+000	1.39532E-006	0.00000E+000	5.49065E-006	0.00000E+000	7.15407E-004	-3.27687E+002	7	...........
	416	417	3.93505E+000	1.39430E-006	0.00000E+000	5.48665E-006	0.00000E+000	7.12174E-004	-3.27687E+002	7	...........
	417	418	3.93506E+000	1.39412E-006	0.00000E+000	5.48594E-006	0.00000E+000	7.12157E-004	-3.27687E+002	7	...........
	418	419	3.93506E+000	1.39505E-006	0.00000E+000	5.48961E-006	0.00000E+000	7.11357E-004	-3.27687E+002	7	...........
	419	420	3.93506E+000	1.39529E-006	0.00000E+000	5.49055E-006	0.00000E+000	7.13607E-004	-3.27687E+002	7	...........
	420	421	3.93506E+000	1.39543E-006	0.00000E+000	5.49112E-006	0.00000E+000	7.14724E-004	-3.27687E+002	7	...........
	421	422	3.93507E+000	1.39575E-006	0.00000E+000	5.49238E-006	0.00000E+000	7.16240E-004	-3.27687E+002	7	...........
	422	423	3.93506E+000	1.39529E-006	0.00000E+000	5.49054E-006	0.00000E+000	7.14474E-004	-3.27687E+002	7	...........
	423	424	3.93507E+000	1.39493E-006	0.00000E+000	5.48916E-006	0.00000E+000	7.14990E-004	-3.27687E+002	7	...........
	424	425	3.93508E+000	1.39489E-006	0.00000E+000	5.48898E-006	0.00000E+000	7.12624E-004	-3.27687E+002	7	...........
	425	426	3.93507E+000	1.39445E-006	0.00000E+000	5.48728E-006	0.00000E+000	7.16557E-004	-3.27687E+002	7	...........
	426	427	3.93508E+000	1.39475E-006	0.00000E+000	5.48845E-006	0.00000E+000	7.16340E-004	-3.27687E+002	7	...........
	427	428	3.93507E+000	1.39437E-006	0.00000E+000	5.48697E-006	0.00000E+000	7.13974E-004	-3.27687E+002	7	...........
	428	429	3.93508E+000	1.39434E-006	0.00000E+000	5.48684E-006	0.00000E+000	7.14674E-004	-3.27687E+002	7	...........
	429	430	3.93508E+000	1.39505E-006	0.00000E+000	5.48962E-006	0.00000E+000	7.13390E-004	-3.27687E+002	7	...........
	430	431	3.93508E+000	1.39495E-006	0.00000E+000	5.48926E-006	0.00000E+000	7.13624E-004	-3.27687E+002	7	...........
	431	432	3.93509E+000	1.39415E-006	0.00000E+000	5.48608E-006	0.00000E+000	7.16190E-004	-3.27687E+002	7	...........
	432	433	3.93509E+000	1.39392E-006	0.00000E+000	5.48521E-006	0.00000E+000	7.12457E-004	-3.27687E+002	7	...........
	433	434	3.93510E+000	1.39420E-006	0.00000E+000	5.48630E-006	0.00000E+000	7.14740E-004	-3.27687E+002	7	...........
	434	435	3.93510E+000	1.39465E-006	0.00000E+000	5.48810E-006	0.00000E+000	7.14640E-004	-3.27687E+002	7	...........
	435	436	3.93510E+000	1.39472E-006	0.00000E+000	5.48838E-006	0.00000E+000	7.16024E-004	-3.27687E+002	7	...........
	436	437	3.93510E+000	1.39476E-006	0.00000E+000	5.48853E-006	0.00000E+000	7.17207E-004	-3.27687E+002	7	...........
	437	438	3.93510E+000	1.39474E-006	0.00000E+000	5.48846E-006	0.00000E+000	7.14657E-004	-3.27687E+002	7	...........
	438	439	3.93511E+000	1.39446E-006	0.00000E+000	5.48736E-006	0.00000E+000	7.17074E-004	-3.27687E+002	7	...........
	439	440	3.93511E+000	1.39437E-006	0.00000E+000	5.48701E-006	0.00000E+000	7.16124E-004	-3.27687E+002	7	...........
	440	441	3.93511E+000	1.39377E-006	0.00000E+000	5.48462E-006	0.00000E+000	7.17190E-004	-3.27687E+002	7	...........
	441	442	3.93512E+000	1.39386E-006	0.00000E+000	5.48502E-006	0.00000E+000	7.13590E-004	-3.27687E+002	7	...........
	442	443	3.93511E+000	1.39398E-006	0.00000E+000	5.48548E-006	0.00000E+000	7.14207E-004	-3.27687E+002	7	...........
	443	444	3.93512E+000	1.39398E-006	0.00000E+000	5.48549E-006	0.00000E+000	7.16607E-004	-3.27687E+002	7	...........
	444	445	3.93512E+000	1.39526E-006	0.00000E+000	5.49053E-006	0.00000E+000	7.16957E-004	-3.27687E+002	7	...........
	445	446	3.93513E+000	1.39446E-006	0.00000E+000	5.48738E-006	0.00000E+000	7.17440E-004	-3.27687E+002	7	...........
	446	447	3.93512E+000	1.39424E-006	0.00000E+000	5.48651E-006	0.00000E+000	7.17007E-004	-3.27687E+002	7	...........
	447	448	3.93512E+000	1.39490E-006	0.00000E+000	5.48912E-006	0.00000E+000	7.14490E-004	-3.27687E+002	7	...........
	448	449	3.93513E+000	1.39497E-006	0.00000E+000	5.48937E-006	0.00000E+000	7.16257E-004	-3.27687E+002	7	...........
	449	450	3.93513E+000	1.39461E-006	0.00000E+000	5.48797E-006	0.00000E+000	7.14974E-004	-3.27687E+002	7	...........
	450	451	3.93513E+000	1.39465E-006	0.00000E+000	5.48812E-006	0.00000E+000	7.16474E-004	-3.27687E+002	7	...........
	451	452	3.93514E+000	1.39460E-006	0.00000E+000	5.48796E-006	0.00000E+000	7.15607E-004	-3.27687E+002	7	...........
	452	453	3.93514E+000	1.39426E-006	0.00000E+000	5.48660E-006	0.00000E+000	7.14524E-004	-3.27687E+002	7	...........
	453	454	3.93515E+000	1.39386E-006	0.00000E+000	5.48505E-006	0.00000E+000	7.18240E-004	-3.27687E+002	7	...........
	454	455	3.93515E+000	1.39346E-006	0.00000E+000	5.48349E-006	0.00000E+000	7.16424E-004	-3.27687E+002	7	...........
	455	456	3.93515E+000	1.39406E-006	0.00000E+000	5.48582E-006	0.00000E+000	7.15540E-004	-3.27687E+002	7	...........
	456	457	3.93515E+000	1.39338E-006	0.00000E+000	5.48318E-006	0.00000E+000	7.15090E-004	-3.27687E+002	7	...........
	457	458	3.93516E+000	1.39322E-006	0.00000E+000	5.48255E-006	0.00000E+000	7.17840E-004	-3.27687E+002	7	...........
	458	459	3.93516E+000	1.39364E-006	0.00000E+000	5.48418E-006	0.00000E+000	7.16774E-004	-3.27687E+002	7	...........
	459	460	3.93516E+000	1.39472E-006	0.00000E+000	5.48844E-006	0.00000E+000	7.15524E-004	-3.27687E+002	7	...........
	460	461	3.93516E+000	1.39437E-006	0.00000E+000	5.48706E-006	0.00000E+000	7.15690E-004	-3.27687E+002	7	...........
	461	462	3.93516E+000	1.39370E-006	0.00000E+000	5.48443E-006	0.00000E+000	7.18374E-004	-3.27687E+002	7	...........
	462	463	3.93517E+000	1.39417E-006	0.00000E+000	5.48629E-006	0.00000E+000	7.17424E-004	-3.27687E+002	7	...........
	463	464	3.93517E+000	1.39442E-006	0.00000E+000	5.48728E-006	0.00000E+000	7.15324E-004	-3.27687E+002	7	...........
	464	465	3.93517E+000	1.39478E-006	0.00000E+000	5.48870E-006	0.00000E+000	7.15807E-004	-3.27687E+002	7	...........
	465	466	3.93517E+000	1.39471E-006	0.00000E+000	5.48844E-006	0.00000E+000	7.17174E-004	-3.27687E+002	7	...........
	466	467	3.93517E+000	1.39470E-006	0.00000E+000	5.48839E-006	0.00000E+000	7.17257E-004	-3.27687E+002	7	...........
	467	468	3.93517E+000	1.39420E-006	0.00000E+000	5.48642E-006	0.00000E+000	7.14224E-004	-3.27687E+002	7	...........
	468	469	3.93518E+000	1.39405E-006	0.00000E+000	5.48582E-006	0.00000E+000	7.16024E-004	-3.27687E+002	7	...........
	469	470	3.93518E+000	1.39367E-006	0.00000E+000	5.48436E-006	0.00000E+000	7.14674E-004	-3.27687E+002	7	...........
	470	471	3.93518E+000	1.39385E-006	0.00000E+000	5.48503E-006	0.00000E+000	7.14340E-004	-3.27687E+002	7	...........
	471	472	3.93519E+000	1.39426E-006	0.00000E+000	5.48666E-006	0.00000E+000	7.15824E-004	-3.27687E+002	7	...........
	472	473	3.93518E+000	1.39450E-006	0.00000E+000	5.48762E-006	0.00000E+000	7.19057E-004	-3.27687E+002	7	...........
	473	474	3.93519E+000	1.39476E-006	0.00000E+000	5.48866E-006	0.00000E+000	7.16457E-004	-3.27687E+002	7	...........
	474	475	3.93519E+000	1.39464E-006	0.00000E+000	5.48819E-006	0.00000E+000	7.18724E-004	-3.27687E+002	7	...........
	475	476	3.93519E+000	1.39422E-006	0.00000E+000	5.48654E-006	0.00000E+000	7.16140E-004	-3.27687E+002	7	...........
	476	477	3.93519E+000	1.39341E-006	0.00000E+000	5.48333E-006	0.00000E+000	7.18540E-004	-3.27687E+002	7	...........
	477	478	3.93519E+000	1.39423E-006	0.00000E+000	5.48657E-006	0.00000E+000	7.17824E-004	-3.27687E+002	7	...........
	478	479	3.93519E+000	1.39409E-006	0.00000E+000	5.48601E-006	0.00000E+000	7.20690E-004	-3.27687E+002	7	...........
	479	480	3.93520E+000	1.39444E-006	0.00000E+000	5.48738E-006	0.00000E+000	7.19407E-004	-3.27687E+002	7	...........
	480	481	3.93520E+000	1.39383E-006	0.00000E+000	5.48501E-006	0.00000E+000	7.17807E-004	-3.27687E+002	7	...........
	481	482	3.93520E+000	1.39374E-006	0.00000E+000	5.48463E-006	0.00000E+000	7.18240E-004	-3.27687E+002	7	...........
	482	483	3.93519E+000	1.39329E-006	0.00000E+000	5.48286E-006	0.00000E+000	7.16007E-004	-3.27687E+002	7	...........
	483	484	3.93520E+000	1.39378E-006	0.00000E+000	5.48480E-006	0.00000E+000	7.18407E-004	-3.27687E+002	7	...........
	484	485	3.93521E+000	1.39305E-006	0.00000E+000	5.48193E-006	0.00000E+000	7.17857E-004	-3.27687E+002	7	...........
	485	486	3.93521E+000	1.39310E-006	0.00000E+000	5.48212E-006	0.00000E+000	7.17674E-004	-3.27687E+002	7	...........
	486	487	3.93520E+000	1.39349E-006	0.00000E+000	5.48366E-006	0.00000E+000	7.21057E-004	-3.27687E+002	7	...........
	487	488	3.93521E+000	1.39376E-006	0.00000E+000	5.48473E-006	0.00000E+000	7.17307E-004	-3.27687E+002	7	...........
	488	489	3.93521E+000	1.39376E-006	0.00000E+000	5.48474E-006	0.00000E+000	7.18474E-004	-3.27687E+002	7	...........
	489	490	3.93521E+000	1.39336E-006	0.00000E+000	5.48317E-006	0.00000E+000	7.18524E-004	-3.27687E+002	7	...........
	490	491	3.93522E+000	1.39359E-006	0.00000E+000	5.48407E-006	0.00000E+000	7.19007E-004	-3.27687E+002	7	...........
	491	492	3.93522E+000	1.39340E-006	0.00000E+000	5.48335E-006	0.00000E+000	7.18057E-004	-3.27687E+002	7	...........
	492	493	3.93522E+000	1.39368E-006	0.00000E+000	5.48446E-006	0.00000E+000	7.18740E-004	-3.27687E+002	7	...........
	493	494	3.93523E+000	1.39295E-006	0.00000E+000	5.48157E-006	0.00000E+000	7.18607E-004	-3.27687E+002	7	...........
	494	495	3.93523E+000	1.39289E-006	0.00000E+000	5.48133E-006	0.00000E+000	7.16290E-004	-3.27687E+002	7	...........
	495	496	3.93523E+000	1.39210E-006	0.00000E+000	5.47823E-006	0.00000E+000	7.18090E-004	-3.27687E+002	7	...........
	496	497	3.93523E+000	1.39196E-006	0.00000E+000	5.47767E-006	0.00000E+000	7.19640E-004	-3.27687E+002	7	...........
	497	498	3.93523E+000	1.39191E-006	0.00000E+000	5.47748E-006	0.00000E+000	7.19740E-004	-3.27687E+002	7	...........
	498	499	3.93524E+000	1.39164E-006	0.00000E+000	5.47644E-006	0.00000E+000	7.17707E-004	-3.27687E+002	7	...........
	499	500	3.93525E+000	1.39203E-006	0.00000E+000	5.47797E-006	0.00000E+000	7.18090E-004	-3.27687E+002	7	...........
	500	501	3.93524E+000	1.39225E-006	0.00000E+000	5.47883E-006	0.00000E+000	7.18524E-004	-3.27687E+002	7	...........
	501	502	3.93525E+000	1.39191E-006	0.00000E+000	5.47749E-006	0.00000E+000	7.19590E-004	-3.27687E+002	7	...........
	502	503	3.93525E+000	1.39301E-006	0.00000E+000	5.48185E-006	0.00000E+000	7.16957E-004	-3.27687E+002	7	...........
	503	504	3.93525E+000	1.39262E-006	0.00000E+000	5.48031E-006	0.00000E+000	7.21390E-004	-3.27687E+002	7	...........
	504	505	3.93525E+000	1.39213E-006	0.00000E+000	5.47836E-006	0.00000E+000	7.18524E-004	-3.27687E+002	7	...........
	505	506	3.93526E+000	1.39246E-006	0.00000E+000	5.47969E-006	0.00000E+000	7.19874E-004	-3.27687E+002	7	...........
	506	507	3.93526E+000	1.39279E-006	0.00000E+000	5.48100E-006	0.00000E+000	7.18974E-004	-3.27687E+002	7	...........
	507	508	3.93526E+000	1.39324E-006	0.00000E+000	5.48275E-006	0.00000E+000	7.18374E-004	-3.27687E+002	7	...........
	508	509	3.93526E+000	1.39347E-006	0.00000E+000	5.48368E-006	0.00000E+000	7.21374E-004	-3.27687E+002	7	...........
	509	510	3.93527E+000	1.39358E-006	0.00000E+000	5.48412E-006	0.00000E+000	7.21090E-004	-3.27687E+002	7	...........
	510	511	3.93527E+000	1.39361E-006	0.00000E+000	5.48423E-006	0.00000E+000	7.20257E-004	-3.27687E+002	7	...........
	511	512	3.93527E+000	1.39319E-006	0.00000E+000	5.48259E-006	0.00000E+000	7.21974E-004	-3.27687E+002	7	...........
	512	513	3.93527E+000	1.39294E-006	0.00000E+000	5.48160E-006	0.00000E+000	7.20124E-004	-3.27687E+002	7	...........
	513	514	3.93527E+000	1.39244E-006	0.00000E+000	5.47962E-006	0.00000E+000	7.20290E-004	-3.27687E+002	7	...........
	514	515	3.93527E+000	1.39218E-006	0.00000E+000	5.47860E-006	0.00000E+000	7.19624E-004	-3.27687E+002	7	...........
	515	516	3.93527E+000	1.39181E-006	0.00000E+000	5.47714E-006	0.00000E+000	7.21624E-004	-3.27687E+002	7	...........
	516	517	3.93526E+000	1.39276E-006	0.00000E+000	5.48088E-006	0.00000E+000	7.20657E-004	-3.27687E+002	7	...........
	517	518	3.93527E+000	1.39349E-006	0.00000E+000	5.48375E-006	0.00000E+000	7.19340E-004	-3.27687E+002	7	...........
	518	519	3.93527E+000	1.39262E-006	0.00000E+000	5.48033E-006	0.00000E+000	7.22307E-004	-3.27687E+002	7	...........
	519	520	3.93528E+000	1.39299E-006	0.00000E+000	5.48179E-006	0.00000E+000	7.19307E-004	-3.27687E+002	7	...........
	520	521	3.93528E+000	1.39213E-006	0.00000E+000	5.47844E-006	0.00000E+000	7.18774E-004	-3.27687E+002	7	...........
	521	522	3.93528E+000	1.39234E-006	0.00000E+000	5.47927E-006	0.00000E+000	7.20474E-004	-3.27687E+002	7	...........
	522	523	3.93528E+000	1.39221E-006	0.00000E+000	5.47876E-006	0.00000E+000	7.22840E-004	-3.27687E+002	7	...........
	523	524	3.93529E+000	1.39212E-006	0.00000E+000	5.47838E-006	0.00000E+000	7.20024E-004	-3.27687E+002	7	...........
	524	525	3.93529E+000	1.39204E-006	0.00000E+000	5.47806E-006	0.00000E+000	7.19974E-004	-3.27687E+002	7	...........
	525	526	3.93530E+000	1.39216E-006	0.00000E+000	5.47857E-006	0.00000E+000	7.21240E-004	-3.27687E+002	7	...........
	526	527	3.93529E+000	1.39242E-006	0.00000E+000	5.47956E-006	0.00000E+000	7.19724E-004	-3.27687E+002	7	...........
	527	528	3.93529E+000	1.39217E-006	0.00000E+000	5.47861E-006	0.00000E+000	7.20707E-004	-3.27687E+002	7	...........
	528	529	3.93529E+000	1.39132E-006	0.00000E+000	5.47527E-006	0.00000E+000	7.21640E-004	-3.27687E+002	7	...........
	529	530	3.93530E+000	1.39098E-006	0.00000E+000	5.47393E-006	0.00000E+000	7.18924E-004	-3.27687E+002	7	...........
	530	531	3.93530E+000	1.39098E-006	0.00000E+000	5.47394E-006	0.00000E+000	7.21024E-004	-3.27687E+002	7	...........
	531	532	3.93531E+000	1.39076E-006	0.00000E+000	5.47306E-006	0.00000E+000	7.20874E-004	-3.27687E+002	7	...........
	532	533	3.93530E+000	1.39155E-006	0.00000E+000	5.47618E-006	0.00000E+000	7.20874E-004	-3.27687E+002	7	...........
	533	534	3.93530E+000	1.39150E-006	0.00000E+000	5.47597E-006	0.00000E+000	7.23207E-004	-3.27687E+002	7	...........
	534	535	3.93530E+000	1.39168E-006	0.00000E+000	5.47669E-006	0.00000E+000	7.23507E-004	-3.27687E+002	7	...........
	535	536	3.93531E+000	1.39172E-006	0.00000E+000	5.47684E-006	0.00000E+000	7.25507E-004	-3.27687E+002	7	...........
	536	537	3.93531E+000	1.39179E-006	0.00000E+000	5.47713E-006	0.00000E+000	7.23707E-004	-3.27687E+002	7	...........
	537	538	3.93532E+000	1.39220E-006	0.00000E+000	5.47874E-006	0.00000E+000	7.20390E-004	-3.27687E+002	7	...........
	538	539	3.93532E+000	1.39164E-006	0.00000E+000	5.47657E-006	0.00000E+000	7.22074E-004	-3.27687E+002	7	...........
	539	540	3.93533E+000	1.39135E-006	0.00000E+000	5.47543E-006	0.00000E+000	7.21307E-004	-3.27687E+002	7	...........
	540	541	3.93533E+000	1.39068E-006	0.00000E+000	5.47280E-006	0.00000E+000	7.22357E-004	-3.27687E+002	7	...........
	541	542	3.93533E+000	1.39051E-006	0.00000E+000	5.47213E-006	0.00000E+000	7.23807E-004	-3.27687E+002	7	...........
	542	543	3.93534E+000	1.39072E-006	0.00000E+000	5.47293E-006	0.00000E+000	7.22540E-004	-3.27687E+002	7	...........
	543	544	3.93533E+000	1.39101E-006	0.00000E+000	5.47409E-006	0.00000E+000	7.22340E-004	-3.27687E+002	7	...........
	544	545	3.93533E+000	1.39045E-006	0.00000E+000	5.47188E-006	0.00000E+000	7.24540E-004	-3.27687E+002	7	...........
	545	546	3.93534E+000	1.39078E-006	0.00000E+000	5.47317E-006	0.00000E+000	7.24207E-004	-3.27687E+002	7	...........
	546	547	3.93534E+000	1.39146E-006	0.00000E+000	5.47586E-006	0.00000E+000	7.24190E-004	-3.27687E+002	7	...........
	547	548	3.93534E+000	1.39154E-006	0.00000E+000	5.47619E-006	0.00000E+000	7.22940E-004	-3.27687E+002	7	...........
	548	549	3.93534E+000	1.39096E-006	0.00000E+000	5.47389E-006	0.00000E+000	7.24640E-004	-3.27687E+002	7	...........
	549	550	3.93535E+000	1.39014E-006	0.00000E+000	5.47068E-006	0.00000E+000	7.21357E-004	-3.27687E+002	7	...........
	550	551	3.93535E+000	1.39013E-006	0.00000E+000	5.47063E-006	0.00000E+000	7.22940E-004	-3.27687E+002	7	...........
	551	552	3.93536E+000	1.39010E-006	0.00000E+000	5.47054E-006	0.00000E+000	7.22990E-004	-3.27687E+002	7	...........
	552	553	3.93536E+000	1.39024E-006	0.00000E+000	5.47109E-006	0.00000E+000	7.23374E-004	-3.27687E+002	7	...........
	553	554	3.93536E+000	1.39052E-006	0.00000E+000	5.47221E-006	0.00000E+000	7.25040E-004	-3.27687E+002	7	...........
	554	555	3.93536E+000	1.39028E-006	0.00000E+000	5.47126E-006	0.00000E+000	7.23007E-004	-3.27687E+002	7	...........
	555	556	3.93536E+000	1.39048E-006	0.00000E+000	5.47204E-006	0.00000E+000	7.21690E-004	-3.27687E+002	7	...........
	556	557	3.93536E+000	1.39063E-006	0.00000E+000	5.47263E-006	0.00000E+000	7.26374E-004	-3.27687E+002	7	...........
	557	558	3.93536E+000	1.39017E-006	0.00000E+000	5.47081E-006	0.00000E+000	7.21624E-004	-3.27687E+002	7	...........
	558	559	3.93536E+000	1.38983E-006	0.00000E+000	5.46949E-006	0.00000E+000	7.23357E-004	-3.27687E+002	7	...........
	559	560	3.93537E+000	1.38981E-006	0.00000E+000	5.46942E-006	0.00000E+000	7.23857E-004	-3.27687E+002	7	...........
	560	561	3.93537E+000	1.39098E-006	0.00000E+000	5.47400E-006	0.00000E+000	7.25157E-004	-3.27687E+002	7	...........
	561	562	3.93537E+000	1.39114E-006	0.00000E+000	5.47466E-006	0.00000E+000	7.23057E-004	-3.27687E+002	7	...........
	562	563	3.93538E+000	1.39104E-006	0.00000E+000	5.47429E-006	0.00000E+000	7.22374E-004	-3.27687E+002	7	...........
	563	564	3.93538E+000	1.39006E-006	0.00000E+000	5.47043E-006	0.00000E+000	7.24024E-004	-3.27687E+002	7	...........
	564	565	3.93539E+000	1.39005E-006	0.00000E+000	5.47038E-006	0.00000E+000	7.23240E-004	-3.27687E+002	7	...........
	565	566	3.93539E+000	1.39039E-006	0.00000E+000	5.47171E-006	0.00000E+000	7.23224E-004	-3.27687E+002	7	...........
	566	567	3.93539E+000	1.39065E-006	0.00000E+000	5.47276E-006	0.00000E+000	7.23240E-004	-3.27687E+002	7	...........
	567	568	3.93539E+000	1.39047E-006	0.00000E+000	5.47205E-006	0.00000E+000	7.20907E-004	-3.27687E+002	7	...........
	568	569	3.93539E+000	1.38985E-006	0.00000E+000	5.46961E-006	0.00000E+000	7.23140E-004	-3.27687E+002	7	...........
	569	570	3.93539E+000	1.38998E-006	0.00000E+000	5.47011E-006	0.00000E+000	7.23940E-004	-3.27687E+002	7	...........
	570	571	3.93539E+000	1.38961E-006	0.00000E+000	5.46866E-006	0.00000E+000	7.24557E-004	-3.27687E+002	7	...........
	571	572	3.93540E+000	1.38902E-006	0.00000E+000	5.46636E-006	0.00000E+000	7.21974E-004	-3.27687E+002	7	...........
	572	573	3.93540E+000	1.38863E-006	0.00000E+000	5.46481E-006	0.00000E+000	7.21274E-004	-3.27687E+002	7	...........
	573	574	3.93540E+000	1.38899E-006	0.00000E+000	5.46621E-006	0.00000E+000	7.24040E-004	-3.27687E+002	7	...........
	574	575	3.93541E+000	1.38917E-006	0.00000E+000	5.46697E-006	0.00000E+000	7.23340E-004	-3.27687E+002	7	...........
	575	576	3.93541E+000	1.38959E-006	0.00000E+000	5.46863E-006	0.00000E+000	7.25907E-004	-3.27687E+002	7	...........
	576	577	3.93541E+000	1.38973E-006	0.00000E+000	5.46914E-006	0.00000E+000	7.25024E-004	-3.27687E+002	7	...........
	577	578	3.93540E+000	1.39008E-006	0.00000E+000	5.47051E-006	0.00000E+000	7.25040E-004	-3.27687E+002	7	...........
	578	579	3.93541E+000	1.38936E-006	0.00000E+000	5.46772E-006	0.00000E+000	7.24857E-004	-3.27687E+002	7	...........
	579	580	3.93541E+000	1.38895E-006	0.00000E+000	5.46609E-006	0.00000E+000	7.25907E-004	-3.27687E+002	7	...........
	580	581	3.93541E+000	1.38924E-006	0.00000E+000	5.46722E-006	0.00000E+000	7.25607E-004	-3.27687E+002	7	...........
	581	582	3.93542E+000	1.38966E-006	0.00000E+000	5.46889E-006	0.00000E+000	7.24690E-004	-3.27687E+002	7	...........
	582	583	3.93543E+000	1.38969E-006	0.00000E+000	5.46903E-006	0.00000E+000	7.23524E-004	-3.27687E+002	7	...........
	583	584	3.93542E+000	1.38892E-006	0.00000E+000	5.46600E-006	0.00000E+000	7.24707E-004	-3.27687E+002	7	...........
	584	585	3.93542E+000	1.38856E-006	0.00000E+000	5.46455E-006	0.00000E+000	7.28307E-004	-3.27687E+002	7	...........
	585	586	3.93542E+000	1.38885E-006	0.00000E+000	5.46569E-006	0.00000E+000	7.26707E-004	-3.27687E+002	7	...........
	586	587	3.93542E+000	1.38875E-006	0.00000E+000	5.46530E-006	0.00000E+000	7.25740E-004	-3.27687E+002	7	...........
	587	588	3.93542E+000	1.38851E-006	0.00000E+000	5.46437E-006	0.00000E+000	7.25274E-004	-3.27687E+002	7	...........
	588	589	3.93543E+000	1.38822E-006	0.00000E+000	5.46323E-006	0.00000E+000	7.26424E-004	-3.27687E+002	7	...........
	589	590	3.93543E+000	1.38839E-006	0.00000E+000	5.46390E-006	0.00000E+000	7.26140E-004	-3.27687E+002	7	...........
	590	591	3.93543E+000	1.38888E-006	0.00000E+000	5.46584E-006	0.00000E+000	7.25824E-004	-3.27687E+002	7	...........
	591	592	3.93543E+000	1.38854E-006	0.00000E+000	5.46449E-006	0.00000E+000	7.27890E-004	-3.27687E+002	7	...........
	592	593	3.93544E+000	1.38820E-006	0.00000E+000	5.46318E-006	0.00000E+000	7.25124E-004	-3.27687E+002	7	...........
	593	594	3.93543E+000	1.38863E-006	0.00000E+000	5.46486E-006	0.00000E+000	7.24990E-004	-3.27687E+002	7	...........
	594	595	3.93545E+000	1.38837E-006	0.00000E+000	5.46385E-006	0.00000E+000	7.26657E-004	-3.27687E+002	7	...........
	595	596	3.93544E+000	1.38901E-006	0.00000E+000	5.46635E-006	0.00000E+000	7.27674E-004	-3.27687E+002	7	...........
	596	597	3.93545E+000	1.38912E-006	0.00000E+000	5.46681E-006	0.00000E+000	7.24657E-004	-3.27687E+002	7	...........
	597	598	3.93543E+000	1.38872E-006	0.00000E+000	5.46523E-006	0.00000E+000	7.25274E-004	-3.27687E+002	7	...........
	598	599	3.93545E+000	1.38921E-006	0.00000E+000	5.46717E-006	0.00000E+000	7.26157E-004	-3.27687E+002	7	...........
	599	600	3.93545E+000	1.38903E-006	0.00000E+000	5.46646E-006	0.00000E+000	7.24824E-004	-3.27687E+002	7	...........
