EXPLAIN
TAG	PWR800_READVOLTAGE
TITLE	LABEL	PWR Read Voltage	Test Identifier
DATE	LABEL	23.4.2024	Date
TIME	LABEL	1:10:37	Time
NOTES	NOTES	1	Notes...
	
PSTAT	PSTAT	REF600-12055	Potentiostat
CAPACITY	QUANT	1.00000E+000	Capacity (A-hr)
CELLTYPE	SELECTOR	1	Cell Type
WORKINGCONNECTION	SELECTOR	0	Working Connection
MAXTIME	VARIABLEANDUNITS	6.00000E+002	s	6.00000E+002	second(s)	Max Time
SAMPLETIME	QUANT	1.00000E+000	Sample Period (s)
STOPAT1	MULTIPARAM	0	0.00000E+000	Stop At 1	None	N/A
STOPAT2	MULTIPARAM	0	0.00000E+000	Stop At 2	None	N/A
AESBHCSELECTOR	TOGGLE	F	Save Both Half Cells
EOC	QUANT	4.089705	Open Circuit (V)
SEQUENCER	TOGGLE	TRUE	Run as Sequence
PSTATMODEL	IQUANT	4	Pstat Model
PSTATSECTION	LABEL	REF600-12055	Pstat Section
PSTATSERIALNO	LABEL	12055	Pstat Serial Number
CTRLMODE	IQUANT	0	Control Mode
ELECTROMETER	IQUANT	0	RE=0 or CS=1
IESTAB	IQUANT	0	I/E Stability
CASPEED	IQUANT	4	Control Amp Speed
CONVENTION	IQUANT	1	Current Convention
ICHRANGE	IQUANT	2	Ich Range
ICHRANGEMODE	TOGGLE	T	Ich Auto Range
ICHOFFSETENABLE	TOGGLE	F	Ich Offset Enable
ICHOFFSET	QUANT	0	Ich Offset (V)
ICHFILTER	IQUANT	1	Ich Filter
VCHRANGE	IQUANT	3	Vch Range
VCHRANGEMODE	TOGGLE	T	Vch Auto Range
VCHOFFSETENABLE	TOGGLE	F	Vch Offset Enable
VCHOFFSET	QUANT	0	Vch Offset (V)
VCHFILTER	IQUANT	1	Vch Filter
ACHRANGE	IQUANT	2	Ach Range
ACHOFFSETENABLE	TOGGLE	F	Ach Offset Enable
ACHOFFSET	QUANT	0	Ach Offset (V)
ACHFILTER	IQUANT	1	Ach Filter
IERANGELOWERLIMIT	IQUANT	7	I/E Range Lower Limit
IERANGEMODE	TOGGLE	F	I/E AutoRange
IERANGE	IQUANT	11	I/E Range
POSFEEDENABLE	TOGGLE	F	Positive Feedback IR Comp
POSFEEDRESISTANCE	QUANT	0	Positive Feedback Resistance (ohm)
ACHSELECT	IQUANT	4	Ach Select
SENSECABLEID	IQUANT	14	Sense Cable ID
PWRCABLEID	IQUANT	14	Power Cable ID
DCCALDATE	LABEL	2/12/2024	DC Calibration Date
ACCALDATE	LABEL	2/12/2024	AC Calibration Date
THERMOSELECT	IQUANT	1	Thermo Select
FRAMEWORKVERSION	LABEL	7.10.3	Framework Version
INSTRUMENTVERSION	LABEL	4.91	Instrument Version
COMMVERSION	LABEL	2.24	Communications Version
CPUPLDVERSION	LABEL	0.00	CPU PLD Version
CTRLPLDVERSION	LABEL	0.00	CTRL PLD Version
PSTATPLDVERSION	LABEL	0.00	PSTAT PLD Version
CURVE	TABLE	600
	Pt	T	Vf	Im	Vu	Pwr	Sig	Ach	Temp	IERange	Over
	#	s	V	A	V	W	V	V	deg C	#	bits
	0	1	4.02725E+000	-1.76647E-006	0.00000E+000	-7.11404E-006	0.00000E+000	9.19174E-004	-3.27687E+002	7	...........
	1	2	4.02757E+000	-1.76615E-006	0.00000E+000	-7.11329E-006	0.00000E+000	9.14090E-004	-3.27687E+002	7	...........
	2	3	4.02777E+000	-1.76556E-006	0.00000E+000	-7.11126E-006	0.00000E+000	9.14557E-004	-3.27687E+002	7	...........
	3	4	4.02794E+000	-1.76548E-006	0.00000E+000	-7.11126E-006	0.00000E+000	9.15324E-004	-3.27687E+002	7	...........
	4	5	4.02807E+000	-1.76496E-006	0.00000E+000	-7.10941E-006	0.00000E+000	9.15090E-004	-3.27687E+002	7	...........
	5	6	4.02821E+000	-1.76469E-006	0.00000E+000	-7.10856E-006	0.00000E+000	9.16674E-004	-3.27687E+002	7	...........
	6	7	4.02833E+000	-1.76433E-006	0.00000E+000	-7.10729E-006	0.00000E+000	9.20324E-004	-3.27687E+002	7	...........
	7	8	4.02845E+000	-1.76394E-006	0.00000E+000	-7.10595E-006	0.00000E+000	9.17290E-004	-3.27687E+002	7	...........
	8	9	4.02856E+000	-1.76420E-006	0.00000E+000	-7.10718E-006	0.00000E+000	9.18140E-004	-3.27687E+002	7	...........
	9	10	4.02865E+000	-1.76410E-006	0.00000E+000	-7.10695E-006	0.00000E+000	9.15424E-004	-3.27687E+002	7	...........
	10	11	4.02877E+000	-1.76386E-006	0.00000E+000	-7.10618E-006	0.00000E+000	9.15057E-004	-3.27687E+002	7	...........
	11	12	4.02886E+000	-1.76373E-006	0.00000E+000	-7.10582E-006	0.00000E+000	9.15224E-004	-3.27687E+002	7	...........
	12	13	4.02895E+000	-1.76339E-006	0.00000E+000	-7.10463E-006	0.00000E+000	9.10390E-004	-3.27687E+002	7	...........
	13	14	4.02904E+000	-1.76303E-006	0.00000E+000	-7.10333E-006	0.00000E+000	9.06357E-004	-3.27687E+002	7	...........
	14	15	4.02913E+000	-1.76221E-006	0.00000E+000	-7.10017E-006	0.00000E+000	9.05657E-004	-3.27687E+002	7	...........
	15	16	4.02920E+000	-1.76250E-006	0.00000E+000	-7.10149E-006	0.00000E+000	9.04740E-004	-3.27687E+002	7	...........
	16	17	4.02927E+000	-1.76286E-006	0.00000E+000	-7.10306E-006	0.00000E+000	9.05090E-004	-3.27687E+002	7	...........
	17	18	4.02935E+000	-1.76228E-006	0.00000E+000	-7.10084E-006	0.00000E+000	9.02024E-004	-3.27687E+002	7	...........
	18	19	4.02941E+000	-1.76176E-006	0.00000E+000	-7.09886E-006	0.00000E+000	9.04124E-004	-3.27687E+002	7	...........
	19	20	4.02947E+000	-1.76135E-006	0.00000E+000	-7.09730E-006	0.00000E+000	9.03640E-004	-3.27687E+002	7	...........
	20	21	4.02953E+000	-1.76104E-006	0.00000E+000	-7.09618E-006	0.00000E+000	7.26574E-004	-3.27687E+002	7	...........
	21	22	4.02958E+000	-1.76112E-006	0.00000E+000	-7.09660E-006	0.00000E+000	6.46840E-004	-3.27687E+002	7	...........
	22	23	4.02964E+000	-1.76091E-006	0.00000E+000	-7.09584E-006	0.00000E+000	6.48407E-004	-3.27687E+002	7	...........
	23	24	4.02970E+000	-1.76074E-006	0.00000E+000	-7.09527E-006	0.00000E+000	6.51524E-004	-3.27687E+002	7	...........
	24	25	4.02975E+000	-1.76032E-006	0.00000E+000	-7.09366E-006	0.00000E+000	6.53407E-004	-3.27687E+002	7	...........
	25	26	4.02981E+000	-1.75987E-006	0.00000E+000	-7.09195E-006	0.00000E+000	6.53940E-004	-3.27687E+002	7	...........
	26	27	4.02986E+000	-1.75976E-006	0.00000E+000	-7.09158E-006	0.00000E+000	6.55390E-004	-3.27687E+002	7	...........
	27	28	4.02991E+000	-1.75990E-006	0.00000E+000	-7.09223E-006	0.00000E+000	6.55057E-004	-3.27687E+002	7	...........
	28	29	4.02996E+000	-1.75914E-006	0.00000E+000	-7.08926E-006	0.00000E+000	6.58290E-004	-3.27687E+002	7	...........
	29	30	4.03000E+000	-1.75876E-006	0.00000E+000	-7.08780E-006	0.00000E+000	6.58790E-004	-3.27687E+002	7	...........
	30	31	4.03006E+000	-1.75899E-006	0.00000E+000	-7.08882E-006	0.00000E+000	6.60407E-004	-3.27687E+002	7	...........
	31	32	4.03011E+000	-1.75873E-006	0.00000E+000	-7.08788E-006	0.00000E+000	6.62140E-004	-3.27687E+002	7	...........
	32	33	4.03015E+000	-1.75848E-006	0.00000E+000	-7.08696E-006	0.00000E+000	6.60140E-004	-3.27687E+002	7	...........
	33	34	4.03021E+000	-1.75845E-006	0.00000E+000	-7.08694E-006	0.00000E+000	6.64890E-004	-3.27687E+002	7	...........
	34	35	4.03025E+000	-1.75794E-006	0.00000E+000	-7.08495E-006	0.00000E+000	6.66607E-004	-3.27687E+002	7	...........
	35	36	4.03029E+000	-1.75786E-006	0.00000E+000	-7.08469E-006	0.00000E+000	6.63407E-004	-3.27687E+002	7	...........
	36	37	4.03035E+000	-1.75787E-006	0.00000E+000	-7.08485E-006	0.00000E+000	6.63257E-004	-3.27687E+002	7	...........
	37	38	4.03040E+000	-1.75787E-006	0.00000E+000	-7.08491E-006	0.00000E+000	6.64824E-004	-3.27687E+002	7	...........
	38	39	4.03044E+000	-1.75758E-006	0.00000E+000	-7.08384E-006	0.00000E+000	6.65224E-004	-3.27687E+002	7	...........
	39	40	4.03048E+000	-1.75762E-006	0.00000E+000	-7.08404E-006	0.00000E+000	6.64624E-004	-3.27687E+002	7	...........
	40	41	4.03052E+000	-1.75767E-006	0.00000E+000	-7.08433E-006	0.00000E+000	6.62974E-004	-3.27687E+002	7	...........
	41	42	4.03056E+000	-1.75721E-006	0.00000E+000	-7.08256E-006	0.00000E+000	6.61840E-004	-3.27687E+002	7	...........
	42	43	4.03059E+000	-1.75731E-006	0.00000E+000	-7.08301E-006	0.00000E+000	6.63307E-004	-3.27687E+002	7	...........
	43	44	4.03063E+000	-1.75659E-006	0.00000E+000	-7.08016E-006	0.00000E+000	6.62357E-004	-3.27687E+002	7	...........
	44	45	4.03067E+000	-1.75551E-006	0.00000E+000	-7.07587E-006	0.00000E+000	6.60840E-004	-3.27687E+002	7	...........
	45	46	4.03070E+000	-1.75616E-006	0.00000E+000	-7.07857E-006	0.00000E+000	6.62007E-004	-3.27687E+002	7	...........
	46	47	4.03075E+000	-1.75647E-006	0.00000E+000	-7.07991E-006	0.00000E+000	6.61357E-004	-3.27687E+002	7	...........
	47	48	4.03077E+000	-1.75577E-006	0.00000E+000	-7.07711E-006	0.00000E+000	6.61240E-004	-3.27687E+002	7	...........
	48	49	4.03080E+000	-1.75555E-006	0.00000E+000	-7.07625E-006	0.00000E+000	6.59807E-004	-3.27687E+002	7	...........
	49	50	4.03083E+000	-1.75531E-006	0.00000E+000	-7.07537E-006	0.00000E+000	6.57990E-004	-3.27687E+002	7	...........
	50	51	4.03086E+000	-1.75553E-006	0.00000E+000	-7.07628E-006	0.00000E+000	6.57374E-004	-3.27687E+002	7	...........
	51	52	4.03089E+000	-1.75530E-006	0.00000E+000	-7.07540E-006	0.00000E+000	6.58624E-004	-3.27687E+002	7	...........
	52	53	4.03091E+000	-1.75553E-006	0.00000E+000	-7.07640E-006	0.00000E+000	6.58557E-004	-3.27687E+002	7	...........
	53	54	4.03094E+000	-1.75529E-006	0.00000E+000	-7.07545E-006	0.00000E+000	6.56590E-004	-3.27687E+002	7	...........
	54	55	4.03097E+000	-1.75488E-006	0.00000E+000	-7.07386E-006	0.00000E+000	6.59540E-004	-3.27687E+002	7	...........
	55	56	4.03099E+000	-1.75489E-006	0.00000E+000	-7.07395E-006	0.00000E+000	6.58907E-004	-3.27687E+002	7	...........
	56	57	4.03101E+000	-1.75498E-006	0.00000E+000	-7.07436E-006	0.00000E+000	6.58590E-004	-3.27687E+002	7	...........
	57	58	4.03103E+000	-1.75430E-006	0.00000E+000	-7.07164E-006	0.00000E+000	6.55624E-004	-3.27687E+002	7	...........
	58	59	4.03106E+000	-1.75402E-006	0.00000E+000	-7.07058E-006	0.00000E+000	6.58657E-004	-3.27687E+002	7	...........
	59	60	4.03108E+000	-1.75413E-006	0.00000E+000	-7.07104E-006	0.00000E+000	6.58774E-004	-3.27687E+002	7	...........
	60	61	4.03110E+000	-1.75455E-006	0.00000E+000	-7.07278E-006	0.00000E+000	6.60940E-004	-3.27687E+002	7	...........
	61	62	4.03112E+000	-1.75416E-006	0.00000E+000	-7.07123E-006	0.00000E+000	6.61907E-004	-3.27687E+002	7	...........
	62	63	4.03114E+000	-1.75401E-006	0.00000E+000	-7.07068E-006	0.00000E+000	6.61757E-004	-3.27687E+002	7	...........
	63	64	4.03116E+000	-1.75370E-006	0.00000E+000	-7.06945E-006	0.00000E+000	6.61757E-004	-3.27687E+002	7	...........
	64	65	4.03118E+000	-1.75383E-006	0.00000E+000	-7.07001E-006	0.00000E+000	6.63540E-004	-3.27687E+002	7	...........
	65	66	4.03120E+000	-1.75341E-006	0.00000E+000	-7.06835E-006	0.00000E+000	6.63924E-004	-3.27687E+002	7	...........
	66	67	4.03122E+000	-1.75331E-006	0.00000E+000	-7.06798E-006	0.00000E+000	6.64290E-004	-3.27687E+002	7	...........
	67	68	4.03124E+000	-1.75350E-006	0.00000E+000	-7.06880E-006	0.00000E+000	6.63824E-004	-3.27687E+002	7	...........
	68	69	4.03126E+000	-1.75332E-006	0.00000E+000	-7.06811E-006	0.00000E+000	6.64307E-004	-3.27687E+002	7	...........
	69	70	4.03128E+000	-1.75359E-006	0.00000E+000	-7.06921E-006	0.00000E+000	6.66174E-004	-3.27687E+002	7	...........
	70	71	4.03130E+000	-1.75333E-006	0.00000E+000	-7.06818E-006	0.00000E+000	6.65307E-004	-3.27687E+002	7	...........
	71	72	4.03132E+000	-1.75342E-006	0.00000E+000	-7.06860E-006	0.00000E+000	6.68140E-004	-3.27687E+002	7	...........
	72	73	4.03134E+000	-1.75288E-006	0.00000E+000	-7.06646E-006	0.00000E+000	6.66690E-004	-3.27687E+002	7	...........
	73	74	4.03136E+000	-1.75253E-006	0.00000E+000	-7.06506E-006	0.00000E+000	6.65974E-004	-3.27687E+002	7	...........
	74	75	4.03139E+000	-1.75327E-006	0.00000E+000	-7.06810E-006	0.00000E+000	6.68624E-004	-3.27687E+002	7	...........
	75	76	4.03141E+000	-1.75340E-006	0.00000E+000	-7.06867E-006	0.00000E+000	6.68190E-004	-3.27687E+002	7	...........
	76	77	4.03143E+000	-1.75312E-006	0.00000E+000	-7.06760E-006	0.00000E+000	6.69290E-004	-3.27687E+002	7	...........
	77	78	4.03145E+000	-1.75308E-006	0.00000E+000	-7.06746E-006	0.00000E+000	6.69924E-004	-3.27687E+002	7	...........
	78	79	4.03147E+000	-1.75261E-006	0.00000E+000	-7.06560E-006	0.00000E+000	6.70307E-004	-3.27687E+002	7	...........
	79	80	4.03149E+000	-1.75239E-006	0.00000E+000	-7.06475E-006	0.00000E+000	6.71790E-004	-3.27687E+002	7	...........
	80	81	4.03151E+000	-1.75293E-006	0.00000E+000	-7.06696E-006	0.00000E+000	6.70940E-004	-3.27687E+002	7	...........
	81	82	4.03153E+000	-1.75244E-006	0.00000E+000	-7.06501E-006	0.00000E+000	6.71274E-004	-3.27687E+002	7	...........
	82	83	4.03155E+000	-1.75221E-006	0.00000E+000	-7.06412E-006	0.00000E+000	6.68740E-004	-3.27687E+002	7	...........
	83	84	4.03157E+000	-1.75207E-006	0.00000E+000	-7.06362E-006	0.00000E+000	6.69674E-004	-3.27687E+002	7	...........
	84	85	4.03159E+000	-1.75194E-006	0.00000E+000	-7.06309E-006	0.00000E+000	6.71224E-004	-3.27687E+002	7	...........
	85	86	4.03160E+000	-1.75226E-006	0.00000E+000	-7.06443E-006	0.00000E+000	6.70524E-004	-3.27687E+002	7	...........
	86	87	4.03164E+000	-1.75168E-006	0.00000E+000	-7.06215E-006	0.00000E+000	6.70574E-004	-3.27687E+002	7	...........
	87	88	4.03165E+000	-1.75107E-006	0.00000E+000	-7.05971E-006	0.00000E+000	6.70890E-004	-3.27687E+002	7	...........
	88	89	4.03167E+000	-1.75136E-006	0.00000E+000	-7.06090E-006	0.00000E+000	6.70240E-004	-3.27687E+002	7	...........
	89	90	4.03169E+000	-1.75167E-006	0.00000E+000	-7.06221E-006	0.00000E+000	6.72140E-004	-3.27687E+002	7	...........
	90	91	4.03172E+000	-1.75165E-006	0.00000E+000	-7.06216E-006	0.00000E+000	6.74340E-004	-3.27687E+002	7	...........
	91	92	4.03173E+000	-1.75102E-006	0.00000E+000	-7.05966E-006	0.00000E+000	6.71590E-004	-3.27687E+002	7	...........
	92	93	4.03174E+000	-1.75097E-006	0.00000E+000	-7.05946E-006	0.00000E+000	6.73807E-004	-3.27687E+002	7	...........
	93	94	4.03178E+000	-1.75037E-006	0.00000E+000	-7.05710E-006	0.00000E+000	6.72790E-004	-3.27687E+002	7	...........
	94	95	4.03178E+000	-1.75095E-006	0.00000E+000	-7.05945E-006	0.00000E+000	6.71874E-004	-3.27687E+002	7	...........
	95	96	4.03182E+000	-1.75095E-006	0.00000E+000	-7.05952E-006	0.00000E+000	6.72174E-004	-3.27687E+002	7	...........
	96	97	4.03183E+000	-1.75096E-006	0.00000E+000	-7.05955E-006	0.00000E+000	6.72674E-004	-3.27687E+002	7	...........
	97	98	4.03185E+000	-1.75120E-006	0.00000E+000	-7.06057E-006	0.00000E+000	6.72890E-004	-3.27687E+002	7	...........
	98	99	4.03186E+000	-1.75131E-006	0.00000E+000	-7.06103E-006	0.00000E+000	6.70790E-004	-3.27687E+002	7	...........
	99	100	4.03188E+000	-1.75099E-006	0.00000E+000	-7.05980E-006	0.00000E+000	6.72574E-004	-3.27687E+002	7	...........
	100	101	4.03191E+000	-1.75054E-006	0.00000E+000	-7.05802E-006	0.00000E+000	6.74407E-004	-3.27687E+002	7	...........
	101	102	4.03193E+000	-1.75008E-006	0.00000E+000	-7.05619E-006	0.00000E+000	6.73574E-004	-3.27687E+002	7	...........
	102	103	4.03195E+000	-1.74950E-006	0.00000E+000	-7.05388E-006	0.00000E+000	6.70740E-004	-3.27687E+002	7	...........
	103	104	4.03197E+000	-1.75046E-006	0.00000E+000	-7.05780E-006	0.00000E+000	6.70574E-004	-3.27687E+002	7	...........
	104	105	4.03199E+000	-1.75079E-006	0.00000E+000	-7.05917E-006	0.00000E+000	6.71674E-004	-3.27687E+002	7	...........
	105	106	4.03200E+000	-1.75035E-006	0.00000E+000	-7.05740E-006	0.00000E+000	6.71624E-004	-3.27687E+002	7	...........
	106	107	4.03202E+000	-1.75021E-006	0.00000E+000	-7.05689E-006	0.00000E+000	6.71640E-004	-3.27687E+002	7	...........
	107	108	4.03204E+000	-1.74976E-006	0.00000E+000	-7.05509E-006	0.00000E+000	6.70324E-004	-3.27687E+002	7	...........
	108	109	4.03205E+000	-1.74987E-006	0.00000E+000	-7.05556E-006	0.00000E+000	6.69807E-004	-3.27687E+002	7	...........
	109	110	4.03208E+000	-1.75017E-006	0.00000E+000	-7.05682E-006	0.00000E+000	6.70107E-004	-3.27687E+002	7	...........
	110	111	4.03209E+000	-1.75021E-006	0.00000E+000	-7.05700E-006	0.00000E+000	6.68840E-004	-3.27687E+002	7	...........
	111	112	4.03210E+000	-1.75019E-006	0.00000E+000	-7.05696E-006	0.00000E+000	6.68124E-004	-3.27687E+002	7	...........
	112	113	4.03212E+000	-1.74950E-006	0.00000E+000	-7.05418E-006	0.00000E+000	6.71057E-004	-3.27687E+002	7	...........
	113	114	4.03213E+000	-1.75000E-006	0.00000E+000	-7.05621E-006	0.00000E+000	6.67257E-004	-3.27687E+002	7	...........
	114	115	4.03215E+000	-1.75026E-006	0.00000E+000	-7.05733E-006	0.00000E+000	6.67890E-004	-3.27687E+002	7	...........
	115	116	4.03217E+000	-1.74989E-006	0.00000E+000	-7.05586E-006	0.00000E+000	6.70707E-004	-3.27687E+002	7	...........
	116	117	4.03219E+000	-1.74880E-006	0.00000E+000	-7.05149E-006	0.00000E+000	6.69557E-004	-3.27687E+002	7	...........
	117	118	4.03220E+000	-1.74940E-006	0.00000E+000	-7.05392E-006	0.00000E+000	6.67807E-004	-3.27687E+002	7	...........
	118	119	4.03220E+000	-1.74954E-006	0.00000E+000	-7.05451E-006	0.00000E+000	6.66124E-004	-3.27687E+002	7	...........
	119	120	4.03222E+000	-1.74971E-006	0.00000E+000	-7.05521E-006	0.00000E+000	6.64640E-004	-3.27687E+002	7	...........
	120	121	4.03223E+000	-1.74948E-006	0.00000E+000	-7.05431E-006	0.00000E+000	6.68574E-004	-3.27687E+002	7	...........
	121	122	4.03224E+000	-1.74888E-006	0.00000E+000	-7.05190E-006	0.00000E+000	6.68240E-004	-3.27687E+002	7	...........
	122	123	4.03226E+000	-1.74900E-006	0.00000E+000	-7.05244E-006	0.00000E+000	6.66907E-004	-3.27687E+002	7	...........
	123	124	4.03227E+000	-1.74888E-006	0.00000E+000	-7.05198E-006	0.00000E+000	6.67257E-004	-3.27687E+002	7	...........
	124	125	4.03229E+000	-1.74881E-006	0.00000E+000	-7.05171E-006	0.00000E+000	6.66774E-004	-3.27687E+002	7	...........
	125	126	4.03230E+000	-1.74883E-006	0.00000E+000	-7.05181E-006	0.00000E+000	6.65290E-004	-3.27687E+002	7	...........
	126	127	4.03232E+000	-1.74869E-006	0.00000E+000	-7.05127E-006	0.00000E+000	6.65390E-004	-3.27687E+002	7	...........
	127	128	4.03233E+000	-1.74900E-006	0.00000E+000	-7.05253E-006	0.00000E+000	6.64424E-004	-3.27687E+002	7	...........
	128	129	4.03234E+000	-1.74902E-006	0.00000E+000	-7.05264E-006	0.00000E+000	6.65690E-004	-3.27687E+002	7	...........
	129	130	4.03235E+000	-1.74893E-006	0.00000E+000	-7.05230E-006	0.00000E+000	6.62824E-004	-3.27687E+002	7	...........
	130	131	4.03235E+000	-1.74835E-006	0.00000E+000	-7.04998E-006	0.00000E+000	6.64557E-004	-3.27687E+002	7	...........
	131	132	4.03236E+000	-1.74746E-006	0.00000E+000	-7.04637E-006	0.00000E+000	6.64690E-004	-3.27687E+002	7	...........
	132	133	4.03237E+000	-1.74864E-006	0.00000E+000	-7.05116E-006	0.00000E+000	6.67290E-004	-3.27687E+002	7	...........
	133	134	4.03239E+000	-1.74894E-006	0.00000E+000	-7.05240E-006	0.00000E+000	6.63124E-004	-3.27687E+002	7	...........
	134	135	4.03240E+000	-1.74817E-006	0.00000E+000	-7.04934E-006	0.00000E+000	6.62590E-004	-3.27687E+002	7	...........
	135	136	4.03241E+000	-1.74782E-006	0.00000E+000	-7.04792E-006	0.00000E+000	6.64457E-004	-3.27687E+002	7	...........
	136	137	4.03242E+000	-1.74761E-006	0.00000E+000	-7.04709E-006	0.00000E+000	6.65374E-004	-3.27687E+002	7	...........
	137	138	4.03243E+000	-1.74764E-006	0.00000E+000	-7.04725E-006	0.00000E+000	6.64590E-004	-3.27687E+002	7	...........
	138	139	4.03243E+000	-1.74796E-006	0.00000E+000	-7.04855E-006	0.00000E+000	6.63007E-004	-3.27687E+002	7	...........
	139	140	4.03244E+000	-1.74824E-006	0.00000E+000	-7.04967E-006	0.00000E+000	6.64707E-004	-3.27687E+002	7	...........
	140	141	4.03246E+000	-1.74795E-006	0.00000E+000	-7.04852E-006	0.00000E+000	6.61524E-004	-3.27687E+002	7	...........
	141	142	4.03246E+000	-1.74817E-006	0.00000E+000	-7.04942E-006	0.00000E+000	6.63574E-004	-3.27687E+002	7	...........
	142	143	4.03247E+000	-1.74816E-006	0.00000E+000	-7.04941E-006	0.00000E+000	6.64090E-004	-3.27687E+002	7	...........
	143	144	4.03249E+000	-1.74830E-006	0.00000E+000	-7.05001E-006	0.00000E+000	6.62424E-004	-3.27687E+002	7	...........
	144	145	4.03251E+000	-1.74776E-006	0.00000E+000	-7.04786E-006	0.00000E+000	6.64707E-004	-3.27687E+002	7	...........
	145	146	4.03251E+000	-1.74751E-006	0.00000E+000	-7.04684E-006	0.00000E+000	6.63957E-004	-3.27687E+002	7	...........
	146	147	4.03251E+000	-1.74708E-006	0.00000E+000	-7.04512E-006	0.00000E+000	6.64274E-004	-3.27687E+002	7	...........
	147	148	4.03253E+000	-1.74747E-006	0.00000E+000	-7.04671E-006	0.00000E+000	6.63174E-004	-3.27687E+002	7	...........
	148	149	4.03253E+000	-1.74734E-006	0.00000E+000	-7.04620E-006	0.00000E+000	6.61374E-004	-3.27687E+002	7	...........
	149	150	4.03254E+000	-1.74705E-006	0.00000E+000	-7.04507E-006	0.00000E+000	6.63057E-004	-3.27687E+002	7	...........
	150	151	4.03255E+000	-1.74712E-006	0.00000E+000	-7.04536E-006	0.00000E+000	6.62157E-004	-3.27687E+002	7	...........
	151	152	4.03255E+000	-1.74648E-006	0.00000E+000	-7.04277E-006	0.00000E+000	6.64707E-004	-3.27687E+002	7	...........
	152	153	4.03257E+000	-1.74729E-006	0.00000E+000	-7.04607E-006	0.00000E+000	6.62790E-004	-3.27687E+002	7	...........
	153	154	4.03257E+000	-1.74738E-006	0.00000E+000	-7.04643E-006	0.00000E+000	6.60790E-004	-3.27687E+002	7	...........
	154	155	4.03259E+000	-1.74723E-006	0.00000E+000	-7.04589E-006	0.00000E+000	6.61090E-004	-3.27687E+002	7	...........
	155	156	4.03259E+000	-1.74706E-006	0.00000E+000	-7.04517E-006	0.00000E+000	6.61640E-004	-3.27687E+002	7	...........
	156	157	4.03260E+000	-1.74714E-006	0.00000E+000	-7.04550E-006	0.00000E+000	6.59290E-004	-3.27687E+002	7	...........
	157	158	4.03261E+000	-1.74700E-006	0.00000E+000	-7.04496E-006	0.00000E+000	6.59590E-004	-3.27687E+002	7	...........
	158	159	4.03261E+000	-1.74737E-006	0.00000E+000	-7.04646E-006	0.00000E+000	6.61274E-004	-3.27687E+002	7	...........
	159	160	4.03262E+000	-1.74673E-006	0.00000E+000	-7.04390E-006	0.00000E+000	6.59590E-004	-3.27687E+002	7	...........
	160	161	4.03263E+000	-1.74607E-006	0.00000E+000	-7.04124E-006	0.00000E+000	6.62924E-004	-3.27687E+002	7	...........
	161	162	4.03264E+000	-1.74652E-006	0.00000E+000	-7.04308E-006	0.00000E+000	6.62357E-004	-3.27687E+002	7	...........
	162	163	4.03264E+000	-1.74678E-006	0.00000E+000	-7.04413E-006	0.00000E+000	6.60957E-004	-3.27687E+002	7	...........
	163	164	4.03265E+000	-1.74692E-006	0.00000E+000	-7.04472E-006	0.00000E+000	6.62007E-004	-3.27687E+002	7	...........
	164	165	4.03266E+000	-1.74617E-006	0.00000E+000	-7.04170E-006	0.00000E+000	6.62507E-004	-3.27687E+002	7	...........
	165	166	4.03268E+000	-1.74654E-006	0.00000E+000	-7.04324E-006	0.00000E+000	6.59074E-004	-3.27687E+002	7	...........
	166	167	4.03269E+000	-1.74633E-006	0.00000E+000	-7.04239E-006	0.00000E+000	6.64540E-004	-3.27687E+002	7	...........
	167	168	4.03268E+000	-1.74659E-006	0.00000E+000	-7.04343E-006	0.00000E+000	6.63174E-004	-3.27687E+002	7	...........
	168	169	4.03269E+000	-1.74618E-006	0.00000E+000	-7.04182E-006	0.00000E+000	6.61040E-004	-3.27687E+002	7	...........
	169	170	4.03270E+000	-1.74626E-006	0.00000E+000	-7.04215E-006	0.00000E+000	6.62290E-004	-3.27687E+002	7	...........
	170	171	4.03271E+000	-1.74697E-006	0.00000E+000	-7.04504E-006	0.00000E+000	6.61074E-004	-3.27687E+002	7	...........
	171	172	4.03272E+000	-1.74679E-006	0.00000E+000	-7.04432E-006	0.00000E+000	6.61140E-004	-3.27687E+002	7	...........
	172	173	4.03271E+000	-1.74659E-006	0.00000E+000	-7.04350E-006	0.00000E+000	6.62790E-004	-3.27687E+002	7	...........
	173	174	4.03272E+000	-1.74633E-006	0.00000E+000	-7.04249E-006	0.00000E+000	6.63457E-004	-3.27687E+002	7	...........
	174	175	4.03273E+000	-1.74589E-006	0.00000E+000	-7.04071E-006	0.00000E+000	6.63690E-004	-3.27687E+002	7	...........
	175	176	4.03274E+000	-1.74532E-006	0.00000E+000	-7.03841E-006	0.00000E+000	6.60174E-004	-3.27687E+002	7	...........
	176	177	4.03274E+000	-1.74597E-006	0.00000E+000	-7.04105E-006	0.00000E+000	6.64324E-004	-3.27687E+002	7	...........
	177	178	4.03275E+000	-1.74560E-006	0.00000E+000	-7.03958E-006	0.00000E+000	6.64357E-004	-3.27687E+002	7	...........
	178	179	4.03276E+000	-1.74607E-006	0.00000E+000	-7.04149E-006	0.00000E+000	6.62307E-004	-3.27687E+002	7	...........
	179	180	4.03276E+000	-1.74538E-006	0.00000E+000	-7.03870E-006	0.00000E+000	6.63924E-004	-3.27687E+002	7	...........
	180	181	4.03277E+000	-1.74574E-006	0.00000E+000	-7.04016E-006	0.00000E+000	6.61374E-004	-3.27687E+002	7	...........
	181	182	4.03277E+000	-1.74483E-006	0.00000E+000	-7.03651E-006	0.00000E+000	6.65674E-004	-3.27687E+002	7	...........
	182	183	4.03278E+000	-1.74525E-006	0.00000E+000	-7.03821E-006	0.00000E+000	6.67324E-004	-3.27687E+002	7	...........
	183	184	4.03279E+000	-1.74501E-006	0.00000E+000	-7.03725E-006	0.00000E+000	6.65274E-004	-3.27687E+002	7	...........
	184	185	4.03280E+000	-1.74563E-006	0.00000E+000	-7.03979E-006	0.00000E+000	6.64874E-004	-3.27687E+002	7	...........
	185	186	4.03282E+000	-1.74530E-006	0.00000E+000	-7.03846E-006	0.00000E+000	6.65040E-004	-3.27687E+002	7	...........
	186	187	4.03282E+000	-1.74514E-006	0.00000E+000	-7.03786E-006	0.00000E+000	6.65624E-004	-3.27687E+002	7	...........
	187	188	4.03282E+000	-1.74557E-006	0.00000E+000	-7.03957E-006	0.00000E+000	6.65690E-004	-3.27687E+002	7	...........
	188	189	4.03283E+000	-1.74499E-006	0.00000E+000	-7.03723E-006	0.00000E+000	6.64357E-004	-3.27687E+002	7	...........
	189	190	4.03284E+000	-1.74449E-006	0.00000E+000	-7.03523E-006	0.00000E+000	6.64774E-004	-3.27687E+002	7	...........
	190	191	4.03285E+000	-1.74534E-006	0.00000E+000	-7.03867E-006	0.00000E+000	6.65674E-004	-3.27687E+002	7	...........
	191	192	4.03285E+000	-1.74524E-006	0.00000E+000	-7.03829E-006	0.00000E+000	6.65057E-004	-3.27687E+002	7	...........
	192	193	4.03286E+000	-1.74558E-006	0.00000E+000	-7.03968E-006	0.00000E+000	6.66790E-004	-3.27687E+002	7	...........
	193	194	4.03287E+000	-1.74479E-006	0.00000E+000	-7.03650E-006	0.00000E+000	6.66424E-004	-3.27687E+002	7	...........
	194	195	4.03287E+000	-1.74473E-006	0.00000E+000	-7.03625E-006	0.00000E+000	6.65440E-004	-3.27687E+002	7	...........
	195	196	4.03288E+000	-1.74485E-006	0.00000E+000	-7.03677E-006	0.00000E+000	6.66157E-004	-3.27687E+002	7	...........
	196	197	4.03288E+000	-1.74543E-006	0.00000E+000	-7.03910E-006	0.00000E+000	6.64740E-004	-3.27687E+002	7	...........
	197	198	4.03290E+000	-1.74514E-006	0.00000E+000	-7.03797E-006	0.00000E+000	6.64024E-004	-3.27687E+002	7	...........
	198	199	4.03289E+000	-1.74499E-006	0.00000E+000	-7.03736E-006	0.00000E+000	6.68090E-004	-3.27687E+002	7	...........
	199	200	4.03290E+000	-1.74528E-006	0.00000E+000	-7.03856E-006	0.00000E+000	6.62640E-004	-3.27687E+002	7	...........
	200	201	4.03290E+000	-1.74522E-006	0.00000E+000	-7.03830E-006	0.00000E+000	6.66840E-004	-3.27687E+002	7	...........
	201	202	4.03291E+000	-1.74490E-006	0.00000E+000	-7.03701E-006	0.00000E+000	6.67174E-004	-3.27687E+002	7	...........
	202	203	4.03292E+000	-1.74497E-006	0.00000E+000	-7.03733E-006	0.00000E+000	6.68524E-004	-3.27687E+002	7	...........
	203	204	4.03292E+000	-1.74497E-006	0.00000E+000	-7.03733E-006	0.00000E+000	6.67557E-004	-3.27687E+002	7	...........
	204	205	4.03293E+000	-1.74449E-006	0.00000E+000	-7.03540E-006	0.00000E+000	6.67857E-004	-3.27687E+002	7	...........
	205	206	4.03293E+000	-1.74402E-006	0.00000E+000	-7.03352E-006	0.00000E+000	6.66774E-004	-3.27687E+002	7	...........
	206	207	4.03293E+000	-1.74478E-006	0.00000E+000	-7.03658E-006	0.00000E+000	6.66824E-004	-3.27687E+002	7	...........
	207	208	4.03294E+000	-1.74489E-006	0.00000E+000	-7.03704E-006	0.00000E+000	6.65107E-004	-3.27687E+002	7	...........
	208	209	4.03294E+000	-1.74415E-006	0.00000E+000	-7.03405E-006	0.00000E+000	6.67940E-004	-3.27687E+002	7	...........
	209	210	4.03296E+000	-1.74464E-006	0.00000E+000	-7.03605E-006	0.00000E+000	6.66590E-004	-3.27687E+002	7	...........
	210	211	4.03296E+000	-1.74452E-006	0.00000E+000	-7.03560E-006	0.00000E+000	6.66340E-004	-3.27687E+002	7	...........
	211	212	4.03298E+000	-1.74483E-006	0.00000E+000	-7.03685E-006	0.00000E+000	6.67890E-004	-3.27687E+002	7	...........
	212	213	4.03298E+000	-1.74486E-006	0.00000E+000	-7.03698E-006	0.00000E+000	6.68507E-004	-3.27687E+002	7	...........
	213	214	4.03298E+000	-1.74493E-006	0.00000E+000	-7.03727E-006	0.00000E+000	6.67774E-004	-3.27687E+002	7	...........
	214	215	4.03299E+000	-1.74494E-006	0.00000E+000	-7.03734E-006	0.00000E+000	6.66857E-004	-3.27687E+002	7	...........
	215	216	4.03300E+000	-1.74500E-006	0.00000E+000	-7.03759E-006	0.00000E+000	6.68990E-004	-3.27687E+002	7	...........
	216	217	4.03300E+000	-1.74489E-006	0.00000E+000	-7.03714E-006	0.00000E+000	6.68757E-004	-3.27687E+002	7	...........
	217	218	4.03301E+000	-1.74482E-006	0.00000E+000	-7.03688E-006	0.00000E+000	6.71107E-004	-3.27687E+002	7	...........
	218	219	4.03302E+000	-1.74369E-006	0.00000E+000	-7.03234E-006	0.00000E+000	6.69907E-004	-3.27687E+002	7	...........
	219	220	4.03302E+000	-1.74387E-006	0.00000E+000	-7.03308E-006	0.00000E+000	6.70174E-004	-3.27687E+002	7	...........
	220	221	4.03303E+000	-1.74439E-006	0.00000E+000	-7.03518E-006	0.00000E+000	6.70657E-004	-3.27687E+002	7	...........
	221	222	4.03303E+000	-1.74444E-006	0.00000E+000	-7.03536E-006	0.00000E+000	6.69240E-004	-3.27687E+002	7	...........
	222	223	4.03303E+000	-1.74445E-006	0.00000E+000	-7.03540E-006	0.00000E+000	6.69907E-004	-3.27687E+002	7	...........
	223	224	4.03303E+000	-1.74458E-006	0.00000E+000	-7.03595E-006	0.00000E+000	6.68174E-004	-3.27687E+002	7	...........
	224	225	4.03304E+000	-1.74427E-006	0.00000E+000	-7.03472E-006	0.00000E+000	6.68774E-004	-3.27687E+002	7	...........
	225	226	4.03304E+000	-1.74446E-006	0.00000E+000	-7.03546E-006	0.00000E+000	6.68024E-004	-3.27687E+002	7	...........
	226	227	4.03306E+000	-1.74439E-006	0.00000E+000	-7.03524E-006	0.00000E+000	6.71374E-004	-3.27687E+002	7	...........
	227	228	4.03306E+000	-1.74461E-006	0.00000E+000	-7.03613E-006	0.00000E+000	6.70424E-004	-3.27687E+002	7	...........
	228	229	4.03306E+000	-1.74434E-006	0.00000E+000	-7.03504E-006	0.00000E+000	6.71390E-004	-3.27687E+002	7	...........
	229	230	4.03307E+000	-1.74401E-006	0.00000E+000	-7.03371E-006	0.00000E+000	6.68874E-004	-3.27687E+002	7	...........
	230	231	4.03308E+000	-1.74415E-006	0.00000E+000	-7.03430E-006	0.00000E+000	6.70357E-004	-3.27687E+002	7	...........
	231	232	4.03308E+000	-1.74404E-006	0.00000E+000	-7.03384E-006	0.00000E+000	6.66890E-004	-3.27687E+002	7	...........
	232	233	4.03308E+000	-1.74323E-006	0.00000E+000	-7.03059E-006	0.00000E+000	6.69024E-004	-3.27687E+002	7	...........
	233	234	4.03309E+000	-1.74285E-006	0.00000E+000	-7.02905E-006	0.00000E+000	6.71540E-004	-3.27687E+002	7	...........
	234	235	4.03310E+000	-1.74349E-006	0.00000E+000	-7.03168E-006	0.00000E+000	6.68557E-004	-3.27687E+002	7	...........
	235	236	4.03310E+000	-1.74368E-006	0.00000E+000	-7.03241E-006	0.00000E+000	6.69357E-004	-3.27687E+002	7	...........
	236	237	4.03310E+000	-1.74337E-006	0.00000E+000	-7.03118E-006	0.00000E+000	6.68457E-004	-3.27687E+002	7	...........
	237	238	4.03310E+000	-1.74344E-006	0.00000E+000	-7.03147E-006	0.00000E+000	6.68207E-004	-3.27687E+002	7	...........
	238	239	4.03310E+000	-1.74304E-006	0.00000E+000	-7.02987E-006	0.00000E+000	6.68990E-004	-3.27687E+002	7	...........
	239	240	4.03311E+000	-1.74283E-006	0.00000E+000	-7.02901E-006	0.00000E+000	6.70274E-004	-3.27687E+002	7	...........
	240	241	4.03312E+000	-1.74299E-006	0.00000E+000	-7.02970E-006	0.00000E+000	6.69957E-004	-3.27687E+002	7	...........
	241	242	4.03312E+000	-1.74323E-006	0.00000E+000	-7.03067E-006	0.00000E+000	6.70940E-004	-3.27687E+002	7	...........
	242	243	4.03313E+000	-1.74336E-006	0.00000E+000	-7.03119E-006	0.00000E+000	6.72340E-004	-3.27687E+002	7	...........
	243	244	4.03314E+000	-1.74337E-006	0.00000E+000	-7.03124E-006	0.00000E+000	6.71007E-004	-3.27687E+002	7	...........
	244	245	4.03313E+000	-1.74362E-006	0.00000E+000	-7.03226E-006	0.00000E+000	6.71307E-004	-3.27687E+002	7	...........
	245	246	4.03314E+000	-1.74341E-006	0.00000E+000	-7.03143E-006	0.00000E+000	6.70840E-004	-3.27687E+002	7	...........
	246	247	4.03314E+000	-1.74309E-006	0.00000E+000	-7.03011E-006	0.00000E+000	6.69924E-004	-3.27687E+002	7	...........
	247	248	4.03314E+000	-1.74284E-006	0.00000E+000	-7.02911E-006	0.00000E+000	6.72107E-004	-3.27687E+002	7	...........
	248	249	4.03315E+000	-1.74279E-006	0.00000E+000	-7.02894E-006	0.00000E+000	6.73640E-004	-3.27687E+002	7	...........
	249	250	4.03316E+000	-1.74382E-006	0.00000E+000	-7.03310E-006	0.00000E+000	6.70990E-004	-3.27687E+002	7	...........
	250	251	4.03316E+000	-1.74350E-006	0.00000E+000	-7.03182E-006	0.00000E+000	6.74074E-004	-3.27687E+002	7	...........
	251	252	4.03317E+000	-1.74358E-006	0.00000E+000	-7.03216E-006	0.00000E+000	6.71357E-004	-3.27687E+002	7	...........
	252	253	4.03318E+000	-1.74300E-006	0.00000E+000	-7.02983E-006	0.00000E+000	6.71557E-004	-3.27687E+002	7	...........
	253	254	4.03319E+000	-1.74306E-006	0.00000E+000	-7.03009E-006	0.00000E+000	6.72174E-004	-3.27687E+002	7	...........
	254	255	4.03320E+000	-1.74336E-006	0.00000E+000	-7.03132E-006	0.00000E+000	6.71924E-004	-3.27687E+002	7	...........
	255	256	4.03320E+000	-1.74355E-006	0.00000E+000	-7.03209E-006	0.00000E+000	6.74057E-004	-3.27687E+002	7	...........
	256	257	4.03321E+000	-1.74403E-006	0.00000E+000	-7.03402E-006	0.00000E+000	6.74807E-004	-3.27687E+002	7	...........
	257	258	4.03321E+000	-1.74389E-006	0.00000E+000	-7.03346E-006	0.00000E+000	6.71974E-004	-3.27687E+002	7	...........
	258	259	4.03321E+000	-1.74402E-006	0.00000E+000	-7.03400E-006	0.00000E+000	6.73340E-004	-3.27687E+002	7	...........
	259	260	4.03322E+000	-1.74380E-006	0.00000E+000	-7.03315E-006	0.00000E+000	6.74024E-004	-3.27687E+002	7	...........
	260	261	4.03322E+000	-1.74360E-006	0.00000E+000	-7.03231E-006	0.00000E+000	6.73574E-004	-3.27687E+002	7	...........
	261	262	4.03322E+000	-1.74330E-006	0.00000E+000	-7.03109E-006	0.00000E+000	6.73574E-004	-3.27687E+002	7	...........
	262	263	4.03322E+000	-1.74280E-006	0.00000E+000	-7.02909E-006	0.00000E+000	6.71057E-004	-3.27687E+002	7	...........
	263	264	4.03323E+000	-1.74312E-006	0.00000E+000	-7.03038E-006	0.00000E+000	6.74490E-004	-3.27687E+002	7	...........
	264	265	4.03324E+000	-1.74325E-006	0.00000E+000	-7.03095E-006	0.00000E+000	6.76007E-004	-3.27687E+002	7	...........
	265	266	4.03323E+000	-1.74298E-006	0.00000E+000	-7.02983E-006	0.00000E+000	6.74657E-004	-3.27687E+002	7	...........
	266	267	4.03324E+000	-1.74241E-006	0.00000E+000	-7.02755E-006	0.00000E+000	6.73490E-004	-3.27687E+002	7	...........
	267	268	4.03325E+000	-1.74230E-006	0.00000E+000	-7.02713E-006	0.00000E+000	6.74707E-004	-3.27687E+002	7	...........
	268	269	4.03325E+000	-1.74252E-006	0.00000E+000	-7.02802E-006	0.00000E+000	6.72657E-004	-3.27687E+002	7	...........
	269	270	4.03326E+000	-1.74261E-006	0.00000E+000	-7.02841E-006	0.00000E+000	6.74857E-004	-3.27687E+002	7	...........
	270	271	4.03325E+000	-1.74281E-006	0.00000E+000	-7.02919E-006	0.00000E+000	6.74107E-004	-3.27687E+002	7	...........
	271	272	4.03326E+000	-1.74266E-006	0.00000E+000	-7.02860E-006	0.00000E+000	6.74457E-004	-3.27687E+002	7	...........
	272	273	4.03327E+000	-1.74267E-006	0.00000E+000	-7.02866E-006	0.00000E+000	6.74624E-004	-3.27687E+002	7	...........
	273	274	4.03328E+000	-1.74274E-006	0.00000E+000	-7.02895E-006	0.00000E+000	6.75990E-004	-3.27687E+002	7	...........
	274	275	4.03327E+000	-1.74312E-006	0.00000E+000	-7.03046E-006	0.00000E+000	6.74674E-004	-3.27687E+002	7	...........
	275	276	4.03328E+000	-1.74294E-006	0.00000E+000	-7.02979E-006	0.00000E+000	6.74107E-004	-3.27687E+002	7	...........
	276	277	4.03328E+000	-1.74242E-006	0.00000E+000	-7.02766E-006	0.00000E+000	6.74124E-004	-3.27687E+002	7	...........
	277	278	4.03330E+000	-1.74232E-006	0.00000E+000	-7.02730E-006	0.00000E+000	6.75740E-004	-3.27687E+002	7	...........
	278	279	4.03329E+000	-1.74309E-006	0.00000E+000	-7.03041E-006	0.00000E+000	6.73590E-004	-3.27687E+002	7	...........
	279	280	4.03330E+000	-1.74340E-006	0.00000E+000	-7.03166E-006	0.00000E+000	6.76074E-004	-3.27687E+002	7	...........
	280	281	4.03331E+000	-1.74295E-006	0.00000E+000	-7.02984E-006	0.00000E+000	6.77757E-004	-3.27687E+002	7	...........
	281	282	4.03331E+000	-1.74258E-006	0.00000E+000	-7.02835E-006	0.00000E+000	6.74540E-004	-3.27687E+002	7	...........
	282	283	4.03332E+000	-1.74259E-006	0.00000E+000	-7.02843E-006	0.00000E+000	6.76057E-004	-3.27687E+002	7	...........
	283	284	4.03332E+000	-1.74320E-006	0.00000E+000	-7.03086E-006	0.00000E+000	6.75924E-004	-3.27687E+002	7	...........
	284	285	4.03332E+000	-1.74291E-006	0.00000E+000	-7.02972E-006	0.00000E+000	6.75974E-004	-3.27687E+002	7	...........
	285	286	4.03333E+000	-1.74288E-006	0.00000E+000	-7.02962E-006	0.00000E+000	6.74924E-004	-3.27687E+002	7	...........
	286	287	4.03333E+000	-1.74273E-006	0.00000E+000	-7.02899E-006	0.00000E+000	6.76174E-004	-3.27687E+002	7	...........
	287	288	4.03334E+000	-1.74205E-006	0.00000E+000	-7.02627E-006	0.00000E+000	6.72740E-004	-3.27687E+002	7	...........
	288	289	4.03335E+000	-1.74253E-006	0.00000E+000	-7.02823E-006	0.00000E+000	6.73207E-004	-3.27687E+002	7	...........
	289	290	4.03335E+000	-1.74227E-006	0.00000E+000	-7.02720E-006	0.00000E+000	6.73974E-004	-3.27687E+002	7	...........
	290	291	4.03335E+000	-1.74240E-006	0.00000E+000	-7.02772E-006	0.00000E+000	6.73974E-004	-3.27687E+002	7	...........
	291	292	4.03335E+000	-1.74121E-006	0.00000E+000	-7.02291E-006	0.00000E+000	6.75224E-004	-3.27687E+002	7	...........
	292	293	4.03335E+000	-1.74152E-006	0.00000E+000	-7.02415E-006	0.00000E+000	6.75257E-004	-3.27687E+002	7	...........
	293	294	4.03336E+000	-1.74175E-006	0.00000E+000	-7.02510E-006	0.00000E+000	6.76674E-004	-3.27687E+002	7	...........
	294	295	4.03336E+000	-1.74243E-006	0.00000E+000	-7.02786E-006	0.00000E+000	6.74690E-004	-3.27687E+002	7	...........
	295	296	4.03337E+000	-1.74199E-006	0.00000E+000	-7.02610E-006	0.00000E+000	6.75090E-004	-3.27687E+002	7	...........
	296	297	4.03336E+000	-1.74192E-006	0.00000E+000	-7.02581E-006	0.00000E+000	6.73557E-004	-3.27687E+002	7	...........
	297	298	4.03337E+000	-1.74177E-006	0.00000E+000	-7.02520E-006	0.00000E+000	6.75090E-004	-3.27687E+002	7	...........
	298	299	4.03338E+000	-1.74208E-006	0.00000E+000	-7.02647E-006	0.00000E+000	6.75624E-004	-3.27687E+002	7	...........
	299	300	4.03338E+000	-1.74210E-006	0.00000E+000	-7.02655E-006	0.00000E+000	6.77024E-004	-3.27687E+002	7	...........
	300	301	4.03339E+000	-1.74213E-006	0.00000E+000	-7.02668E-006	0.00000E+000	6.75157E-004	-3.27687E+002	7	...........
	301	302	4.03338E+000	-1.74249E-006	0.00000E+000	-7.02811E-006	0.00000E+000	6.73107E-004	-3.27687E+002	7	...........
	302	303	4.03339E+000	-1.74268E-006	0.00000E+000	-7.02893E-006	0.00000E+000	6.75774E-004	-3.27687E+002	7	...........
	303	304	4.03339E+000	-1.74291E-006	0.00000E+000	-7.02985E-006	0.00000E+000	6.75257E-004	-3.27687E+002	7	...........
	304	305	4.03340E+000	-1.74284E-006	0.00000E+000	-7.02957E-006	0.00000E+000	6.74024E-004	-3.27687E+002	7	...........
	305	306	4.03340E+000	-1.74281E-006	0.00000E+000	-7.02945E-006	0.00000E+000	6.74190E-004	-3.27687E+002	7	...........
	306	307	4.03341E+000	-1.74198E-006	0.00000E+000	-7.02614E-006	0.00000E+000	6.75757E-004	-3.27687E+002	7	...........
	307	308	4.03342E+000	-1.74236E-006	0.00000E+000	-7.02767E-006	0.00000E+000	6.73457E-004	-3.27687E+002	7	...........
	308	309	4.03343E+000	-1.74253E-006	0.00000E+000	-7.02838E-006	0.00000E+000	6.76374E-004	-3.27687E+002	7	...........
	309	310	4.03344E+000	-1.74269E-006	0.00000E+000	-7.02903E-006	0.00000E+000	6.74490E-004	-3.27687E+002	7	...........
	310	311	4.03343E+000	-1.74237E-006	0.00000E+000	-7.02773E-006	0.00000E+000	6.75390E-004	-3.27687E+002	7	...........
	311	312	4.03343E+000	-1.74179E-006	0.00000E+000	-7.02537E-006	0.00000E+000	6.75057E-004	-3.27687E+002	7	...........
	312	313	4.03343E+000	-1.74127E-006	0.00000E+000	-7.02330E-006	0.00000E+000	6.74374E-004	-3.27687E+002	7	...........
	313	314	4.03344E+000	-1.74174E-006	0.00000E+000	-7.02521E-006	0.00000E+000	6.76874E-004	-3.27687E+002	7	...........
	314	315	4.03344E+000	-1.74186E-006	0.00000E+000	-7.02570E-006	0.00000E+000	6.73057E-004	-3.27687E+002	7	...........
	315	316	4.03345E+000	-1.74236E-006	0.00000E+000	-7.02771E-006	0.00000E+000	6.74040E-004	-3.27687E+002	7	...........
	316	317	4.03344E+000	-1.74238E-006	0.00000E+000	-7.02779E-006	0.00000E+000	6.74490E-004	-3.27687E+002	7	...........
	317	318	4.03345E+000	-1.74236E-006	0.00000E+000	-7.02772E-006	0.00000E+000	6.75124E-004	-3.27687E+002	7	...........
	318	319	4.03345E+000	-1.74216E-006	0.00000E+000	-7.02691E-006	0.00000E+000	6.77240E-004	-3.27687E+002	7	...........
	319	320	4.03345E+000	-1.74208E-006	0.00000E+000	-7.02660E-006	0.00000E+000	6.76190E-004	-3.27687E+002	7	...........
	320	321	4.03346E+000	-1.74173E-006	0.00000E+000	-7.02521E-006	0.00000E+000	6.77474E-004	-3.27687E+002	7	...........
	321	322	4.03346E+000	-1.74186E-006	0.00000E+000	-7.02573E-006	0.00000E+000	6.76907E-004	-3.27687E+002	7	...........
	322	323	4.03348E+000	-1.74219E-006	0.00000E+000	-7.02709E-006	0.00000E+000	6.75907E-004	-3.27687E+002	7	...........
	323	324	4.03348E+000	-1.74202E-006	0.00000E+000	-7.02642E-006	0.00000E+000	6.75924E-004	-3.27687E+002	7	...........
	324	325	4.03348E+000	-1.74225E-006	0.00000E+000	-7.02731E-006	0.00000E+000	6.74640E-004	-3.27687E+002	7	...........
	325	326	4.03348E+000	-1.74171E-006	0.00000E+000	-7.02516E-006	0.00000E+000	6.76240E-004	-3.27687E+002	7	...........
	326	327	4.03349E+000	-1.74166E-006	0.00000E+000	-7.02498E-006	0.00000E+000	6.73924E-004	-3.27687E+002	7	...........
	327	328	4.03349E+000	-1.74184E-006	0.00000E+000	-7.02569E-006	0.00000E+000	6.75007E-004	-3.27687E+002	7	...........
	328	329	4.03349E+000	-1.74138E-006	0.00000E+000	-7.02383E-006	0.00000E+000	6.74257E-004	-3.27687E+002	7	...........
	329	330	4.03350E+000	-1.74197E-006	0.00000E+000	-7.02623E-006	0.00000E+000	6.74540E-004	-3.27687E+002	7	...........
	330	331	4.03350E+000	-1.74194E-006	0.00000E+000	-7.02611E-006	0.00000E+000	6.76790E-004	-3.27687E+002	7	...........
	331	332	4.03351E+000	-1.74187E-006	0.00000E+000	-7.02584E-006	0.00000E+000	6.75007E-004	-3.27687E+002	7	...........
	332	333	4.03352E+000	-1.74155E-006	0.00000E+000	-7.02457E-006	0.00000E+000	6.75574E-004	-3.27687E+002	7	...........
	333	334	4.03352E+000	-1.74130E-006	0.00000E+000	-7.02357E-006	0.00000E+000	6.74957E-004	-3.27687E+002	7	...........
	334	335	4.03353E+000	-1.74143E-006	0.00000E+000	-7.02410E-006	0.00000E+000	6.76857E-004	-3.27687E+002	7	...........
	335	336	4.03353E+000	-1.74058E-006	0.00000E+000	-7.02067E-006	0.00000E+000	6.76790E-004	-3.27687E+002	7	...........
	336	337	4.03354E+000	-1.74055E-006	0.00000E+000	-7.02058E-006	0.00000E+000	6.76624E-004	-3.27687E+002	7	...........
	337	338	4.03354E+000	-1.74100E-006	0.00000E+000	-7.02240E-006	0.00000E+000	6.76824E-004	-3.27687E+002	7	...........
	338	339	4.03354E+000	-1.74130E-006	0.00000E+000	-7.02360E-006	0.00000E+000	6.79157E-004	-3.27687E+002	7	...........
	339	340	4.03354E+000	-1.74131E-006	0.00000E+000	-7.02364E-006	0.00000E+000	6.78007E-004	-3.27687E+002	7	...........
	340	341	4.03355E+000	-1.74174E-006	0.00000E+000	-7.02541E-006	0.00000E+000	6.77657E-004	-3.27687E+002	7	...........
	341	342	4.03354E+000	-1.74142E-006	0.00000E+000	-7.02411E-006	0.00000E+000	6.77040E-004	-3.27687E+002	7	...........
	342	343	4.03355E+000	-1.74185E-006	0.00000E+000	-7.02585E-006	0.00000E+000	6.76157E-004	-3.27687E+002	7	...........
	343	344	4.03355E+000	-1.74166E-006	0.00000E+000	-7.02506E-006	0.00000E+000	6.75557E-004	-3.27687E+002	7	...........
	344	345	4.03355E+000	-1.74230E-006	0.00000E+000	-7.02767E-006	0.00000E+000	6.75890E-004	-3.27687E+002	7	...........
	345	346	4.03356E+000	-1.74204E-006	0.00000E+000	-7.02661E-006	0.00000E+000	6.76790E-004	-3.27687E+002	7	...........
	346	347	4.03355E+000	-1.74154E-006	0.00000E+000	-7.02460E-006	0.00000E+000	6.75224E-004	-3.27687E+002	7	...........
	347	348	4.03355E+000	-1.74144E-006	0.00000E+000	-7.02419E-006	0.00000E+000	6.76740E-004	-3.27687E+002	7	...........
	348	349	4.03356E+000	-1.74154E-006	0.00000E+000	-7.02460E-006	0.00000E+000	6.75340E-004	-3.27687E+002	7	...........
	349	350	4.03356E+000	-1.74104E-006	0.00000E+000	-7.02259E-006	0.00000E+000	6.77024E-004	-3.27687E+002	7	...........
	350	351	4.03356E+000	-1.74079E-006	0.00000E+000	-7.02160E-006	0.00000E+000	6.80040E-004	-3.27687E+002	7	...........
	351	352	4.03357E+000	-1.74110E-006	0.00000E+000	-7.02283E-006	0.00000E+000	6.77307E-004	-3.27687E+002	7	...........
	352	353	4.03357E+000	-1.74147E-006	0.00000E+000	-7.02435E-006	0.00000E+000	6.76807E-004	-3.27687E+002	7	...........
	353	354	4.03358E+000	-1.74143E-006	0.00000E+000	-7.02419E-006	0.00000E+000	6.78557E-004	-3.27687E+002	7	...........
	354	355	4.03358E+000	-1.74153E-006	0.00000E+000	-7.02461E-006	0.00000E+000	6.79874E-004	-3.27687E+002	7	...........
	355	356	4.03359E+000	-1.74153E-006	0.00000E+000	-7.02461E-006	0.00000E+000	6.77124E-004	-3.27687E+002	7	...........
	356	357	4.03359E+000	-1.74112E-006	0.00000E+000	-7.02297E-006	0.00000E+000	6.77740E-004	-3.27687E+002	7	...........
	357	358	4.03360E+000	-1.74117E-006	0.00000E+000	-7.02317E-006	0.00000E+000	6.76224E-004	-3.27687E+002	7	...........
	358	359	4.03360E+000	-1.74146E-006	0.00000E+000	-7.02434E-006	0.00000E+000	6.77424E-004	-3.27687E+002	7	...........
	359	360	4.03361E+000	-1.74149E-006	0.00000E+000	-7.02449E-006	0.00000E+000	6.77790E-004	-3.27687E+002	7	...........
	360	361	4.03361E+000	-1.74161E-006	0.00000E+000	-7.02496E-006	0.00000E+000	6.76807E-004	-3.27687E+002	7	...........
	361	362	4.03362E+000	-1.74204E-006	0.00000E+000	-7.02673E-006	0.00000E+000	6.75757E-004	-3.27687E+002	7	...........
	362	363	4.03362E+000	-1.74227E-006	0.00000E+000	-7.02767E-006	0.00000E+000	6.76557E-004	-3.27687E+002	7	...........
	363	364	4.03363E+000	-1.74188E-006	0.00000E+000	-7.02608E-006	0.00000E+000	6.74940E-004	-3.27687E+002	7	...........
	364	365	4.03363E+000	-1.74146E-006	0.00000E+000	-7.02440E-006	0.00000E+000	6.74990E-004	-3.27687E+002	7	...........
	365	366	4.03363E+000	-1.74093E-006	0.00000E+000	-7.02226E-006	0.00000E+000	6.74357E-004	-3.27687E+002	7	...........
	366	367	4.03363E+000	-1.74168E-006	0.00000E+000	-7.02527E-006	0.00000E+000	6.75490E-004	-3.27687E+002	7	...........
	367	368	4.03363E+000	-1.74156E-006	0.00000E+000	-7.02481E-006	0.00000E+000	6.76074E-004	-3.27687E+002	7	...........
	368	369	4.03364E+000	-1.74117E-006	0.00000E+000	-7.02325E-006	0.00000E+000	6.77340E-004	-3.27687E+002	7	...........
	369	370	4.03365E+000	-1.74117E-006	0.00000E+000	-7.02329E-006	0.00000E+000	6.76257E-004	-3.27687E+002	7	...........
	370	371	4.03365E+000	-1.74151E-006	0.00000E+000	-7.02465E-006	0.00000E+000	6.76140E-004	-3.27687E+002	7	...........
	371	372	4.03365E+000	-1.74158E-006	0.00000E+000	-7.02494E-006	0.00000E+000	6.76274E-004	-3.27687E+002	7	...........
	372	373	4.03365E+000	-1.74131E-006	0.00000E+000	-7.02382E-006	0.00000E+000	6.77490E-004	-3.27687E+002	7	...........
	373	374	4.03365E+000	-1.74167E-006	0.00000E+000	-7.02530E-006	0.00000E+000	6.76440E-004	-3.27687E+002	7	...........
	374	375	4.03365E+000	-1.74144E-006	0.00000E+000	-7.02436E-006	0.00000E+000	6.75074E-004	-3.27687E+002	7	...........
	375	376	4.03364E+000	-1.74163E-006	0.00000E+000	-7.02509E-006	0.00000E+000	6.76557E-004	-3.27687E+002	7	...........
	376	377	4.03365E+000	-1.74148E-006	0.00000E+000	-7.02454E-006	0.00000E+000	6.76957E-004	-3.27687E+002	7	...........
	377	378	4.03365E+000	-1.74172E-006	0.00000E+000	-7.02551E-006	0.00000E+000	6.77607E-004	-3.27687E+002	7	...........
	378	379	4.03367E+000	-1.74127E-006	0.00000E+000	-7.02370E-006	0.00000E+000	6.77374E-004	-3.27687E+002	7	...........
	379	380	4.03366E+000	-1.74087E-006	0.00000E+000	-7.02209E-006	0.00000E+000	6.77107E-004	-3.27687E+002	7	...........
	380	381	4.03367E+000	-1.74056E-006	0.00000E+000	-7.02082E-006	0.00000E+000	6.76057E-004	-3.27687E+002	7	...........
	381	382	4.03367E+000	-1.74145E-006	0.00000E+000	-7.02445E-006	0.00000E+000	6.78540E-004	-3.27687E+002	7	...........
	382	383	4.03366E+000	-1.74129E-006	0.00000E+000	-7.02376E-006	0.00000E+000	6.76324E-004	-3.27687E+002	7	...........
	383	384	4.03367E+000	-1.74132E-006	0.00000E+000	-7.02393E-006	0.00000E+000	6.74974E-004	-3.27687E+002	7	...........
	384	385	4.03368E+000	-1.74099E-006	0.00000E+000	-7.02259E-006	0.00000E+000	6.76207E-004	-3.27687E+002	7	...........
	385	386	4.03367E+000	-1.74122E-006	0.00000E+000	-7.02351E-006	0.00000E+000	6.76224E-004	-3.27687E+002	7	...........
	386	387	4.03368E+000	-1.74143E-006	0.00000E+000	-7.02437E-006	0.00000E+000	6.77607E-004	-3.27687E+002	7	...........
	387	388	4.03368E+000	-1.74170E-006	0.00000E+000	-7.02545E-006	0.00000E+000	6.73757E-004	-3.27687E+002	7	...........
	388	389	4.03369E+000	-1.74190E-006	0.00000E+000	-7.02627E-006	0.00000E+000	6.76007E-004	-3.27687E+002	7	...........
	389	390	4.03369E+000	-1.74112E-006	0.00000E+000	-7.02312E-006	0.00000E+000	6.77890E-004	-3.27687E+002	7	...........
	390	391	4.03369E+000	-1.74157E-006	0.00000E+000	-7.02496E-006	0.00000E+000	6.78724E-004	-3.27687E+002	7	...........
	391	392	4.03370E+000	-1.74210E-006	0.00000E+000	-7.02711E-006	0.00000E+000	6.75474E-004	-3.27687E+002	7	...........
	392	393	4.03370E+000	-1.74188E-006	0.00000E+000	-7.02621E-006	0.00000E+000	6.74024E-004	-3.27687E+002	7	...........
	393	394	4.03370E+000	-1.74091E-006	0.00000E+000	-7.02233E-006	0.00000E+000	6.74874E-004	-3.27687E+002	7	...........
	394	395	4.03371E+000	-1.74074E-006	0.00000E+000	-7.02166E-006	0.00000E+000	6.75474E-004	-3.27687E+002	7	...........
	395	396	4.03371E+000	-1.74119E-006	0.00000E+000	-7.02346E-006	0.00000E+000	6.76640E-004	-3.27687E+002	7	...........
	396	397	4.03372E+000	-1.74115E-006	0.00000E+000	-7.02330E-006	0.00000E+000	6.75040E-004	-3.27687E+002	7	...........
	397	398	4.03372E+000	-1.74114E-006	0.00000E+000	-7.02326E-006	0.00000E+000	6.74657E-004	-3.27687E+002	7	...........
	398	399	4.03372E+000	-1.74103E-006	0.00000E+000	-7.02284E-006	0.00000E+000	6.74724E-004	-3.27687E+002	7	...........
	399	400	4.03373E+000	-1.74090E-006	0.00000E+000	-7.02231E-006	0.00000E+000	6.76974E-004	-3.27687E+002	7	...........
	400	401	4.03373E+000	-1.74105E-006	0.00000E+000	-7.02293E-006	0.00000E+000	6.77907E-004	-3.27687E+002	7	...........
	401	402	4.03374E+000	-1.74089E-006	0.00000E+000	-7.02228E-006	0.00000E+000	6.74174E-004	-3.27687E+002	7	...........
	402	403	4.03374E+000	-1.74068E-006	0.00000E+000	-7.02146E-006	0.00000E+000	6.76074E-004	-3.27687E+002	7	...........
	403	404	4.03375E+000	-1.74158E-006	0.00000E+000	-7.02508E-006	0.00000E+000	6.73024E-004	-3.27687E+002	7	...........
	404	405	4.03375E+000	-1.74142E-006	0.00000E+000	-7.02447E-006	0.00000E+000	6.73657E-004	-3.27687E+002	7	...........
	405	406	4.03374E+000	-1.74143E-006	0.00000E+000	-7.02448E-006	0.00000E+000	6.72124E-004	-3.27687E+002	7	...........
	406	407	4.03377E+000	-1.74095E-006	0.00000E+000	-7.02259E-006	0.00000E+000	6.75874E-004	-3.27687E+002	7	...........
	407	408	4.03375E+000	-1.74117E-006	0.00000E+000	-7.02346E-006	0.00000E+000	6.74040E-004	-3.27687E+002	7	...........
	408	409	4.03376E+000	-1.74084E-006	0.00000E+000	-7.02213E-006	0.00000E+000	6.75357E-004	-3.27687E+002	7	...........
	409	410	4.03376E+000	-1.74055E-006	0.00000E+000	-7.02093E-006	0.00000E+000	6.75774E-004	-3.27687E+002	7	...........
	410	411	4.03376E+000	-1.74077E-006	0.00000E+000	-7.02184E-006	0.00000E+000	6.74940E-004	-3.27687E+002	7	...........
	411	412	4.03376E+000	-1.74110E-006	0.00000E+000	-7.02317E-006	0.00000E+000	6.77007E-004	-3.27687E+002	7	...........
	412	413	4.03377E+000	-1.74085E-006	0.00000E+000	-7.02218E-006	0.00000E+000	6.74507E-004	-3.27687E+002	7	...........
	413	414	4.03377E+000	-1.74054E-006	0.00000E+000	-7.02094E-006	0.00000E+000	6.74457E-004	-3.27687E+002	7	...........
	414	415	4.03378E+000	-1.74063E-006	0.00000E+000	-7.02132E-006	0.00000E+000	6.75174E-004	-3.27687E+002	7	...........
	415	416	4.03377E+000	-1.74027E-006	0.00000E+000	-7.01984E-006	0.00000E+000	6.74957E-004	-3.27687E+002	7	...........
	416	417	4.03377E+000	-1.74065E-006	0.00000E+000	-7.02137E-006	0.00000E+000	6.76374E-004	-3.27687E+002	7	...........
	417	418	4.03378E+000	-1.74107E-006	0.00000E+000	-7.02310E-006	0.00000E+000	6.79574E-004	-3.27687E+002	7	...........
	418	419	4.03378E+000	-1.74104E-006	0.00000E+000	-7.02296E-006	0.00000E+000	6.73624E-004	-3.27687E+002	7	...........
	419	420	4.03378E+000	-1.74122E-006	0.00000E+000	-7.02372E-006	0.00000E+000	6.78790E-004	-3.27687E+002	7	...........
	420	421	4.03379E+000	-1.74119E-006	0.00000E+000	-7.02358E-006	0.00000E+000	6.77424E-004	-3.27687E+002	7	...........
	421	422	4.03379E+000	-1.74104E-006	0.00000E+000	-7.02297E-006	0.00000E+000	6.75690E-004	-3.27687E+002	7	...........
	422	423	4.03379E+000	-1.74075E-006	0.00000E+000	-7.02180E-006	0.00000E+000	6.76640E-004	-3.27687E+002	7	...........
	423	424	4.03380E+000	-1.74019E-006	0.00000E+000	-7.01957E-006	0.00000E+000	6.73957E-004	-3.27687E+002	7	...........
	424	425	4.03380E+000	-1.74010E-006	0.00000E+000	-7.01921E-006	0.00000E+000	6.76740E-004	-3.27687E+002	7	...........
	425	426	4.03380E+000	-1.74085E-006	0.00000E+000	-7.02223E-006	0.00000E+000	6.77407E-004	-3.27687E+002	7	...........
	426	427	4.03381E+000	-1.74097E-006	0.00000E+000	-7.02272E-006	0.00000E+000	6.75040E-004	-3.27687E+002	7	...........
	427	428	4.03381E+000	-1.74049E-006	0.00000E+000	-7.02079E-006	0.00000E+000	6.76174E-004	-3.27687E+002	7	...........
	428	429	4.03382E+000	-1.74041E-006	0.00000E+000	-7.02051E-006	0.00000E+000	6.75407E-004	-3.27687E+002	7	...........
	429	430	4.03381E+000	-1.74057E-006	0.00000E+000	-7.02115E-006	0.00000E+000	6.75557E-004	-3.27687E+002	7	...........
	430	431	4.03382E+000	-1.74060E-006	0.00000E+000	-7.02128E-006	0.00000E+000	6.77740E-004	-3.27687E+002	7	...........
	431	432	4.03382E+000	-1.74056E-006	0.00000E+000	-7.02112E-006	0.00000E+000	6.77007E-004	-3.27687E+002	7	...........
	432	433	4.03382E+000	-1.74097E-006	0.00000E+000	-7.02276E-006	0.00000E+000	6.79190E-004	-3.27687E+002	7	...........
	433	434	4.03383E+000	-1.74075E-006	0.00000E+000	-7.02189E-006	0.00000E+000	6.75940E-004	-3.27687E+002	7	...........
	434	435	4.03382E+000	-1.74092E-006	0.00000E+000	-7.02257E-006	0.00000E+000	6.78574E-004	-3.27687E+002	7	...........
	435	436	4.03383E+000	-1.74060E-006	0.00000E+000	-7.02128E-006	0.00000E+000	6.74274E-004	-3.27687E+002	7	...........
	436	437	4.03384E+000	-1.74035E-006	0.00000E+000	-7.02031E-006	0.00000E+000	6.76574E-004	-3.27687E+002	7	...........
	437	438	4.03384E+000	-1.74023E-006	0.00000E+000	-7.01982E-006	0.00000E+000	6.77424E-004	-3.27687E+002	7	...........
	438	439	4.03385E+000	-1.73914E-006	0.00000E+000	-7.01545E-006	0.00000E+000	6.77690E-004	-3.27687E+002	7	...........
	439	440	4.03384E+000	-1.73985E-006	0.00000E+000	-7.01827E-006	0.00000E+000	6.77674E-004	-3.27687E+002	7	...........
	440	441	4.03384E+000	-1.74007E-006	0.00000E+000	-7.01915E-006	0.00000E+000	6.78407E-004	-3.27687E+002	7	...........
	441	442	4.03385E+000	-1.74043E-006	0.00000E+000	-7.02062E-006	0.00000E+000	6.76724E-004	-3.27687E+002	7	...........
	442	443	4.03385E+000	-1.74024E-006	0.00000E+000	-7.01986E-006	0.00000E+000	6.77857E-004	-3.27687E+002	7	...........
	443	444	4.03386E+000	-1.74049E-006	0.00000E+000	-7.02089E-006	0.00000E+000	6.75907E-004	-3.27687E+002	7	...........
	444	445	4.03386E+000	-1.74034E-006	0.00000E+000	-7.02027E-006	0.00000E+000	6.75757E-004	-3.27687E+002	7	...........
	445	446	4.03386E+000	-1.74050E-006	0.00000E+000	-7.02093E-006	0.00000E+000	6.75490E-004	-3.27687E+002	7	...........
	446	447	4.03386E+000	-1.74061E-006	0.00000E+000	-7.02137E-006	0.00000E+000	6.76240E-004	-3.27687E+002	7	...........
	447	448	4.03386E+000	-1.74066E-006	0.00000E+000	-7.02158E-006	0.00000E+000	6.73124E-004	-3.27687E+002	7	...........
	448	449	4.03387E+000	-1.74087E-006	0.00000E+000	-7.02242E-006	0.00000E+000	6.74557E-004	-3.27687E+002	7	...........
	449	450	4.03387E+000	-1.74078E-006	0.00000E+000	-7.02209E-006	0.00000E+000	6.74707E-004	-3.27687E+002	7	...........
	450	451	4.03387E+000	-1.74137E-006	0.00000E+000	-7.02445E-006	0.00000E+000	6.72940E-004	-3.27687E+002	7	...........
	451	452	4.03387E+000	-1.74102E-006	0.00000E+000	-7.02307E-006	0.00000E+000	6.75474E-004	-3.27687E+002	7	...........
	452	453	4.03386E+000	-1.74087E-006	0.00000E+000	-7.02244E-006	0.00000E+000	6.75274E-004	-3.27687E+002	7	...........
	453	454	4.03387E+000	-1.74020E-006	0.00000E+000	-7.01975E-006	0.00000E+000	6.75024E-004	-3.27687E+002	7	...........
	454	455	4.03388E+000	-1.74099E-006	0.00000E+000	-7.02296E-006	0.00000E+000	6.74957E-004	-3.27687E+002	7	...........
	455	456	4.03389E+000	-1.74054E-006	0.00000E+000	-7.02117E-006	0.00000E+000	6.76107E-004	-3.27687E+002	7	...........
	456	457	4.03390E+000	-1.74053E-006	0.00000E+000	-7.02111E-006	0.00000E+000	6.77374E-004	-3.27687E+002	7	...........
	457	458	4.03390E+000	-1.74052E-006	0.00000E+000	-7.02106E-006	0.00000E+000	6.76224E-004	-3.27687E+002	7	...........
	458	459	4.03390E+000	-1.74020E-006	0.00000E+000	-7.01979E-006	0.00000E+000	6.75840E-004	-3.27687E+002	7	...........
	459	460	4.03390E+000	-1.74020E-006	0.00000E+000	-7.01980E-006	0.00000E+000	6.75174E-004	-3.27687E+002	7	...........
	460	461	4.03391E+000	-1.74026E-006	0.00000E+000	-7.02005E-006	0.00000E+000	6.75857E-004	-3.27687E+002	7	...........
	461	462	4.03391E+000	-1.74071E-006	0.00000E+000	-7.02185E-006	0.00000E+000	6.76607E-004	-3.27687E+002	7	...........
	462	463	4.03390E+000	-1.74060E-006	0.00000E+000	-7.02140E-006	0.00000E+000	6.75674E-004	-3.27687E+002	7	...........
	463	464	4.03391E+000	-1.74099E-006	0.00000E+000	-7.02300E-006	0.00000E+000	6.76090E-004	-3.27687E+002	7	...........
	464	465	4.03392E+000	-1.74064E-006	0.00000E+000	-7.02160E-006	0.00000E+000	6.75607E-004	-3.27687E+002	7	...........
	465	466	4.03393E+000	-1.74003E-006	0.00000E+000	-7.01916E-006	0.00000E+000	6.75557E-004	-3.27687E+002	7	...........
	466	467	4.03391E+000	-1.74063E-006	0.00000E+000	-7.02154E-006	0.00000E+000	6.75124E-004	-3.27687E+002	7	...........
	467	468	4.03392E+000	-1.73936E-006	0.00000E+000	-7.01644E-006	0.00000E+000	6.75424E-004	-3.27687E+002	7	...........
	468	469	4.03391E+000	-1.73961E-006	0.00000E+000	-7.01745E-006	0.00000E+000	6.76724E-004	-3.27687E+002	7	...........
	469	470	4.03392E+000	-1.74061E-006	0.00000E+000	-7.02147E-006	0.00000E+000	6.76440E-004	-3.27687E+002	7	...........
	470	471	4.03392E+000	-1.74013E-006	0.00000E+000	-7.01955E-006	0.00000E+000	6.76774E-004	-3.27687E+002	7	...........
	471	472	4.03393E+000	-1.74008E-006	0.00000E+000	-7.01937E-006	0.00000E+000	6.75757E-004	-3.27687E+002	7	...........
	472	473	4.03393E+000	-1.74033E-006	0.00000E+000	-7.02037E-006	0.00000E+000	6.74340E-004	-3.27687E+002	7	...........
	473	474	4.03394E+000	-1.74038E-006	0.00000E+000	-7.02057E-006	0.00000E+000	6.76557E-004	-3.27687E+002	7	...........
	474	475	4.03393E+000	-1.74032E-006	0.00000E+000	-7.02032E-006	0.00000E+000	6.73774E-004	-3.27687E+002	7	...........
	475	476	4.03393E+000	-1.74124E-006	0.00000E+000	-7.02403E-006	0.00000E+000	6.75924E-004	-3.27687E+002	7	...........
	476	477	4.03395E+000	-1.74148E-006	0.00000E+000	-7.02503E-006	0.00000E+000	6.73524E-004	-3.27687E+002	7	...........
	477	478	4.03394E+000	-1.74110E-006	0.00000E+000	-7.02348E-006	0.00000E+000	6.75824E-004	-3.27687E+002	7	...........
	478	479	4.03395E+000	-1.74119E-006	0.00000E+000	-7.02387E-006	0.00000E+000	6.74457E-004	-3.27687E+002	7	...........
	479	480	4.03394E+000	-1.74131E-006	0.00000E+000	-7.02433E-006	0.00000E+000	6.78207E-004	-3.27687E+002	7	...........
	480	481	4.03395E+000	-1.74051E-006	0.00000E+000	-7.02113E-006	0.00000E+000	6.74307E-004	-3.27687E+002	7	...........
	481	482	4.03395E+000	-1.74004E-006	0.00000E+000	-7.01923E-006	0.00000E+000	6.74690E-004	-3.27687E+002	7	...........
	482	483	4.03395E+000	-1.73945E-006	0.00000E+000	-7.01686E-006	0.00000E+000	6.73590E-004	-3.27687E+002	7	...........
	483	484	4.03396E+000	-1.73991E-006	0.00000E+000	-7.01871E-006	0.00000E+000	6.73540E-004	-3.27687E+002	7	...........
	484	485	4.03397E+000	-1.74028E-006	0.00000E+000	-7.02023E-006	0.00000E+000	6.74607E-004	-3.27687E+002	7	...........
	485	486	4.03396E+000	-1.73996E-006	0.00000E+000	-7.01892E-006	0.00000E+000	6.74007E-004	-3.27687E+002	7	...........
	486	487	4.03397E+000	-1.74004E-006	0.00000E+000	-7.01927E-006	0.00000E+000	6.70440E-004	-3.27687E+002	7	...........
	487	488	4.03397E+000	-1.73946E-006	0.00000E+000	-7.01692E-006	0.00000E+000	6.73690E-004	-3.27687E+002	7	...........
	488	489	4.03397E+000	-1.73994E-006	0.00000E+000	-7.01888E-006	0.00000E+000	6.76624E-004	-3.27687E+002	7	...........
	489	490	4.03398E+000	-1.74023E-006	0.00000E+000	-7.02006E-006	0.00000E+000	6.74524E-004	-3.27687E+002	7	...........
	490	491	4.03398E+000	-1.74067E-006	0.00000E+000	-7.02183E-006	0.00000E+000	6.74857E-004	-3.27687E+002	7	...........
	491	492	4.03399E+000	-1.74066E-006	0.00000E+000	-7.02183E-006	0.00000E+000	6.73640E-004	-3.27687E+002	7	...........
	492	493	4.03398E+000	-1.74038E-006	0.00000E+000	-7.02067E-006	0.00000E+000	6.73490E-004	-3.27687E+002	7	...........
	493	494	4.03399E+000	-1.74068E-006	0.00000E+000	-7.02190E-006	0.00000E+000	6.72024E-004	-3.27687E+002	7	...........
	494	495	4.03400E+000	-1.74120E-006	0.00000E+000	-7.02401E-006	0.00000E+000	6.73124E-004	-3.27687E+002	7	...........
	495	496	4.03399E+000	-1.74111E-006	0.00000E+000	-7.02363E-006	0.00000E+000	6.72007E-004	-3.27687E+002	7	...........
	496	497	4.03399E+000	-1.74070E-006	0.00000E+000	-7.02195E-006	0.00000E+000	6.72907E-004	-3.27687E+002	7	...........
	497	498	4.03400E+000	-1.74009E-006	0.00000E+000	-7.01953E-006	0.00000E+000	6.73674E-004	-3.27687E+002	7	...........
	498	499	4.03401E+000	-1.74057E-006	0.00000E+000	-7.02147E-006	0.00000E+000	6.74674E-004	-3.27687E+002	7	...........
	499	500	4.03401E+000	-1.74082E-006	0.00000E+000	-7.02247E-006	0.00000E+000	6.74757E-004	-3.27687E+002	7	...........
	500	501	4.03401E+000	-1.74099E-006	0.00000E+000	-7.02317E-006	0.00000E+000	6.75724E-004	-3.27687E+002	7	...........
	501	502	4.03401E+000	-1.74041E-006	0.00000E+000	-7.02085E-006	0.00000E+000	6.73090E-004	-3.27687E+002	7	...........
	502	503	4.03401E+000	-1.74043E-006	0.00000E+000	-7.02091E-006	0.00000E+000	6.72307E-004	-3.27687E+002	7	...........
	503	504	4.03401E+000	-1.74048E-006	0.00000E+000	-7.02112E-006	0.00000E+000	6.72590E-004	-3.27687E+002	7	...........
	504	505	4.03401E+000	-1.74040E-006	0.00000E+000	-7.02081E-006	0.00000E+000	6.72307E-004	-3.27687E+002	7	...........
	505	506	4.03401E+000	-1.74042E-006	0.00000E+000	-7.02090E-006	0.00000E+000	6.71940E-004	-3.27687E+002	7	...........
	506	507	4.03401E+000	-1.74032E-006	0.00000E+000	-7.02046E-006	0.00000E+000	6.73057E-004	-3.27687E+002	7	...........
	507	508	4.03402E+000	-1.74063E-006	0.00000E+000	-7.02172E-006	0.00000E+000	6.73957E-004	-3.27687E+002	7	...........
	508	509	4.03403E+000	-1.74116E-006	0.00000E+000	-7.02387E-006	0.00000E+000	6.72140E-004	-3.27687E+002	7	...........
	509	510	4.03403E+000	-1.74068E-006	0.00000E+000	-7.02197E-006	0.00000E+000	6.75840E-004	-3.27687E+002	7	...........
	510	511	4.03403E+000	-1.74033E-006	0.00000E+000	-7.02052E-006	0.00000E+000	6.74540E-004	-3.27687E+002	7	...........
	511	512	4.03403E+000	-1.73976E-006	0.00000E+000	-7.01824E-006	0.00000E+000	6.73957E-004	-3.27687E+002	7	...........
	512	513	4.03403E+000	-1.73961E-006	0.00000E+000	-7.01762E-006	0.00000E+000	6.72090E-004	-3.27687E+002	7	...........
	513	514	4.03403E+000	-1.74027E-006	0.00000E+000	-7.02033E-006	0.00000E+000	6.75074E-004	-3.27687E+002	7	...........
	514	515	4.03404E+000	-1.74028E-006	0.00000E+000	-7.02036E-006	0.00000E+000	6.72857E-004	-3.27687E+002	7	...........
	515	516	4.03403E+000	-1.74007E-006	0.00000E+000	-7.01952E-006	0.00000E+000	6.71590E-004	-3.27687E+002	7	...........
	516	517	4.03404E+000	-1.73970E-006	0.00000E+000	-7.01802E-006	0.00000E+000	6.75674E-004	-3.27687E+002	7	...........
	517	518	4.03404E+000	-1.73987E-006	0.00000E+000	-7.01870E-006	0.00000E+000	6.73457E-004	-3.27687E+002	7	...........
	518	519	4.03404E+000	-1.74030E-006	0.00000E+000	-7.02044E-006	0.00000E+000	6.74324E-004	-3.27687E+002	7	...........
	519	520	4.03404E+000	-1.74014E-006	0.00000E+000	-7.01979E-006	0.00000E+000	6.76524E-004	-3.27687E+002	7	...........
	520	521	4.03404E+000	-1.73990E-006	0.00000E+000	-7.01881E-006	0.00000E+000	6.76874E-004	-3.27687E+002	7	...........
	521	522	4.03405E+000	-1.74016E-006	0.00000E+000	-7.01991E-006	0.00000E+000	6.74224E-004	-3.27687E+002	7	...........
	522	523	4.03405E+000	-1.74050E-006	0.00000E+000	-7.02125E-006	0.00000E+000	6.78007E-004	-3.27687E+002	7	...........
	523	524	4.03406E+000	-1.74050E-006	0.00000E+000	-7.02127E-006	0.00000E+000	6.79174E-004	-3.27687E+002	7	...........
	524	525	4.03406E+000	-1.74013E-006	0.00000E+000	-7.01980E-006	0.00000E+000	6.76007E-004	-3.27687E+002	7	...........
	525	526	4.03406E+000	-1.73952E-006	0.00000E+000	-7.01732E-006	0.00000E+000	6.75140E-004	-3.27687E+002	7	...........
	526	527	4.03407E+000	-1.73959E-006	0.00000E+000	-7.01761E-006	0.00000E+000	6.75157E-004	-3.27687E+002	7	...........
	527	528	4.03408E+000	-1.73995E-006	0.00000E+000	-7.01910E-006	0.00000E+000	6.73474E-004	-3.27687E+002	7	...........
	528	529	4.03407E+000	-1.73965E-006	0.00000E+000	-7.01786E-006	0.00000E+000	6.75057E-004	-3.27687E+002	7	...........
	529	530	4.03407E+000	-1.73958E-006	0.00000E+000	-7.01760E-006	0.00000E+000	6.72974E-004	-3.27687E+002	7	...........
	530	531	4.03407E+000	-1.73911E-006	0.00000E+000	-7.01571E-006	0.00000E+000	6.74390E-004	-3.27687E+002	7	...........
	531	532	4.03408E+000	-1.73904E-006	0.00000E+000	-7.01542E-006	0.00000E+000	6.72507E-004	-3.27687E+002	7	...........
	532	533	4.03407E+000	-1.73934E-006	0.00000E+000	-7.01662E-006	0.00000E+000	6.71957E-004	-3.27687E+002	7	...........
	533	534	4.03409E+000	-1.73930E-006	0.00000E+000	-7.01650E-006	0.00000E+000	6.73157E-004	-3.27687E+002	7	...........
	534	535	4.03409E+000	-1.73980E-006	0.00000E+000	-7.01852E-006	0.00000E+000	6.73440E-004	-3.27687E+002	7	...........
	535	536	4.03408E+000	-1.74008E-006	0.00000E+000	-7.01962E-006	0.00000E+000	6.73674E-004	-3.27687E+002	7	...........
	536	537	4.03409E+000	-1.74006E-006	0.00000E+000	-7.01956E-006	0.00000E+000	6.73840E-004	-3.27687E+002	7	...........
	537	538	4.03409E+000	-1.74029E-006	0.00000E+000	-7.02049E-006	0.00000E+000	6.76574E-004	-3.27687E+002	7	...........
	538	539	4.03410E+000	-1.73999E-006	0.00000E+000	-7.01929E-006	0.00000E+000	6.74590E-004	-3.27687E+002	7	...........
	539	540	4.03409E+000	-1.74029E-006	0.00000E+000	-7.02049E-006	0.00000E+000	6.73590E-004	-3.27687E+002	7	...........
	540	541	4.03410E+000	-1.74000E-006	0.00000E+000	-7.01932E-006	0.00000E+000	6.75224E-004	-3.27687E+002	7	...........
	541	542	4.03410E+000	-1.73951E-006	0.00000E+000	-7.01737E-006	0.00000E+000	6.72740E-004	-3.27687E+002	7	...........
	542	543	4.03410E+000	-1.74002E-006	0.00000E+000	-7.01942E-006	0.00000E+000	6.74924E-004	-3.27687E+002	7	...........
	543	544	4.03409E+000	-1.74045E-006	0.00000E+000	-7.02115E-006	0.00000E+000	6.74040E-004	-3.27687E+002	7	...........
	544	545	4.03411E+000	-1.73994E-006	0.00000E+000	-7.01910E-006	0.00000E+000	6.74474E-004	-3.27687E+002	7	...........
	545	546	4.03410E+000	-1.73932E-006	0.00000E+000	-7.01658E-006	0.00000E+000	6.74657E-004	-3.27687E+002	7	...........
	546	547	4.03410E+000	-1.73956E-006	0.00000E+000	-7.01757E-006	0.00000E+000	6.74757E-004	-3.27687E+002	7	...........
	547	548	4.03411E+000	-1.73956E-006	0.00000E+000	-7.01758E-006	0.00000E+000	6.74090E-004	-3.27687E+002	7	...........
	548	549	4.03411E+000	-1.73998E-006	0.00000E+000	-7.01927E-006	0.00000E+000	6.71357E-004	-3.27687E+002	7	...........
	549	550	4.03411E+000	-1.74010E-006	0.00000E+000	-7.01974E-006	0.00000E+000	6.73857E-004	-3.27687E+002	7	...........
	550	551	4.03412E+000	-1.74036E-006	0.00000E+000	-7.02082E-006	0.00000E+000	6.72007E-004	-3.27687E+002	7	...........
	551	552	4.03411E+000	-1.74031E-006	0.00000E+000	-7.02059E-006	0.00000E+000	6.75207E-004	-3.27687E+002	7	...........
	552	553	4.03412E+000	-1.74038E-006	0.00000E+000	-7.02091E-006	0.00000E+000	6.75190E-004	-3.27687E+002	7	...........
	553	554	4.03412E+000	-1.74007E-006	0.00000E+000	-7.01967E-006	0.00000E+000	6.75740E-004	-3.27687E+002	7	...........
	554	555	4.03413E+000	-1.73978E-006	0.00000E+000	-7.01848E-006	0.00000E+000	6.74174E-004	-3.27687E+002	7	...........
	555	556	4.03413E+000	-1.73973E-006	0.00000E+000	-7.01827E-006	0.00000E+000	6.75740E-004	-3.27687E+002	7	...........
	556	557	4.03413E+000	-1.73927E-006	0.00000E+000	-7.01644E-006	0.00000E+000	6.73390E-004	-3.27687E+002	7	...........
	557	558	4.03414E+000	-1.74016E-006	0.00000E+000	-7.02006E-006	0.00000E+000	6.74374E-004	-3.27687E+002	7	...........
	558	559	4.03414E+000	-1.74047E-006	0.00000E+000	-7.02128E-006	0.00000E+000	6.73490E-004	-3.27687E+002	7	...........
	559	560	4.03415E+000	-1.74004E-006	0.00000E+000	-7.01956E-006	0.00000E+000	6.72790E-004	-3.27687E+002	7	...........
	560	561	4.03415E+000	-1.74019E-006	0.00000E+000	-7.02017E-006	0.00000E+000	6.75707E-004	-3.27687E+002	7	...........
	561	562	4.03415E+000	-1.74077E-006	0.00000E+000	-7.02252E-006	0.00000E+000	6.77507E-004	-3.27687E+002	7	...........
	562	563	4.03416E+000	-1.74032E-006	0.00000E+000	-7.02072E-006	0.00000E+000	6.73324E-004	-3.27687E+002	7	...........
	563	564	4.03416E+000	-1.74017E-006	0.00000E+000	-7.02010E-006	0.00000E+000	6.76407E-004	-3.27687E+002	7	...........
	564	565	4.03416E+000	-1.74038E-006	0.00000E+000	-7.02096E-006	0.00000E+000	6.75090E-004	-3.27687E+002	7	...........
	565	566	4.03415E+000	-1.74078E-006	0.00000E+000	-7.02256E-006	0.00000E+000	6.75590E-004	-3.27687E+002	7	...........
	566	567	4.03416E+000	-1.74090E-006	0.00000E+000	-7.02308E-006	0.00000E+000	6.73040E-004	-3.27687E+002	7	...........
	567	568	4.03416E+000	-1.74062E-006	0.00000E+000	-7.02195E-006	0.00000E+000	6.74024E-004	-3.27687E+002	7	...........
	568	569	4.03416E+000	-1.74048E-006	0.00000E+000	-7.02138E-006	0.00000E+000	6.74957E-004	-3.27687E+002	7	...........
	569	570	4.03417E+000	-1.74041E-006	0.00000E+000	-7.02110E-006	0.00000E+000	6.76290E-004	-3.27687E+002	7	...........
	570	571	4.03417E+000	-1.73937E-006	0.00000E+000	-7.01691E-006	0.00000E+000	6.75424E-004	-3.27687E+002	7	...........
	571	572	4.03418E+000	-1.73972E-006	0.00000E+000	-7.01834E-006	0.00000E+000	6.73940E-004	-3.27687E+002	7	...........
	572	573	4.03417E+000	-1.74049E-006	0.00000E+000	-7.02145E-006	0.00000E+000	6.72790E-004	-3.27687E+002	7	...........
	573	574	4.03418E+000	-1.74009E-006	0.00000E+000	-7.01982E-006	0.00000E+000	6.73074E-004	-3.27687E+002	7	...........
	574	575	4.03418E+000	-1.73987E-006	0.00000E+000	-7.01894E-006	0.00000E+000	6.72857E-004	-3.27687E+002	7	...........
	575	576	4.03418E+000	-1.74004E-006	0.00000E+000	-7.01964E-006	0.00000E+000	6.75024E-004	-3.27687E+002	7	...........
	576	577	4.03418E+000	-1.74010E-006	0.00000E+000	-7.01990E-006	0.00000E+000	6.73474E-004	-3.27687E+002	7	...........
	577	578	4.03418E+000	-1.74019E-006	0.00000E+000	-7.02025E-006	0.00000E+000	6.75490E-004	-3.27687E+002	7	...........
	578	579	4.03418E+000	-1.74038E-006	0.00000E+000	-7.02101E-006	0.00000E+000	6.74974E-004	-3.27687E+002	7	...........
	579	580	4.03419E+000	-1.74047E-006	0.00000E+000	-7.02141E-006	0.00000E+000	6.73374E-004	-3.27687E+002	7	...........
	580	581	4.03419E+000	-1.74038E-006	0.00000E+000	-7.02102E-006	0.00000E+000	6.72957E-004	-3.27687E+002	7	...........
	581	582	4.03419E+000	-1.74071E-006	0.00000E+000	-7.02235E-006	0.00000E+000	6.71440E-004	-3.27687E+002	7	...........
	582	583	4.03420E+000	-1.74027E-006	0.00000E+000	-7.02060E-006	0.00000E+000	6.75657E-004	-3.27687E+002	7	...........
	583	584	4.03420E+000	-1.74065E-006	0.00000E+000	-7.02214E-006	0.00000E+000	6.73057E-004	-3.27687E+002	7	...........
	584	585	4.03420E+000	-1.74030E-006	0.00000E+000	-7.02072E-006	0.00000E+000	6.75024E-004	-3.27687E+002	7	...........
	585	586	4.03419E+000	-1.73930E-006	0.00000E+000	-7.01667E-006	0.00000E+000	6.74740E-004	-3.27687E+002	7	...........
	586	587	4.03420E+000	-1.74015E-006	0.00000E+000	-7.02012E-006	0.00000E+000	6.71824E-004	-3.27687E+002	7	...........
	587	588	4.03421E+000	-1.74059E-006	0.00000E+000	-7.02192E-006	0.00000E+000	6.72840E-004	-3.27687E+002	7	...........
	588	589	4.03421E+000	-1.74003E-006	0.00000E+000	-7.01965E-006	0.00000E+000	6.74824E-004	-3.27687E+002	7	...........
	589	590	4.03420E+000	-1.73998E-006	0.00000E+000	-7.01942E-006	0.00000E+000	6.74074E-004	-3.27687E+002	7	...........
	590	591	4.03421E+000	-1.73989E-006	0.00000E+000	-7.01910E-006	0.00000E+000	6.77007E-004	-3.27687E+002	7	...........
	591	592	4.03421E+000	-1.73968E-006	0.00000E+000	-7.01821E-006	0.00000E+000	6.75540E-004	-3.27687E+002	7	...........
	592	593	4.03421E+000	-1.74019E-006	0.00000E+000	-7.02027E-006	0.00000E+000	6.76007E-004	-3.27687E+002	7	...........
	593	594	4.03421E+000	-1.74036E-006	0.00000E+000	-7.02095E-006	0.00000E+000	6.73740E-004	-3.27687E+002	7	...........
	594	595	4.03421E+000	-1.74019E-006	0.00000E+000	-7.02031E-006	0.00000E+000	6.74357E-004	-3.27687E+002	7	...........
	595	596	4.03421E+000	-1.74025E-006	0.00000E+000	-7.02053E-006	0.00000E+000	6.75124E-004	-3.27687E+002	7	...........
	596	597	4.03421E+000	-1.74085E-006	0.00000E+000	-7.02294E-006	0.00000E+000	6.74407E-004	-3.27687E+002	7	...........
	597	598	4.03422E+000	-1.74038E-006	0.00000E+000	-7.02107E-006	0.00000E+000	6.74190E-004	-3.27687E+002	7	...........
	598	599	4.03422E+000	-1.74049E-006	0.00000E+000	-7.02152E-006	0.00000E+000	6.75524E-004	-3.27687E+002	7	...........
	599	600	4.03422E+000	-1.73983E-006	0.00000E+000	-7.01886E-006	0.00000E+000	6.76324E-004	-3.27687E+002	7	...........
