EXPLAIN
TAG	PWR800_READVOLTAGE
TITLE	LABEL	PWR Read Voltage	Test Identifier
DATE	LABEL	23.4.2024	Date
TIME	LABEL	6:31:58	Time
NOTES	NOTES	1	Notes...
	
PSTAT	PSTAT	REF600-12055	Potentiostat
CAPACITY	QUANT	1.00000E+000	Capacity (A-hr)
CELLTYPE	SELECTOR	1	Cell Type
WORKINGCONNECTION	SELECTOR	0	Working Connection
MAXTIME	VARIABLEANDUNITS	6.00000E+002	s	6.00000E+002	second(s)	Max Time
SAMPLETIME	QUANT	1.00000E+000	Sample Period (s)
STOPAT1	MULTIPARAM	0	0.00000E+000	Stop At 1	None	N/A
STOPAT2	MULTIPARAM	0	0.00000E+000	Stop At 2	None	N/A
AESBHCSELECTOR	TOGGLE	F	Save Both Half Cells
EOC	QUANT	3.751237	Open Circuit (V)
SEQUENCER	TOGGLE	TRUE	Run as Sequence
PSTATMODEL	IQUANT	4	Pstat Model
PSTATSECTION	LABEL	REF600-12055	Pstat Section
PSTATSERIALNO	LABEL	12055	Pstat Serial Number
CTRLMODE	IQUANT	0	Control Mode
ELECTROMETER	IQUANT	0	RE=0 or CS=1
IESTAB	IQUANT	0	I/E Stability
CASPEED	IQUANT	4	Control Amp Speed
CONVENTION	IQUANT	1	Current Convention
ICHRANGE	IQUANT	2	Ich Range
ICHRANGEMODE	TOGGLE	T	Ich Auto Range
ICHOFFSETENABLE	TOGGLE	F	Ich Offset Enable
ICHOFFSET	QUANT	0	Ich Offset (V)
ICHFILTER	IQUANT	1	Ich Filter
VCHRANGE	IQUANT	3	Vch Range
VCHRANGEMODE	TOGGLE	T	Vch Auto Range
VCHOFFSETENABLE	TOGGLE	F	Vch Offset Enable
VCHOFFSET	QUANT	0	Vch Offset (V)
VCHFILTER	IQUANT	1	Vch Filter
ACHRANGE	IQUANT	2	Ach Range
ACHOFFSETENABLE	TOGGLE	F	Ach Offset Enable
ACHOFFSET	QUANT	0	Ach Offset (V)
ACHFILTER	IQUANT	1	Ach Filter
IERANGELOWERLIMIT	IQUANT	7	I/E Range Lower Limit
IERANGEMODE	TOGGLE	F	I/E AutoRange
IERANGE	IQUANT	11	I/E Range
POSFEEDENABLE	TOGGLE	F	Positive Feedback IR Comp
POSFEEDRESISTANCE	QUANT	0	Positive Feedback Resistance (ohm)
ACHSELECT	IQUANT	4	Ach Select
SENSECABLEID	IQUANT	14	Sense Cable ID
PWRCABLEID	IQUANT	14	Power Cable ID
DCCALDATE	LABEL	2/12/2024	DC Calibration Date
ACCALDATE	LABEL	2/12/2024	AC Calibration Date
THERMOSELECT	IQUANT	1	Thermo Select
FRAMEWORKVERSION	LABEL	7.10.3	Framework Version
INSTRUMENTVERSION	LABEL	4.91	Instrument Version
COMMVERSION	LABEL	2.24	Communications Version
CPUPLDVERSION	LABEL	0.00	CPU PLD Version
CTRLPLDVERSION	LABEL	0.00	CTRL PLD Version
PSTATPLDVERSION	LABEL	0.00	PSTAT PLD Version
CURVE	TABLE	600
	Pt	T	Vf	Im	Vu	Pwr	Sig	Ach	Temp	IERange	Over
	#	s	V	A	V	W	V	V	deg C	#	bits
	0	1	3.65522E+000	-1.40119E-006	0.00000E+000	-5.12167E-006	0.00000E+000	8.97974E-004	-3.27687E+002	7	...........
	1	2	3.65541E+000	-1.39915E-006	0.00000E+000	-5.11446E-006	0.00000E+000	8.98774E-004	-3.27687E+002	7	...........
	2	3	3.65556E+000	-1.39797E-006	0.00000E+000	-5.11037E-006	0.00000E+000	9.03007E-004	-3.27687E+002	7	...........
	3	4	3.65570E+000	-1.39754E-006	0.00000E+000	-5.10897E-006	0.00000E+000	9.02707E-004	-3.27687E+002	7	...........
	4	5	3.65582E+000	-1.39669E-006	0.00000E+000	-5.10606E-006	0.00000E+000	9.04690E-004	-3.27687E+002	7	...........
	5	6	3.65594E+000	-1.39569E-006	0.00000E+000	-5.10256E-006	0.00000E+000	9.01457E-004	-3.27687E+002	7	...........
	6	7	3.65605E+000	-1.39560E-006	0.00000E+000	-5.10239E-006	0.00000E+000	9.04174E-004	-3.27687E+002	7	...........
	7	8	3.65615E+000	-1.39539E-006	0.00000E+000	-5.10175E-006	0.00000E+000	9.03290E-004	-3.27687E+002	7	...........
	8	9	3.65626E+000	-1.39445E-006	0.00000E+000	-5.09847E-006	0.00000E+000	9.01707E-004	-3.27687E+002	7	...........
	9	10	3.65634E+000	-1.39392E-006	0.00000E+000	-5.09667E-006	0.00000E+000	9.02424E-004	-3.27687E+002	7	...........
	10	11	3.65642E+000	-1.39321E-006	0.00000E+000	-5.09416E-006	0.00000E+000	9.00724E-004	-3.27687E+002	7	...........
	11	12	3.65650E+000	-1.39252E-006	0.00000E+000	-5.09174E-006	0.00000E+000	8.98574E-004	-3.27687E+002	7	...........
	12	13	3.65656E+000	-1.39222E-006	0.00000E+000	-5.09075E-006	0.00000E+000	8.99707E-004	-3.27687E+002	7	...........
	13	14	3.65662E+000	-1.39133E-006	0.00000E+000	-5.08757E-006	0.00000E+000	8.97690E-004	-3.27687E+002	7	...........
	14	15	3.65669E+000	-1.39056E-006	0.00000E+000	-5.08484E-006	0.00000E+000	9.00107E-004	-3.27687E+002	7	...........
	15	16	3.65675E+000	-1.38958E-006	0.00000E+000	-5.08133E-006	0.00000E+000	8.99724E-004	-3.27687E+002	7	...........
	16	17	3.65681E+000	-1.38913E-006	0.00000E+000	-5.07978E-006	0.00000E+000	9.00624E-004	-3.27687E+002	7	...........
	17	18	3.65686E+000	-1.38828E-006	0.00000E+000	-5.07676E-006	0.00000E+000	9.02940E-004	-3.27687E+002	7	...........
	18	19	3.65692E+000	-1.38749E-006	0.00000E+000	-5.07395E-006	0.00000E+000	9.04624E-004	-3.27687E+002	7	...........
	19	20	3.65697E+000	-1.38650E-006	0.00000E+000	-5.07039E-006	0.00000E+000	9.02957E-004	-3.27687E+002	7	...........
	20	21	3.65702E+000	-1.38619E-006	0.00000E+000	-5.06933E-006	0.00000E+000	7.35457E-004	-3.27687E+002	7	...........
	21	22	3.65708E+000	-1.38609E-006	0.00000E+000	-5.06903E-006	0.00000E+000	6.53390E-004	-3.27687E+002	7	...........
	22	23	3.65711E+000	-1.38524E-006	0.00000E+000	-5.06596E-006	0.00000E+000	6.54607E-004	-3.27687E+002	7	...........
	23	24	3.65716E+000	-1.38495E-006	0.00000E+000	-5.06497E-006	0.00000E+000	6.56774E-004	-3.27687E+002	7	...........
	24	25	3.65722E+000	-1.38473E-006	0.00000E+000	-5.06425E-006	0.00000E+000	6.55157E-004	-3.27687E+002	7	...........
	25	26	3.65726E+000	-1.38393E-006	0.00000E+000	-5.06141E-006	0.00000E+000	6.56657E-004	-3.27687E+002	7	...........
	26	27	3.65731E+000	-1.38389E-006	0.00000E+000	-5.06131E-006	0.00000E+000	6.54340E-004	-3.27687E+002	7	...........
	27	28	3.65736E+000	-1.38241E-006	0.00000E+000	-5.05597E-006	0.00000E+000	6.52474E-004	-3.27687E+002	7	...........
	28	29	3.65743E+000	-1.38140E-006	0.00000E+000	-5.05236E-006	0.00000E+000	6.54474E-004	-3.27687E+002	7	...........
	29	30	3.65747E+000	-1.38089E-006	0.00000E+000	-5.05058E-006	0.00000E+000	6.53724E-004	-3.27687E+002	7	...........
	30	31	3.65753E+000	-1.38126E-006	0.00000E+000	-5.05202E-006	0.00000E+000	6.51707E-004	-3.27687E+002	7	...........
	31	32	3.65758E+000	-1.38045E-006	0.00000E+000	-5.04912E-006	0.00000E+000	6.50374E-004	-3.27687E+002	7	...........
	32	33	3.65763E+000	-1.37973E-006	0.00000E+000	-5.04654E-006	0.00000E+000	6.50974E-004	-3.27687E+002	7	...........
	33	34	3.65770E+000	-1.37919E-006	0.00000E+000	-5.04465E-006	0.00000E+000	6.48107E-004	-3.27687E+002	7	...........
	34	35	3.65774E+000	-1.37910E-006	0.00000E+000	-5.04439E-006	0.00000E+000	6.48657E-004	-3.27687E+002	7	...........
	35	36	3.65780E+000	-1.37828E-006	0.00000E+000	-5.04146E-006	0.00000E+000	6.44457E-004	-3.27687E+002	7	...........
	36	37	3.65784E+000	-1.37862E-006	0.00000E+000	-5.04276E-006	0.00000E+000	6.43774E-004	-3.27687E+002	7	...........
	37	38	3.65789E+000	-1.37824E-006	0.00000E+000	-5.04147E-006	0.00000E+000	6.41374E-004	-3.27687E+002	7	...........
	38	39	3.65794E+000	-1.37768E-006	0.00000E+000	-5.03948E-006	0.00000E+000	6.42357E-004	-3.27687E+002	7	...........
	39	40	3.65799E+000	-1.37736E-006	0.00000E+000	-5.03836E-006	0.00000E+000	6.38140E-004	-3.27687E+002	7	...........
	40	41	3.65803E+000	-1.37641E-006	0.00000E+000	-5.03496E-006	0.00000E+000	6.39890E-004	-3.27687E+002	7	...........
	41	42	3.65808E+000	-1.37615E-006	0.00000E+000	-5.03408E-006	0.00000E+000	6.34990E-004	-3.27687E+002	7	...........
	42	43	3.65812E+000	-1.37525E-006	0.00000E+000	-5.03083E-006	0.00000E+000	6.37224E-004	-3.27687E+002	7	...........
	43	44	3.65816E+000	-1.37529E-006	0.00000E+000	-5.03102E-006	0.00000E+000	6.34240E-004	-3.27687E+002	7	...........
	44	45	3.65819E+000	-1.37488E-006	0.00000E+000	-5.02956E-006	0.00000E+000	6.35040E-004	-3.27687E+002	7	...........
	45	46	3.65822E+000	-1.37472E-006	0.00000E+000	-5.02901E-006	0.00000E+000	6.34290E-004	-3.27687E+002	7	...........
	46	47	3.65825E+000	-1.37365E-006	0.00000E+000	-5.02514E-006	0.00000E+000	6.34907E-004	-3.27687E+002	7	...........
	47	48	3.65829E+000	-1.37310E-006	0.00000E+000	-5.02319E-006	0.00000E+000	6.33940E-004	-3.27687E+002	7	...........
	48	49	3.65832E+000	-1.37378E-006	0.00000E+000	-5.02572E-006	0.00000E+000	6.35290E-004	-3.27687E+002	7	...........
	49	50	3.65835E+000	-1.37299E-006	0.00000E+000	-5.02288E-006	0.00000E+000	6.33707E-004	-3.27687E+002	7	...........
	50	51	3.65838E+000	-1.37274E-006	0.00000E+000	-5.02199E-006	0.00000E+000	6.37707E-004	-3.27687E+002	7	...........
	51	52	3.65841E+000	-1.37179E-006	0.00000E+000	-5.01857E-006	0.00000E+000	6.37090E-004	-3.27687E+002	7	...........
	52	53	3.65844E+000	-1.37231E-006	0.00000E+000	-5.02051E-006	0.00000E+000	6.39340E-004	-3.27687E+002	7	...........
	53	54	3.65847E+000	-1.37192E-006	0.00000E+000	-5.01914E-006	0.00000E+000	6.38074E-004	-3.27687E+002	7	...........
	54	55	3.65850E+000	-1.37116E-006	0.00000E+000	-5.01637E-006	0.00000E+000	6.41340E-004	-3.27687E+002	7	...........
	55	56	3.65853E+000	-1.37072E-006	0.00000E+000	-5.01483E-006	0.00000E+000	6.38607E-004	-3.27687E+002	7	...........
	56	57	3.65855E+000	-1.37061E-006	0.00000E+000	-5.01446E-006	0.00000E+000	6.40357E-004	-3.27687E+002	7	...........
	57	58	3.65859E+000	-1.37138E-006	0.00000E+000	-5.01730E-006	0.00000E+000	6.39440E-004	-3.27687E+002	7	...........
	58	59	3.65861E+000	-1.37074E-006	0.00000E+000	-5.01501E-006	0.00000E+000	6.41074E-004	-3.27687E+002	7	...........
	59	60	3.65864E+000	-1.36977E-006	0.00000E+000	-5.01150E-006	0.00000E+000	6.41357E-004	-3.27687E+002	7	...........
	60	61	3.65866E+000	-1.36985E-006	0.00000E+000	-5.01182E-006	0.00000E+000	6.43640E-004	-3.27687E+002	7	...........
	61	62	3.65869E+000	-1.36932E-006	0.00000E+000	-5.00994E-006	0.00000E+000	6.44757E-004	-3.27687E+002	7	...........
	62	63	3.65872E+000	-1.36943E-006	0.00000E+000	-5.01036E-006	0.00000E+000	6.46707E-004	-3.27687E+002	7	...........
	63	64	3.65874E+000	-1.36930E-006	0.00000E+000	-5.00992E-006	0.00000E+000	6.45657E-004	-3.27687E+002	7	...........
	64	65	3.65877E+000	-1.36881E-006	0.00000E+000	-5.00818E-006	0.00000E+000	6.48407E-004	-3.27687E+002	7	...........
	65	66	3.65879E+000	-1.36834E-006	0.00000E+000	-5.00648E-006	0.00000E+000	6.47307E-004	-3.27687E+002	7	...........
	66	67	3.65882E+000	-1.36792E-006	0.00000E+000	-5.00497E-006	0.00000E+000	6.49824E-004	-3.27687E+002	7	...........
	67	68	3.65886E+000	-1.36830E-006	0.00000E+000	-5.00643E-006	0.00000E+000	6.51357E-004	-3.27687E+002	7	...........
	68	69	3.65889E+000	-1.36758E-006	0.00000E+000	-5.00383E-006	0.00000E+000	6.52890E-004	-3.27687E+002	7	...........
	69	70	3.65892E+000	-1.36698E-006	0.00000E+000	-5.00165E-006	0.00000E+000	6.52007E-004	-3.27687E+002	7	...........
	70	71	3.65894E+000	-1.36728E-006	0.00000E+000	-5.00278E-006	0.00000E+000	6.54024E-004	-3.27687E+002	7	...........
	71	72	3.65896E+000	-1.36729E-006	0.00000E+000	-5.00286E-006	0.00000E+000	6.54240E-004	-3.27687E+002	7	...........
	72	73	3.65901E+000	-1.36659E-006	0.00000E+000	-5.00036E-006	0.00000E+000	6.55590E-004	-3.27687E+002	7	...........
	73	74	3.65902E+000	-1.36620E-006	0.00000E+000	-4.99897E-006	0.00000E+000	6.53290E-004	-3.27687E+002	7	...........
	74	75	3.65905E+000	-1.36592E-006	0.00000E+000	-4.99798E-006	0.00000E+000	6.55807E-004	-3.27687E+002	7	...........
	75	76	3.65910E+000	-1.36649E-006	0.00000E+000	-5.00013E-006	0.00000E+000	6.54857E-004	-3.27687E+002	7	...........
	76	77	3.65912E+000	-1.36632E-006	0.00000E+000	-4.99951E-006	0.00000E+000	6.57057E-004	-3.27687E+002	7	...........
	77	78	3.65914E+000	-1.36620E-006	0.00000E+000	-4.99910E-006	0.00000E+000	6.56040E-004	-3.27687E+002	7	...........
	78	79	3.65916E+000	-1.36637E-006	0.00000E+000	-4.99978E-006	0.00000E+000	6.55474E-004	-3.27687E+002	7	...........
	79	80	3.65920E+000	-1.36599E-006	0.00000E+000	-4.99844E-006	0.00000E+000	6.56324E-004	-3.27687E+002	7	...........
	80	81	3.65921E+000	-1.36567E-006	0.00000E+000	-4.99727E-006	0.00000E+000	6.56024E-004	-3.27687E+002	7	...........
	81	82	3.65924E+000	-1.36489E-006	0.00000E+000	-4.99447E-006	0.00000E+000	6.56674E-004	-3.27687E+002	7	...........
	82	83	3.65928E+000	-1.36407E-006	0.00000E+000	-4.99150E-006	0.00000E+000	6.57207E-004	-3.27687E+002	7	...........
	83	84	3.65930E+000	-1.36424E-006	0.00000E+000	-4.99217E-006	0.00000E+000	6.56374E-004	-3.27687E+002	7	...........
	84	85	3.65932E+000	-1.36450E-006	0.00000E+000	-4.99316E-006	0.00000E+000	6.56207E-004	-3.27687E+002	7	...........
	85	86	3.65935E+000	-1.36431E-006	0.00000E+000	-4.99251E-006	0.00000E+000	6.55340E-004	-3.27687E+002	7	...........
	86	87	3.65938E+000	-1.36394E-006	0.00000E+000	-4.99116E-006	0.00000E+000	6.53240E-004	-3.27687E+002	7	...........
	87	88	3.65940E+000	-1.36339E-006	0.00000E+000	-4.98918E-006	0.00000E+000	6.56724E-004	-3.27687E+002	7	...........
	88	89	3.65941E+000	-1.36382E-006	0.00000E+000	-4.99077E-006	0.00000E+000	6.55040E-004	-3.27687E+002	7	...........
	89	90	3.65944E+000	-1.36294E-006	0.00000E+000	-4.98761E-006	0.00000E+000	6.54624E-004	-3.27687E+002	7	...........
	90	91	3.65946E+000	-1.36312E-006	0.00000E+000	-4.98828E-006	0.00000E+000	6.55990E-004	-3.27687E+002	7	...........
	91	92	3.65947E+000	-1.36297E-006	0.00000E+000	-4.98773E-006	0.00000E+000	6.56574E-004	-3.27687E+002	7	...........
	92	93	3.65949E+000	-1.36273E-006	0.00000E+000	-4.98690E-006	0.00000E+000	6.54240E-004	-3.27687E+002	7	...........
	93	94	3.65952E+000	-1.36232E-006	0.00000E+000	-4.98543E-006	0.00000E+000	6.56324E-004	-3.27687E+002	7	...........
	94	95	3.65954E+000	-1.36246E-006	0.00000E+000	-4.98599E-006	0.00000E+000	6.56290E-004	-3.27687E+002	7	...........
	95	96	3.65955E+000	-1.36266E-006	0.00000E+000	-4.98672E-006	0.00000E+000	6.55457E-004	-3.27687E+002	7	...........
	96	97	3.65957E+000	-1.36202E-006	0.00000E+000	-4.98439E-006	0.00000E+000	6.54957E-004	-3.27687E+002	7	...........
	97	98	3.65959E+000	-1.36205E-006	0.00000E+000	-4.98454E-006	0.00000E+000	6.55590E-004	-3.27687E+002	7	...........
	98	99	3.65960E+000	-1.36228E-006	0.00000E+000	-4.98539E-006	0.00000E+000	6.53957E-004	-3.27687E+002	7	...........
	99	100	3.65961E+000	-1.36144E-006	0.00000E+000	-4.98234E-006	0.00000E+000	6.52557E-004	-3.27687E+002	7	...........
	100	101	3.65963E+000	-1.36075E-006	0.00000E+000	-4.97985E-006	0.00000E+000	6.56407E-004	-3.27687E+002	7	...........
	101	102	3.65964E+000	-1.36003E-006	0.00000E+000	-4.97721E-006	0.00000E+000	6.54274E-004	-3.27687E+002	7	...........
	102	103	3.65966E+000	-1.36003E-006	0.00000E+000	-4.97724E-006	0.00000E+000	6.53640E-004	-3.27687E+002	7	...........
	103	104	3.65967E+000	-1.36004E-006	0.00000E+000	-4.97730E-006	0.00000E+000	6.56140E-004	-3.27687E+002	7	...........
	104	105	3.65968E+000	-1.36044E-006	0.00000E+000	-4.97875E-006	0.00000E+000	6.54507E-004	-3.27687E+002	7	...........
	105	106	3.65969E+000	-1.36032E-006	0.00000E+000	-4.97835E-006	0.00000E+000	6.52557E-004	-3.27687E+002	7	...........
	106	107	3.65970E+000	-1.36052E-006	0.00000E+000	-4.97909E-006	0.00000E+000	6.52974E-004	-3.27687E+002	7	...........
	107	108	3.65972E+000	-1.35987E-006	0.00000E+000	-4.97672E-006	0.00000E+000	6.55190E-004	-3.27687E+002	7	...........
	108	109	3.65973E+000	-1.35996E-006	0.00000E+000	-4.97709E-006	0.00000E+000	6.56590E-004	-3.27687E+002	7	...........
	109	110	3.65974E+000	-1.35903E-006	0.00000E+000	-4.97368E-006	0.00000E+000	6.54724E-004	-3.27687E+002	7	...........
	110	111	3.65975E+000	-1.35848E-006	0.00000E+000	-4.97168E-006	0.00000E+000	6.52140E-004	-3.27687E+002	7	...........
	111	112	3.65976E+000	-1.35907E-006	0.00000E+000	-4.97389E-006	0.00000E+000	6.54307E-004	-3.27687E+002	7	...........
	112	113	3.65977E+000	-1.35895E-006	0.00000E+000	-4.97345E-006	0.00000E+000	6.54824E-004	-3.27687E+002	7	...........
	113	114	3.65978E+000	-1.35917E-006	0.00000E+000	-4.97426E-006	0.00000E+000	6.53607E-004	-3.27687E+002	7	...........
	114	115	3.65979E+000	-1.35913E-006	0.00000E+000	-4.97412E-006	0.00000E+000	6.55290E-004	-3.27687E+002	7	...........
	115	116	3.65980E+000	-1.35910E-006	0.00000E+000	-4.97402E-006	0.00000E+000	6.56140E-004	-3.27687E+002	7	...........
	116	117	3.65980E+000	-1.35874E-006	0.00000E+000	-4.97273E-006	0.00000E+000	6.56074E-004	-3.27687E+002	7	...........
	117	118	3.65982E+000	-1.35849E-006	0.00000E+000	-4.97182E-006	0.00000E+000	6.57924E-004	-3.27687E+002	7	...........
	118	119	3.65982E+000	-1.35825E-006	0.00000E+000	-4.97095E-006	0.00000E+000	6.56107E-004	-3.27687E+002	7	...........
	119	120	3.65983E+000	-1.35824E-006	0.00000E+000	-4.97091E-006	0.00000E+000	6.57924E-004	-3.27687E+002	7	...........
	120	121	3.65984E+000	-1.35801E-006	0.00000E+000	-4.97012E-006	0.00000E+000	6.59007E-004	-3.27687E+002	7	...........
	121	122	3.65984E+000	-1.35770E-006	0.00000E+000	-4.96898E-006	0.00000E+000	6.59607E-004	-3.27687E+002	7	...........
	122	123	3.65986E+000	-1.35749E-006	0.00000E+000	-4.96820E-006	0.00000E+000	6.58157E-004	-3.27687E+002	7	...........
	123	124	3.65986E+000	-1.35633E-006	0.00000E+000	-4.96397E-006	0.00000E+000	6.58990E-004	-3.27687E+002	7	...........
	124	125	3.65988E+000	-1.35656E-006	0.00000E+000	-4.96483E-006	0.00000E+000	6.60724E-004	-3.27687E+002	7	...........
	125	126	3.65988E+000	-1.35699E-006	0.00000E+000	-4.96642E-006	0.00000E+000	6.58490E-004	-3.27687E+002	7	...........
	126	127	3.65989E+000	-1.35687E-006	0.00000E+000	-4.96600E-006	0.00000E+000	6.60757E-004	-3.27687E+002	7	...........
	127	128	3.65991E+000	-1.35685E-006	0.00000E+000	-4.96596E-006	0.00000E+000	6.60174E-004	-3.27687E+002	7	...........
	128	129	3.65991E+000	-1.35627E-006	0.00000E+000	-4.96384E-006	0.00000E+000	6.60374E-004	-3.27687E+002	7	...........
	129	130	3.65991E+000	-1.35679E-006	0.00000E+000	-4.96574E-006	0.00000E+000	6.61507E-004	-3.27687E+002	7	...........
	130	131	3.65993E+000	-1.35655E-006	0.00000E+000	-4.96489E-006	0.00000E+000	6.64207E-004	-3.27687E+002	7	...........
	131	132	3.65993E+000	-1.35631E-006	0.00000E+000	-4.96399E-006	0.00000E+000	6.61440E-004	-3.27687E+002	7	...........
	132	133	3.65995E+000	-1.35615E-006	0.00000E+000	-4.96344E-006	0.00000E+000	6.62174E-004	-3.27687E+002	7	...........
	133	134	3.65995E+000	-1.35627E-006	0.00000E+000	-4.96389E-006	0.00000E+000	6.62607E-004	-3.27687E+002	7	...........
	134	135	3.65996E+000	-1.35640E-006	0.00000E+000	-4.96437E-006	0.00000E+000	6.61724E-004	-3.27687E+002	7	...........
	135	136	3.65998E+000	-1.35571E-006	0.00000E+000	-4.96186E-006	0.00000E+000	6.65007E-004	-3.27687E+002	7	...........
	136	137	3.65999E+000	-1.35502E-006	0.00000E+000	-4.95934E-006	0.00000E+000	6.66490E-004	-3.27687E+002	7	...........
	137	138	3.66000E+000	-1.35491E-006	0.00000E+000	-4.95896E-006	0.00000E+000	6.65657E-004	-3.27687E+002	7	...........
	138	139	3.66001E+000	-1.35549E-006	0.00000E+000	-4.96109E-006	0.00000E+000	6.65524E-004	-3.27687E+002	7	...........
	139	140	3.66002E+000	-1.35550E-006	0.00000E+000	-4.96114E-006	0.00000E+000	6.67657E-004	-3.27687E+002	7	...........
	140	141	3.66003E+000	-1.35514E-006	0.00000E+000	-4.95986E-006	0.00000E+000	6.67624E-004	-3.27687E+002	7	...........
	141	142	3.66005E+000	-1.35504E-006	0.00000E+000	-4.95952E-006	0.00000E+000	6.66374E-004	-3.27687E+002	7	...........
	142	143	3.66006E+000	-1.35470E-006	0.00000E+000	-4.95827E-006	0.00000E+000	6.69274E-004	-3.27687E+002	7	...........
	143	144	3.66008E+000	-1.35401E-006	0.00000E+000	-4.95578E-006	0.00000E+000	6.67040E-004	-3.27687E+002	7	...........
	144	145	3.66009E+000	-1.35460E-006	0.00000E+000	-4.95795E-006	0.00000E+000	6.68290E-004	-3.27687E+002	7	...........
	145	146	3.66010E+000	-1.35452E-006	0.00000E+000	-4.95767E-006	0.00000E+000	6.68407E-004	-3.27687E+002	7	...........
	146	147	3.66010E+000	-1.35431E-006	0.00000E+000	-4.95692E-006	0.00000E+000	6.69040E-004	-3.27687E+002	7	...........
	147	148	3.66011E+000	-1.35393E-006	0.00000E+000	-4.95554E-006	0.00000E+000	6.70074E-004	-3.27687E+002	7	...........
	148	149	3.66013E+000	-1.35348E-006	0.00000E+000	-4.95390E-006	0.00000E+000	6.66974E-004	-3.27687E+002	7	...........
	149	150	3.66014E+000	-1.35378E-006	0.00000E+000	-4.95502E-006	0.00000E+000	6.68890E-004	-3.27687E+002	7	...........
	150	151	3.66015E+000	-1.35327E-006	0.00000E+000	-4.95315E-006	0.00000E+000	6.68957E-004	-3.27687E+002	7	...........
	151	152	3.66016E+000	-1.35276E-006	0.00000E+000	-4.95130E-006	0.00000E+000	6.69574E-004	-3.27687E+002	7	...........
	152	153	3.66017E+000	-1.35372E-006	0.00000E+000	-4.95483E-006	0.00000E+000	6.67874E-004	-3.27687E+002	7	...........
	153	154	3.66020E+000	-1.35371E-006	0.00000E+000	-4.95486E-006	0.00000E+000	6.68290E-004	-3.27687E+002	7	...........
	154	155	3.66020E+000	-1.35343E-006	0.00000E+000	-4.95383E-006	0.00000E+000	6.70190E-004	-3.27687E+002	7	...........
	155	156	3.66021E+000	-1.35317E-006	0.00000E+000	-4.95289E-006	0.00000E+000	6.69357E-004	-3.27687E+002	7	...........
	156	157	3.66022E+000	-1.35268E-006	0.00000E+000	-4.95112E-006	0.00000E+000	6.69674E-004	-3.27687E+002	7	...........
	157	158	3.66023E+000	-1.35272E-006	0.00000E+000	-4.95127E-006	0.00000E+000	6.69274E-004	-3.27687E+002	7	...........
	158	159	3.66025E+000	-1.35261E-006	0.00000E+000	-4.95088E-006	0.00000E+000	6.69124E-004	-3.27687E+002	7	...........
	159	160	3.66026E+000	-1.35309E-006	0.00000E+000	-4.95264E-006	0.00000E+000	6.68824E-004	-3.27687E+002	7	...........
	160	161	3.66028E+000	-1.35284E-006	0.00000E+000	-4.95178E-006	0.00000E+000	6.70390E-004	-3.27687E+002	7	...........
	161	162	3.66030E+000	-1.35261E-006	0.00000E+000	-4.95095E-006	0.00000E+000	6.70124E-004	-3.27687E+002	7	...........
	162	163	3.66032E+000	-1.35219E-006	0.00000E+000	-4.94946E-006	0.00000E+000	6.68140E-004	-3.27687E+002	7	...........
	163	164	3.66034E+000	-1.35127E-006	0.00000E+000	-4.94612E-006	0.00000E+000	6.68524E-004	-3.27687E+002	7	...........
	164	165	3.66036E+000	-1.35116E-006	0.00000E+000	-4.94574E-006	0.00000E+000	6.67124E-004	-3.27687E+002	7	...........
	165	166	3.66037E+000	-1.35178E-006	0.00000E+000	-4.94800E-006	0.00000E+000	6.68857E-004	-3.27687E+002	7	...........
	166	167	3.66038E+000	-1.35208E-006	0.00000E+000	-4.94912E-006	0.00000E+000	6.67157E-004	-3.27687E+002	7	...........
	167	168	3.66040E+000	-1.35150E-006	0.00000E+000	-4.94702E-006	0.00000E+000	6.66074E-004	-3.27687E+002	7	...........
	168	169	3.66042E+000	-1.35204E-006	0.00000E+000	-4.94902E-006	0.00000E+000	6.70374E-004	-3.27687E+002	7	...........
	169	170	3.66042E+000	-1.35215E-006	0.00000E+000	-4.94945E-006	0.00000E+000	6.70657E-004	-3.27687E+002	7	...........
	170	171	3.66045E+000	-1.35221E-006	0.00000E+000	-4.94969E-006	0.00000E+000	6.69157E-004	-3.27687E+002	7	...........
	171	172	3.66047E+000	-1.35208E-006	0.00000E+000	-4.94925E-006	0.00000E+000	6.69657E-004	-3.27687E+002	7	...........
	172	173	3.66048E+000	-1.35234E-006	0.00000E+000	-4.95021E-006	0.00000E+000	6.66974E-004	-3.27687E+002	7	...........
	173	174	3.66051E+000	-1.35146E-006	0.00000E+000	-4.94704E-006	0.00000E+000	6.69440E-004	-3.27687E+002	7	...........
	174	175	3.66052E+000	-1.35136E-006	0.00000E+000	-4.94667E-006	0.00000E+000	6.68707E-004	-3.27687E+002	7	...........
	175	176	3.66055E+000	-1.35185E-006	0.00000E+000	-4.94852E-006	0.00000E+000	6.67824E-004	-3.27687E+002	7	...........
	176	177	3.66056E+000	-1.35169E-006	0.00000E+000	-4.94792E-006	0.00000E+000	6.69540E-004	-3.27687E+002	7	...........
	177	178	3.66057E+000	-1.35134E-006	0.00000E+000	-4.94668E-006	0.00000E+000	6.68824E-004	-3.27687E+002	7	...........
	178	179	3.66059E+000	-1.35152E-006	0.00000E+000	-4.94737E-006	0.00000E+000	6.67724E-004	-3.27687E+002	7	...........
	179	180	3.66062E+000	-1.35153E-006	0.00000E+000	-4.94741E-006	0.00000E+000	6.66657E-004	-3.27687E+002	7	...........
	180	181	3.66062E+000	-1.35154E-006	0.00000E+000	-4.94748E-006	0.00000E+000	6.65124E-004	-3.27687E+002	7	...........
	181	182	3.66064E+000	-1.35138E-006	0.00000E+000	-4.94692E-006	0.00000E+000	6.65757E-004	-3.27687E+002	7	...........
	182	183	3.66066E+000	-1.35089E-006	0.00000E+000	-4.94516E-006	0.00000E+000	6.66274E-004	-3.27687E+002	7	...........
	183	184	3.66068E+000	-1.35108E-006	0.00000E+000	-4.94588E-006	0.00000E+000	6.67290E-004	-3.27687E+002	7	...........
	184	185	3.66069E+000	-1.35107E-006	0.00000E+000	-4.94586E-006	0.00000E+000	6.66724E-004	-3.27687E+002	7	...........
	185	186	3.66071E+000	-1.35124E-006	0.00000E+000	-4.94650E-006	0.00000E+000	6.68290E-004	-3.27687E+002	7	...........
	186	187	3.66073E+000	-1.35102E-006	0.00000E+000	-4.94571E-006	0.00000E+000	6.64907E-004	-3.27687E+002	7	...........
	187	188	3.66074E+000	-1.35151E-006	0.00000E+000	-4.94753E-006	0.00000E+000	6.64724E-004	-3.27687E+002	7	...........
	188	189	3.66078E+000	-1.35124E-006	0.00000E+000	-4.94660E-006	0.00000E+000	6.63824E-004	-3.27687E+002	7	...........
	189	190	3.66079E+000	-1.35087E-006	0.00000E+000	-4.94528E-006	0.00000E+000	6.62974E-004	-3.27687E+002	7	...........
	190	191	3.66081E+000	-1.35017E-006	0.00000E+000	-4.94272E-006	0.00000E+000	6.63707E-004	-3.27687E+002	7	...........
	191	192	3.66081E+000	-1.34934E-006	0.00000E+000	-4.93968E-006	0.00000E+000	6.65724E-004	-3.27687E+002	7	...........
	192	193	3.66081E+000	-1.35039E-006	0.00000E+000	-4.94353E-006	0.00000E+000	6.63540E-004	-3.27687E+002	7	...........
	193	194	3.66083E+000	-1.35005E-006	0.00000E+000	-4.94230E-006	0.00000E+000	6.63924E-004	-3.27687E+002	7	...........
	194	195	3.66086E+000	-1.34964E-006	0.00000E+000	-4.94085E-006	0.00000E+000	6.61824E-004	-3.27687E+002	7	...........
	195	196	3.66088E+000	-1.34918E-006	0.00000E+000	-4.93917E-006	0.00000E+000	6.61924E-004	-3.27687E+002	7	...........
	196	197	3.66089E+000	-1.34906E-006	0.00000E+000	-4.93877E-006	0.00000E+000	6.63257E-004	-3.27687E+002	7	...........
	197	198	3.66091E+000	-1.34920E-006	0.00000E+000	-4.93932E-006	0.00000E+000	6.64440E-004	-3.27687E+002	7	...........
	198	199	3.66092E+000	-1.34936E-006	0.00000E+000	-4.93989E-006	0.00000E+000	6.60374E-004	-3.27687E+002	7	...........
	199	200	3.66094E+000	-1.34968E-006	0.00000E+000	-4.94108E-006	0.00000E+000	6.61490E-004	-3.27687E+002	7	...........
	200	201	3.66094E+000	-1.34992E-006	0.00000E+000	-4.94200E-006	0.00000E+000	6.61974E-004	-3.27687E+002	7	...........
	201	202	3.66095E+000	-1.35016E-006	0.00000E+000	-4.94289E-006	0.00000E+000	6.61590E-004	-3.27687E+002	7	...........
	202	203	3.66097E+000	-1.34913E-006	0.00000E+000	-4.93912E-006	0.00000E+000	6.62124E-004	-3.27687E+002	7	...........
	203	204	3.66100E+000	-1.34910E-006	0.00000E+000	-4.93904E-006	0.00000E+000	6.61640E-004	-3.27687E+002	7	...........
	204	205	3.66100E+000	-1.34928E-006	0.00000E+000	-4.93972E-006	0.00000E+000	6.61390E-004	-3.27687E+002	7	...........
	205	206	3.66101E+000	-1.34894E-006	0.00000E+000	-4.93849E-006	0.00000E+000	6.60124E-004	-3.27687E+002	7	...........
	206	207	3.66104E+000	-1.34883E-006	0.00000E+000	-4.93811E-006	0.00000E+000	6.64074E-004	-3.27687E+002	7	...........
	207	208	3.66104E+000	-1.34821E-006	0.00000E+000	-4.93587E-006	0.00000E+000	6.60957E-004	-3.27687E+002	7	...........
	208	209	3.66106E+000	-1.34856E-006	0.00000E+000	-4.93715E-006	0.00000E+000	6.59840E-004	-3.27687E+002	7	...........
	209	210	3.66106E+000	-1.34759E-006	0.00000E+000	-4.93360E-006	0.00000E+000	6.62774E-004	-3.27687E+002	7	...........
	210	211	3.66108E+000	-1.34785E-006	0.00000E+000	-4.93459E-006	0.00000E+000	6.61307E-004	-3.27687E+002	7	...........
	211	212	3.66111E+000	-1.34836E-006	0.00000E+000	-4.93650E-006	0.00000E+000	6.56890E-004	-3.27687E+002	7	...........
	212	213	3.66112E+000	-1.34860E-006	0.00000E+000	-4.93739E-006	0.00000E+000	6.59374E-004	-3.27687E+002	7	...........
	213	214	3.66115E+000	-1.34802E-006	0.00000E+000	-4.93530E-006	0.00000E+000	6.58574E-004	-3.27687E+002	7	...........
	214	215	3.66116E+000	-1.34799E-006	0.00000E+000	-4.93521E-006	0.00000E+000	6.62607E-004	-3.27687E+002	7	...........
	215	216	3.66117E+000	-1.34819E-006	0.00000E+000	-4.93594E-006	0.00000E+000	6.60757E-004	-3.27687E+002	7	...........
	216	217	3.66117E+000	-1.34803E-006	0.00000E+000	-4.93536E-006	0.00000E+000	6.59874E-004	-3.27687E+002	7	...........
	217	218	3.66119E+000	-1.34809E-006	0.00000E+000	-4.93561E-006	0.00000E+000	6.59890E-004	-3.27687E+002	7	...........
	218	219	3.66120E+000	-1.34698E-006	0.00000E+000	-4.93156E-006	0.00000E+000	6.59807E-004	-3.27687E+002	7	...........
	219	220	3.66122E+000	-1.34753E-006	0.00000E+000	-4.93360E-006	0.00000E+000	6.58540E-004	-3.27687E+002	7	...........
	220	221	3.66122E+000	-1.34739E-006	0.00000E+000	-4.93309E-006	0.00000E+000	6.62307E-004	-3.27687E+002	7	...........
	221	222	3.66122E+000	-1.34743E-006	0.00000E+000	-4.93324E-006	0.00000E+000	6.59474E-004	-3.27687E+002	7	...........
	222	223	3.66123E+000	-1.34769E-006	0.00000E+000	-4.93421E-006	0.00000E+000	6.62690E-004	-3.27687E+002	7	...........
	223	224	3.66126E+000	-1.34789E-006	0.00000E+000	-4.93499E-006	0.00000E+000	6.58957E-004	-3.27687E+002	7	...........
	224	225	3.66126E+000	-1.34801E-006	0.00000E+000	-4.93541E-006	0.00000E+000	6.59057E-004	-3.27687E+002	7	...........
	225	226	3.66128E+000	-1.34811E-006	0.00000E+000	-4.93582E-006	0.00000E+000	6.57674E-004	-3.27687E+002	7	...........
	226	227	3.66130E+000	-1.34826E-006	0.00000E+000	-4.93638E-006	0.00000E+000	6.59907E-004	-3.27687E+002	7	...........
	227	228	3.66131E+000	-1.34767E-006	0.00000E+000	-4.93425E-006	0.00000E+000	6.60524E-004	-3.27687E+002	7	...........
	228	229	3.66131E+000	-1.34753E-006	0.00000E+000	-4.93374E-006	0.00000E+000	6.60007E-004	-3.27687E+002	7	...........
	229	230	3.66132E+000	-1.34742E-006	0.00000E+000	-4.93332E-006	0.00000E+000	6.62824E-004	-3.27687E+002	7	...........
	230	231	3.66134E+000	-1.34778E-006	0.00000E+000	-4.93469E-006	0.00000E+000	6.59757E-004	-3.27687E+002	7	...........
	231	232	3.66135E+000	-1.34714E-006	0.00000E+000	-4.93234E-006	0.00000E+000	6.59940E-004	-3.27687E+002	7	...........
	232	233	3.66136E+000	-1.34629E-006	0.00000E+000	-4.92924E-006	0.00000E+000	6.59690E-004	-3.27687E+002	7	...........
	233	234	3.66137E+000	-1.34738E-006	0.00000E+000	-4.93325E-006	0.00000E+000	6.58540E-004	-3.27687E+002	7	...........
	234	235	3.66137E+000	-1.34776E-006	0.00000E+000	-4.93467E-006	0.00000E+000	6.59890E-004	-3.27687E+002	7	...........
	235	236	3.66138E+000	-1.34778E-006	0.00000E+000	-4.93475E-006	0.00000E+000	6.59324E-004	-3.27687E+002	7	...........
	236	237	3.66139E+000	-1.34686E-006	0.00000E+000	-4.93137E-006	0.00000E+000	6.59090E-004	-3.27687E+002	7	...........
	237	238	3.66140E+000	-1.34686E-006	0.00000E+000	-4.93139E-006	0.00000E+000	6.59824E-004	-3.27687E+002	7	...........
	238	239	3.66141E+000	-1.34723E-006	0.00000E+000	-4.93276E-006	0.00000E+000	6.58290E-004	-3.27687E+002	7	...........
	239	240	3.66141E+000	-1.34724E-006	0.00000E+000	-4.93279E-006	0.00000E+000	6.57440E-004	-3.27687E+002	7	...........
	240	241	3.66142E+000	-1.34748E-006	0.00000E+000	-4.93368E-006	0.00000E+000	6.60007E-004	-3.27687E+002	7	...........
	241	242	3.66144E+000	-1.34754E-006	0.00000E+000	-4.93392E-006	0.00000E+000	6.59757E-004	-3.27687E+002	7	...........
	242	243	3.66144E+000	-1.34739E-006	0.00000E+000	-4.93337E-006	0.00000E+000	6.59390E-004	-3.27687E+002	7	...........
	243	244	3.66145E+000	-1.34791E-006	0.00000E+000	-4.93531E-006	0.00000E+000	6.59240E-004	-3.27687E+002	7	...........
	244	245	3.66146E+000	-1.34689E-006	0.00000E+000	-4.93160E-006	0.00000E+000	6.60674E-004	-3.27687E+002	7	...........
	245	246	3.66147E+000	-1.34666E-006	0.00000E+000	-4.93076E-006	0.00000E+000	6.61007E-004	-3.27687E+002	7	...........
	246	247	3.66148E+000	-1.34666E-006	0.00000E+000	-4.93075E-006	0.00000E+000	6.58974E-004	-3.27687E+002	7	...........
	247	248	3.66148E+000	-1.34672E-006	0.00000E+000	-4.93100E-006	0.00000E+000	6.60840E-004	-3.27687E+002	7	...........
	248	249	3.66149E+000	-1.34695E-006	0.00000E+000	-4.93185E-006	0.00000E+000	6.61790E-004	-3.27687E+002	7	...........
	249	250	3.66150E+000	-1.34636E-006	0.00000E+000	-4.92971E-006	0.00000E+000	6.62340E-004	-3.27687E+002	7	...........
	250	251	3.66151E+000	-1.34645E-006	0.00000E+000	-4.93006E-006	0.00000E+000	6.60774E-004	-3.27687E+002	7	...........
	251	252	3.66152E+000	-1.34639E-006	0.00000E+000	-4.92983E-006	0.00000E+000	6.61474E-004	-3.27687E+002	7	...........
	252	253	3.66152E+000	-1.34637E-006	0.00000E+000	-4.92975E-006	0.00000E+000	6.60557E-004	-3.27687E+002	7	...........
	253	254	3.66153E+000	-1.34659E-006	0.00000E+000	-4.93058E-006	0.00000E+000	6.59190E-004	-3.27687E+002	7	...........
	254	255	3.66153E+000	-1.34622E-006	0.00000E+000	-4.92924E-006	0.00000E+000	6.58857E-004	-3.27687E+002	7	...........
	255	256	3.66155E+000	-1.34569E-006	0.00000E+000	-4.92732E-006	0.00000E+000	6.61440E-004	-3.27687E+002	7	...........
	256	257	3.66155E+000	-1.34637E-006	0.00000E+000	-4.92980E-006	0.00000E+000	6.60524E-004	-3.27687E+002	7	...........
	257	258	3.66155E+000	-1.34634E-006	0.00000E+000	-4.92970E-006	0.00000E+000	6.62107E-004	-3.27687E+002	7	...........
	258	259	3.66156E+000	-1.34516E-006	0.00000E+000	-4.92536E-006	0.00000E+000	6.61124E-004	-3.27687E+002	7	...........
	259	260	3.66157E+000	-1.34451E-006	0.00000E+000	-4.92303E-006	0.00000E+000	6.60774E-004	-3.27687E+002	7	...........
	260	261	3.66159E+000	-1.34522E-006	0.00000E+000	-4.92562E-006	0.00000E+000	6.61274E-004	-3.27687E+002	7	...........
	261	262	3.66160E+000	-1.34574E-006	0.00000E+000	-4.92756E-006	0.00000E+000	6.60874E-004	-3.27687E+002	7	...........
	262	263	3.66160E+000	-1.34534E-006	0.00000E+000	-4.92609E-006	0.00000E+000	6.63040E-004	-3.27687E+002	7	...........
	263	264	3.66161E+000	-1.34521E-006	0.00000E+000	-4.92562E-006	0.00000E+000	6.59690E-004	-3.27687E+002	7	...........
	264	265	3.66162E+000	-1.34530E-006	0.00000E+000	-4.92599E-006	0.00000E+000	6.63207E-004	-3.27687E+002	7	...........
	265	266	3.66163E+000	-1.34519E-006	0.00000E+000	-4.92560E-006	0.00000E+000	6.60207E-004	-3.27687E+002	7	...........
	266	267	3.66164E+000	-1.34459E-006	0.00000E+000	-4.92340E-006	0.00000E+000	6.59540E-004	-3.27687E+002	7	...........
	267	268	3.66165E+000	-1.34513E-006	0.00000E+000	-4.92538E-006	0.00000E+000	6.61324E-004	-3.27687E+002	7	...........
	268	269	3.66166E+000	-1.34559E-006	0.00000E+000	-4.92710E-006	0.00000E+000	6.63907E-004	-3.27687E+002	7	...........
	269	270	3.66166E+000	-1.34574E-006	0.00000E+000	-4.92764E-006	0.00000E+000	6.61857E-004	-3.27687E+002	7	...........
	270	271	3.66166E+000	-1.34605E-006	0.00000E+000	-4.92880E-006	0.00000E+000	6.61940E-004	-3.27687E+002	7	...........
	271	272	3.66167E+000	-1.34543E-006	0.00000E+000	-4.92652E-006	0.00000E+000	6.64040E-004	-3.27687E+002	7	...........
	272	273	3.66169E+000	-1.34492E-006	0.00000E+000	-4.92469E-006	0.00000E+000	6.61940E-004	-3.27687E+002	7	...........
	273	274	3.66168E+000	-1.34489E-006	0.00000E+000	-4.92457E-006	0.00000E+000	6.63324E-004	-3.27687E+002	7	...........
	274	275	3.66169E+000	-1.34580E-006	0.00000E+000	-4.92790E-006	0.00000E+000	6.63707E-004	-3.27687E+002	7	...........
	275	276	3.66171E+000	-1.34522E-006	0.00000E+000	-4.92580E-006	0.00000E+000	6.63590E-004	-3.27687E+002	7	...........
	276	277	3.66171E+000	-1.34537E-006	0.00000E+000	-4.92634E-006	0.00000E+000	6.63040E-004	-3.27687E+002	7	...........
	277	278	3.66172E+000	-1.34484E-006	0.00000E+000	-4.92444E-006	0.00000E+000	6.65774E-004	-3.27687E+002	7	...........
	278	279	3.66173E+000	-1.34558E-006	0.00000E+000	-4.92716E-006	0.00000E+000	6.63274E-004	-3.27687E+002	7	...........
	279	280	3.66174E+000	-1.34513E-006	0.00000E+000	-4.92550E-006	0.00000E+000	6.65124E-004	-3.27687E+002	7	...........
	280	281	3.66175E+000	-1.34556E-006	0.00000E+000	-4.92709E-006	0.00000E+000	6.67340E-004	-3.27687E+002	7	...........
	281	282	3.66174E+000	-1.34551E-006	0.00000E+000	-4.92692E-006	0.00000E+000	6.64774E-004	-3.27687E+002	7	...........
	282	283	3.66176E+000	-1.34611E-006	0.00000E+000	-4.92914E-006	0.00000E+000	6.64974E-004	-3.27687E+002	7	...........
	283	284	3.66177E+000	-1.34599E-006	0.00000E+000	-4.92869E-006	0.00000E+000	6.65724E-004	-3.27687E+002	7	...........
	284	285	3.66178E+000	-1.34531E-006	0.00000E+000	-4.92622E-006	0.00000E+000	6.65124E-004	-3.27687E+002	7	...........
	285	286	3.66178E+000	-1.34487E-006	0.00000E+000	-4.92461E-006	0.00000E+000	6.64740E-004	-3.27687E+002	7	...........
	286	287	3.66180E+000	-1.34485E-006	0.00000E+000	-4.92457E-006	0.00000E+000	6.66574E-004	-3.27687E+002	7	...........
	287	288	3.66179E+000	-1.34433E-006	0.00000E+000	-4.92265E-006	0.00000E+000	6.67157E-004	-3.27687E+002	7	...........
	288	289	3.66180E+000	-1.34496E-006	0.00000E+000	-4.92499E-006	0.00000E+000	6.68090E-004	-3.27687E+002	7	...........
	289	290	3.66182E+000	-1.34478E-006	0.00000E+000	-4.92434E-006	0.00000E+000	6.66474E-004	-3.27687E+002	7	...........
	290	291	3.66181E+000	-1.34437E-006	0.00000E+000	-4.92283E-006	0.00000E+000	6.67040E-004	-3.27687E+002	7	...........
	291	292	3.66182E+000	-1.34460E-006	0.00000E+000	-4.92368E-006	0.00000E+000	6.66807E-004	-3.27687E+002	7	...........
	292	293	3.66183E+000	-1.34425E-006	0.00000E+000	-4.92240E-006	0.00000E+000	6.65990E-004	-3.27687E+002	7	...........
	293	294	3.66183E+000	-1.34418E-006	0.00000E+000	-4.92216E-006	0.00000E+000	6.66890E-004	-3.27687E+002	7	...........
	294	295	3.66185E+000	-1.34456E-006	0.00000E+000	-4.92357E-006	0.00000E+000	6.67324E-004	-3.27687E+002	7	...........
	295	296	3.66186E+000	-1.34405E-006	0.00000E+000	-4.92172E-006	0.00000E+000	6.67407E-004	-3.27687E+002	7	...........
	296	297	3.66185E+000	-1.34428E-006	0.00000E+000	-4.92257E-006	0.00000E+000	6.64707E-004	-3.27687E+002	7	...........
	297	298	3.66186E+000	-1.34382E-006	0.00000E+000	-4.92088E-006	0.00000E+000	6.65824E-004	-3.27687E+002	7	...........
	298	299	3.66186E+000	-1.34373E-006	0.00000E+000	-4.92056E-006	0.00000E+000	6.66324E-004	-3.27687E+002	7	...........
	299	300	3.66187E+000	-1.34285E-006	0.00000E+000	-4.91733E-006	0.00000E+000	6.66690E-004	-3.27687E+002	7	...........
	300	301	3.66187E+000	-1.34247E-006	0.00000E+000	-4.91596E-006	0.00000E+000	6.68157E-004	-3.27687E+002	7	...........
	301	302	3.66190E+000	-1.34340E-006	0.00000E+000	-4.91938E-006	0.00000E+000	6.69207E-004	-3.27687E+002	7	...........
	302	303	3.66189E+000	-1.34373E-006	0.00000E+000	-4.92060E-006	0.00000E+000	6.69740E-004	-3.27687E+002	7	...........
	303	304	3.66190E+000	-1.34338E-006	0.00000E+000	-4.91933E-006	0.00000E+000	6.69774E-004	-3.27687E+002	7	...........
	304	305	3.66191E+000	-1.34303E-006	0.00000E+000	-4.91808E-006	0.00000E+000	6.70840E-004	-3.27687E+002	7	...........
	305	306	3.66192E+000	-1.34307E-006	0.00000E+000	-4.91821E-006	0.00000E+000	6.70090E-004	-3.27687E+002	7	...........
	306	307	3.66193E+000	-1.34369E-006	0.00000E+000	-4.92049E-006	0.00000E+000	6.68774E-004	-3.27687E+002	7	...........
	307	308	3.66193E+000	-1.34331E-006	0.00000E+000	-4.91908E-006	0.00000E+000	6.69574E-004	-3.27687E+002	7	...........
	308	309	3.66194E+000	-1.34332E-006	0.00000E+000	-4.91917E-006	0.00000E+000	6.68090E-004	-3.27687E+002	7	...........
	309	310	3.66194E+000	-1.34329E-006	0.00000E+000	-4.91905E-006	0.00000E+000	6.68357E-004	-3.27687E+002	7	...........
	310	311	3.66195E+000	-1.34349E-006	0.00000E+000	-4.91978E-006	0.00000E+000	6.68324E-004	-3.27687E+002	7	...........
	311	312	3.66195E+000	-1.34337E-006	0.00000E+000	-4.91934E-006	0.00000E+000	6.70190E-004	-3.27687E+002	7	...........
	312	313	3.66196E+000	-1.34318E-006	0.00000E+000	-4.91868E-006	0.00000E+000	6.68224E-004	-3.27687E+002	7	...........
	313	314	3.66196E+000	-1.34238E-006	0.00000E+000	-4.91575E-006	0.00000E+000	6.69657E-004	-3.27687E+002	7	...........
	314	315	3.66196E+000	-1.34159E-006	0.00000E+000	-4.91287E-006	0.00000E+000	6.68290E-004	-3.27687E+002	7	...........
	315	316	3.66196E+000	-1.34269E-006	0.00000E+000	-4.91690E-006	0.00000E+000	6.71907E-004	-3.27687E+002	7	...........
	316	317	3.66197E+000	-1.34317E-006	0.00000E+000	-4.91866E-006	0.00000E+000	6.68757E-004	-3.27687E+002	7	...........
	317	318	3.66199E+000	-1.34280E-006	0.00000E+000	-4.91730E-006	0.00000E+000	6.69724E-004	-3.27687E+002	7	...........
	318	319	3.66199E+000	-1.34235E-006	0.00000E+000	-4.91566E-006	0.00000E+000	6.70190E-004	-3.27687E+002	7	...........
	319	320	3.66200E+000	-1.34262E-006	0.00000E+000	-4.91667E-006	0.00000E+000	6.70890E-004	-3.27687E+002	7	...........
	320	321	3.66201E+000	-1.34232E-006	0.00000E+000	-4.91558E-006	0.00000E+000	6.72224E-004	-3.27687E+002	7	...........
	321	322	3.66201E+000	-1.34273E-006	0.00000E+000	-4.91710E-006	0.00000E+000	6.69790E-004	-3.27687E+002	7	...........
	322	323	3.66202E+000	-1.34266E-006	0.00000E+000	-4.91684E-006	0.00000E+000	6.71290E-004	-3.27687E+002	7	...........
	323	324	3.66203E+000	-1.34280E-006	0.00000E+000	-4.91737E-006	0.00000E+000	6.69807E-004	-3.27687E+002	7	...........
	324	325	3.66203E+000	-1.34287E-006	0.00000E+000	-4.91763E-006	0.00000E+000	6.69774E-004	-3.27687E+002	7	...........
	325	326	3.66204E+000	-1.34215E-006	0.00000E+000	-4.91500E-006	0.00000E+000	6.70607E-004	-3.27687E+002	7	...........
	326	327	3.66204E+000	-1.34183E-006	0.00000E+000	-4.91384E-006	0.00000E+000	6.70090E-004	-3.27687E+002	7	...........
	327	328	3.66205E+000	-1.34123E-006	0.00000E+000	-4.91164E-006	0.00000E+000	6.70290E-004	-3.27687E+002	7	...........
	328	329	3.66205E+000	-1.34138E-006	0.00000E+000	-4.91221E-006	0.00000E+000	6.71274E-004	-3.27687E+002	7	...........
	329	330	3.66205E+000	-1.34206E-006	0.00000E+000	-4.91469E-006	0.00000E+000	6.71257E-004	-3.27687E+002	7	...........
	330	331	3.66206E+000	-1.34188E-006	0.00000E+000	-4.91404E-006	0.00000E+000	6.71890E-004	-3.27687E+002	7	...........
	331	332	3.66206E+000	-1.34233E-006	0.00000E+000	-4.91570E-006	0.00000E+000	6.72090E-004	-3.27687E+002	7	...........
	332	333	3.66207E+000	-1.34246E-006	0.00000E+000	-4.91619E-006	0.00000E+000	6.71790E-004	-3.27687E+002	7	...........
	333	334	3.66208E+000	-1.34247E-006	0.00000E+000	-4.91625E-006	0.00000E+000	6.69824E-004	-3.27687E+002	7	...........
	334	335	3.66208E+000	-1.34274E-006	0.00000E+000	-4.91721E-006	0.00000E+000	6.69557E-004	-3.27687E+002	7	...........
	335	336	3.66209E+000	-1.34251E-006	0.00000E+000	-4.91638E-006	0.00000E+000	6.71474E-004	-3.27687E+002	7	...........
	336	337	3.66209E+000	-1.34277E-006	0.00000E+000	-4.91733E-006	0.00000E+000	6.71690E-004	-3.27687E+002	7	...........
	337	338	3.66210E+000	-1.34264E-006	0.00000E+000	-4.91687E-006	0.00000E+000	6.69857E-004	-3.27687E+002	7	...........
	338	339	3.66211E+000	-1.34316E-006	0.00000E+000	-4.91879E-006	0.00000E+000	6.72407E-004	-3.27687E+002	7	...........
	339	340	3.66210E+000	-1.34244E-006	0.00000E+000	-4.91617E-006	0.00000E+000	6.71640E-004	-3.27687E+002	7	...........
	340	341	3.66212E+000	-1.34165E-006	0.00000E+000	-4.91328E-006	0.00000E+000	6.72790E-004	-3.27687E+002	7	...........
	341	342	3.66211E+000	-1.34140E-006	0.00000E+000	-4.91236E-006	0.00000E+000	6.72624E-004	-3.27687E+002	7	...........
	342	343	3.66212E+000	-1.34200E-006	0.00000E+000	-4.91458E-006	0.00000E+000	6.72374E-004	-3.27687E+002	7	...........
	343	344	3.66213E+000	-1.34229E-006	0.00000E+000	-4.91565E-006	0.00000E+000	6.71757E-004	-3.27687E+002	7	...........
	344	345	3.66213E+000	-1.34180E-006	0.00000E+000	-4.91383E-006	0.00000E+000	6.72774E-004	-3.27687E+002	7	...........
	345	346	3.66213E+000	-1.34137E-006	0.00000E+000	-4.91228E-006	0.00000E+000	6.74224E-004	-3.27687E+002	7	...........
	346	347	3.66214E+000	-1.34157E-006	0.00000E+000	-4.91303E-006	0.00000E+000	6.73307E-004	-3.27687E+002	7	...........
	347	348	3.66216E+000	-1.34104E-006	0.00000E+000	-4.91111E-006	0.00000E+000	6.74424E-004	-3.27687E+002	7	...........
	348	349	3.66215E+000	-1.34150E-006	0.00000E+000	-4.91277E-006	0.00000E+000	6.74540E-004	-3.27687E+002	7	...........
	349	350	3.66216E+000	-1.34123E-006	0.00000E+000	-4.91180E-006	0.00000E+000	6.74107E-004	-3.27687E+002	7	...........
	350	351	3.66216E+000	-1.34127E-006	0.00000E+000	-4.91193E-006	0.00000E+000	6.75340E-004	-3.27687E+002	7	...........
	351	352	3.66217E+000	-1.34119E-006	0.00000E+000	-4.91165E-006	0.00000E+000	6.74590E-004	-3.27687E+002	7	...........
	352	353	3.66217E+000	-1.34165E-006	0.00000E+000	-4.91334E-006	0.00000E+000	6.75440E-004	-3.27687E+002	7	...........
	353	354	3.66219E+000	-1.34134E-006	0.00000E+000	-4.91224E-006	0.00000E+000	6.74557E-004	-3.27687E+002	7	...........
	354	355	3.66218E+000	-1.34048E-006	0.00000E+000	-4.90908E-006	0.00000E+000	6.75924E-004	-3.27687E+002	7	...........
	355	356	3.66219E+000	-1.34038E-006	0.00000E+000	-4.90870E-006	0.00000E+000	6.76524E-004	-3.27687E+002	7	...........
	356	357	3.66219E+000	-1.34094E-006	0.00000E+000	-4.91077E-006	0.00000E+000	6.73724E-004	-3.27687E+002	7	...........
	357	358	3.66219E+000	-1.34137E-006	0.00000E+000	-4.91236E-006	0.00000E+000	6.76757E-004	-3.27687E+002	7	...........
	358	359	3.66220E+000	-1.34089E-006	0.00000E+000	-4.91060E-006	0.00000E+000	6.75674E-004	-3.27687E+002	7	...........
	359	360	3.66221E+000	-1.34095E-006	0.00000E+000	-4.91084E-006	0.00000E+000	6.75590E-004	-3.27687E+002	7	...........
	360	361	3.66222E+000	-1.34145E-006	0.00000E+000	-4.91269E-006	0.00000E+000	6.74874E-004	-3.27687E+002	7	...........
	361	362	3.66221E+000	-1.34128E-006	0.00000E+000	-4.91205E-006	0.00000E+000	6.74424E-004	-3.27687E+002	7	...........
	362	363	3.66223E+000	-1.34160E-006	0.00000E+000	-4.91325E-006	0.00000E+000	6.74374E-004	-3.27687E+002	7	...........
	363	364	3.66223E+000	-1.34141E-006	0.00000E+000	-4.91254E-006	0.00000E+000	6.75124E-004	-3.27687E+002	7	...........
	364	365	3.66223E+000	-1.34185E-006	0.00000E+000	-4.91417E-006	0.00000E+000	6.75224E-004	-3.27687E+002	7	...........
	365	366	3.66224E+000	-1.34182E-006	0.00000E+000	-4.91407E-006	0.00000E+000	6.74424E-004	-3.27687E+002	7	...........
	366	367	3.66224E+000	-1.34193E-006	0.00000E+000	-4.91446E-006	0.00000E+000	6.72607E-004	-3.27687E+002	7	...........
	367	368	3.66224E+000	-1.34204E-006	0.00000E+000	-4.91486E-006	0.00000E+000	6.71407E-004	-3.27687E+002	7	...........
	368	369	3.66225E+000	-1.34149E-006	0.00000E+000	-4.91288E-006	0.00000E+000	6.72807E-004	-3.27687E+002	7	...........
	369	370	3.66226E+000	-1.34174E-006	0.00000E+000	-4.91378E-006	0.00000E+000	6.75240E-004	-3.27687E+002	7	...........
	370	371	3.66226E+000	-1.34213E-006	0.00000E+000	-4.91524E-006	0.00000E+000	6.75440E-004	-3.27687E+002	7	...........
	371	372	3.66227E+000	-1.34212E-006	0.00000E+000	-4.91522E-006	0.00000E+000	6.74224E-004	-3.27687E+002	7	...........
	372	373	3.66227E+000	-1.34174E-006	0.00000E+000	-4.91383E-006	0.00000E+000	6.74474E-004	-3.27687E+002	7	...........
	373	374	3.66227E+000	-1.34155E-006	0.00000E+000	-4.91311E-006	0.00000E+000	6.76407E-004	-3.27687E+002	7	...........
	374	375	3.66228E+000	-1.34162E-006	0.00000E+000	-4.91340E-006	0.00000E+000	6.74707E-004	-3.27687E+002	7	...........
	375	376	3.66228E+000	-1.34164E-006	0.00000E+000	-4.91347E-006	0.00000E+000	6.75874E-004	-3.27687E+002	7	...........
	376	377	3.66229E+000	-1.34210E-006	0.00000E+000	-4.91514E-006	0.00000E+000	6.74840E-004	-3.27687E+002	7	...........
	377	378	3.66230E+000	-1.34186E-006	0.00000E+000	-4.91429E-006	0.00000E+000	6.73007E-004	-3.27687E+002	7	...........
	378	379	3.66230E+000	-1.34167E-006	0.00000E+000	-4.91360E-006	0.00000E+000	6.72624E-004	-3.27687E+002	7	...........
	379	380	3.66230E+000	-1.34202E-006	0.00000E+000	-4.91490E-006	0.00000E+000	6.72957E-004	-3.27687E+002	7	...........
	380	381	3.66231E+000	-1.34180E-006	0.00000E+000	-4.91410E-006	0.00000E+000	6.73124E-004	-3.27687E+002	7	...........
	381	382	3.66232E+000	-1.34152E-006	0.00000E+000	-4.91305E-006	0.00000E+000	6.73757E-004	-3.27687E+002	7	...........
	382	383	3.66232E+000	-1.34048E-006	0.00000E+000	-4.90926E-006	0.00000E+000	6.74240E-004	-3.27687E+002	7	...........
	383	384	3.66232E+000	-1.34106E-006	0.00000E+000	-4.91139E-006	0.00000E+000	6.72674E-004	-3.27687E+002	7	...........
	384	385	3.66233E+000	-1.34130E-006	0.00000E+000	-4.91228E-006	0.00000E+000	6.74124E-004	-3.27687E+002	7	...........
	385	386	3.66234E+000	-1.34090E-006	0.00000E+000	-4.91083E-006	0.00000E+000	6.71057E-004	-3.27687E+002	7	...........
	386	387	3.66234E+000	-1.34035E-006	0.00000E+000	-4.90881E-006	0.00000E+000	6.72824E-004	-3.27687E+002	7	...........
	387	388	3.66234E+000	-1.34046E-006	0.00000E+000	-4.90924E-006	0.00000E+000	6.73740E-004	-3.27687E+002	7	...........
	388	389	3.66234E+000	-1.34056E-006	0.00000E+000	-4.90960E-006	0.00000E+000	6.72874E-004	-3.27687E+002	7	...........
	389	390	3.66234E+000	-1.34022E-006	0.00000E+000	-4.90836E-006	0.00000E+000	6.74624E-004	-3.27687E+002	7	...........
	390	391	3.66236E+000	-1.34080E-006	0.00000E+000	-4.91049E-006	0.00000E+000	6.71524E-004	-3.27687E+002	7	...........
	391	392	3.66236E+000	-1.34083E-006	0.00000E+000	-4.91061E-006	0.00000E+000	6.73357E-004	-3.27687E+002	7	...........
	392	393	3.66236E+000	-1.34089E-006	0.00000E+000	-4.91083E-006	0.00000E+000	6.74140E-004	-3.27687E+002	7	...........
	393	394	3.66237E+000	-1.34117E-006	0.00000E+000	-4.91185E-006	0.00000E+000	6.73907E-004	-3.27687E+002	7	...........
	394	395	3.66237E+000	-1.34089E-006	0.00000E+000	-4.91084E-006	0.00000E+000	6.72324E-004	-3.27687E+002	7	...........
	395	396	3.66238E+000	-1.33969E-006	0.00000E+000	-4.90644E-006	0.00000E+000	6.73040E-004	-3.27687E+002	7	...........
	396	397	3.66239E+000	-1.33949E-006	0.00000E+000	-4.90574E-006	0.00000E+000	6.74624E-004	-3.27687E+002	7	...........
	397	398	3.66240E+000	-1.33987E-006	0.00000E+000	-4.90714E-006	0.00000E+000	6.72840E-004	-3.27687E+002	7	...........
	398	399	3.66240E+000	-1.33972E-006	0.00000E+000	-4.90658E-006	0.00000E+000	6.71490E-004	-3.27687E+002	7	...........
	399	400	3.66240E+000	-1.33969E-006	0.00000E+000	-4.90649E-006	0.00000E+000	6.73374E-004	-3.27687E+002	7	...........
	400	401	3.66241E+000	-1.33900E-006	0.00000E+000	-4.90396E-006	0.00000E+000	6.74540E-004	-3.27687E+002	7	...........
	401	402	3.66241E+000	-1.33930E-006	0.00000E+000	-4.90506E-006	0.00000E+000	6.72557E-004	-3.27687E+002	7	...........
	402	403	3.66241E+000	-1.33964E-006	0.00000E+000	-4.90632E-006	0.00000E+000	6.72224E-004	-3.27687E+002	7	...........
	403	404	3.66242E+000	-1.33955E-006	0.00000E+000	-4.90597E-006	0.00000E+000	6.74224E-004	-3.27687E+002	7	...........
	404	405	3.66242E+000	-1.33992E-006	0.00000E+000	-4.90735E-006	0.00000E+000	6.73857E-004	-3.27687E+002	7	...........
	405	406	3.66243E+000	-1.33973E-006	0.00000E+000	-4.90666E-006	0.00000E+000	6.73557E-004	-3.27687E+002	7	...........
	406	407	3.66243E+000	-1.33997E-006	0.00000E+000	-4.90756E-006	0.00000E+000	6.71274E-004	-3.27687E+002	7	...........
	407	408	3.66243E+000	-1.33960E-006	0.00000E+000	-4.90619E-006	0.00000E+000	6.72640E-004	-3.27687E+002	7	...........
	408	409	3.66244E+000	-1.33967E-006	0.00000E+000	-4.90647E-006	0.00000E+000	6.75240E-004	-3.27687E+002	7	...........
	409	410	3.66245E+000	-1.33898E-006	0.00000E+000	-4.90393E-006	0.00000E+000	6.73040E-004	-3.27687E+002	7	...........
	410	411	3.66246E+000	-1.33873E-006	0.00000E+000	-4.90306E-006	0.00000E+000	6.71674E-004	-3.27687E+002	7	...........
	411	412	3.66247E+000	-1.33938E-006	0.00000E+000	-4.90542E-006	0.00000E+000	6.71907E-004	-3.27687E+002	7	...........
	412	413	3.66246E+000	-1.33912E-006	0.00000E+000	-4.90449E-006	0.00000E+000	6.72857E-004	-3.27687E+002	7	...........
	413	414	3.66247E+000	-1.33910E-006	0.00000E+000	-4.90440E-006	0.00000E+000	6.72457E-004	-3.27687E+002	7	...........
	414	415	3.66247E+000	-1.33902E-006	0.00000E+000	-4.90412E-006	0.00000E+000	6.71724E-004	-3.27687E+002	7	...........
	415	416	3.66248E+000	-1.33885E-006	0.00000E+000	-4.90353E-006	0.00000E+000	6.71774E-004	-3.27687E+002	7	...........
	416	417	3.66248E+000	-1.33963E-006	0.00000E+000	-4.90639E-006	0.00000E+000	6.70124E-004	-3.27687E+002	7	...........
	417	418	3.66250E+000	-1.33971E-006	0.00000E+000	-4.90670E-006	0.00000E+000	6.69940E-004	-3.27687E+002	7	...........
	418	419	3.66249E+000	-1.34003E-006	0.00000E+000	-4.90786E-006	0.00000E+000	6.71574E-004	-3.27687E+002	7	...........
	419	420	3.66250E+000	-1.34028E-006	0.00000E+000	-4.90878E-006	0.00000E+000	6.71090E-004	-3.27687E+002	7	...........
	420	421	3.66252E+000	-1.33978E-006	0.00000E+000	-4.90698E-006	0.00000E+000	6.72357E-004	-3.27687E+002	7	...........
	421	422	3.66252E+000	-1.34003E-006	0.00000E+000	-4.90790E-006	0.00000E+000	6.70124E-004	-3.27687E+002	7	...........
	422	423	3.66252E+000	-1.33951E-006	0.00000E+000	-4.90600E-006	0.00000E+000	6.70340E-004	-3.27687E+002	7	...........
	423	424	3.66252E+000	-1.33882E-006	0.00000E+000	-4.90346E-006	0.00000E+000	6.72257E-004	-3.27687E+002	7	...........
	424	425	3.66253E+000	-1.33900E-006	0.00000E+000	-4.90412E-006	0.00000E+000	6.73557E-004	-3.27687E+002	7	...........
	425	426	3.66253E+000	-1.33936E-006	0.00000E+000	-4.90544E-006	0.00000E+000	6.70390E-004	-3.27687E+002	7	...........
	426	427	3.66254E+000	-1.33969E-006	0.00000E+000	-4.90667E-006	0.00000E+000	6.72407E-004	-3.27687E+002	7	...........
	427	428	3.66255E+000	-1.33919E-006	0.00000E+000	-4.90485E-006	0.00000E+000	6.71007E-004	-3.27687E+002	7	...........
	428	429	3.66255E+000	-1.33904E-006	0.00000E+000	-4.90429E-006	0.00000E+000	6.72574E-004	-3.27687E+002	7	...........
	429	430	3.66255E+000	-1.33890E-006	0.00000E+000	-4.90381E-006	0.00000E+000	6.70157E-004	-3.27687E+002	7	...........
	430	431	3.66255E+000	-1.33932E-006	0.00000E+000	-4.90532E-006	0.00000E+000	6.71090E-004	-3.27687E+002	7	...........
	431	432	3.66256E+000	-1.33943E-006	0.00000E+000	-4.90576E-006	0.00000E+000	6.70024E-004	-3.27687E+002	7	...........
	432	433	3.66257E+000	-1.33887E-006	0.00000E+000	-4.90370E-006	0.00000E+000	6.71690E-004	-3.27687E+002	7	...........
	433	434	3.66257E+000	-1.33941E-006	0.00000E+000	-4.90568E-006	0.00000E+000	6.70407E-004	-3.27687E+002	7	...........
	434	435	3.66258E+000	-1.33906E-006	0.00000E+000	-4.90442E-006	0.00000E+000	6.71474E-004	-3.27687E+002	7	...........
	435	436	3.66258E+000	-1.33859E-006	0.00000E+000	-4.90269E-006	0.00000E+000	6.70207E-004	-3.27687E+002	7	...........
	436	437	3.66258E+000	-1.33835E-006	0.00000E+000	-4.90182E-006	0.00000E+000	6.72557E-004	-3.27687E+002	7	...........
	437	438	3.66258E+000	-1.33751E-006	0.00000E+000	-4.89872E-006	0.00000E+000	6.72524E-004	-3.27687E+002	7	...........
	438	439	3.66259E+000	-1.33801E-006	0.00000E+000	-4.90058E-006	0.00000E+000	6.70190E-004	-3.27687E+002	7	...........
	439	440	3.66258E+000	-1.33873E-006	0.00000E+000	-4.90321E-006	0.00000E+000	6.71190E-004	-3.27687E+002	7	...........
	440	441	3.66260E+000	-1.33865E-006	0.00000E+000	-4.90293E-006	0.00000E+000	6.73740E-004	-3.27687E+002	7	...........
	441	442	3.66260E+000	-1.33840E-006	0.00000E+000	-4.90204E-006	0.00000E+000	6.70924E-004	-3.27687E+002	7	...........
	442	443	3.66261E+000	-1.33869E-006	0.00000E+000	-4.90311E-006	0.00000E+000	6.70457E-004	-3.27687E+002	7	...........
	443	444	3.66262E+000	-1.33839E-006	0.00000E+000	-4.90200E-006	0.00000E+000	6.71840E-004	-3.27687E+002	7	...........
	444	445	3.66262E+000	-1.33870E-006	0.00000E+000	-4.90315E-006	0.00000E+000	6.70090E-004	-3.27687E+002	7	...........
	445	446	3.66262E+000	-1.33920E-006	0.00000E+000	-4.90498E-006	0.00000E+000	6.72590E-004	-3.27687E+002	7	...........
	446	447	3.66263E+000	-1.33867E-006	0.00000E+000	-4.90307E-006	0.00000E+000	6.72857E-004	-3.27687E+002	7	...........
	447	448	3.66263E+000	-1.33909E-006	0.00000E+000	-4.90460E-006	0.00000E+000	6.69740E-004	-3.27687E+002	7	...........
	448	449	3.66264E+000	-1.33920E-006	0.00000E+000	-4.90499E-006	0.00000E+000	6.70590E-004	-3.27687E+002	7	...........
	449	450	3.66264E+000	-1.33946E-006	0.00000E+000	-4.90597E-006	0.00000E+000	6.72157E-004	-3.27687E+002	7	...........
	450	451	3.66265E+000	-1.33832E-006	0.00000E+000	-4.90179E-006	0.00000E+000	6.71874E-004	-3.27687E+002	7	...........
	451	452	3.66264E+000	-1.33815E-006	0.00000E+000	-4.90118E-006	0.00000E+000	6.70190E-004	-3.27687E+002	7	...........
	452	453	3.66265E+000	-1.33857E-006	0.00000E+000	-4.90271E-006	0.00000E+000	6.71240E-004	-3.27687E+002	7	...........
	453	454	3.66266E+000	-1.33820E-006	0.00000E+000	-4.90139E-006	0.00000E+000	6.71907E-004	-3.27687E+002	7	...........
	454	455	3.66267E+000	-1.33830E-006	0.00000E+000	-4.90173E-006	0.00000E+000	6.70607E-004	-3.27687E+002	7	...........
	455	456	3.66267E+000	-1.33821E-006	0.00000E+000	-4.90144E-006	0.00000E+000	6.72940E-004	-3.27687E+002	7	...........
	456	457	3.66268E+000	-1.33769E-006	0.00000E+000	-4.89954E-006	0.00000E+000	6.70157E-004	-3.27687E+002	7	...........
	457	458	3.66267E+000	-1.33768E-006	0.00000E+000	-4.89946E-006	0.00000E+000	6.70807E-004	-3.27687E+002	7	...........
	458	459	3.66267E+000	-1.33808E-006	0.00000E+000	-4.90094E-006	0.00000E+000	6.69507E-004	-3.27687E+002	7	...........
	459	460	3.66268E+000	-1.33789E-006	0.00000E+000	-4.90025E-006	0.00000E+000	6.70140E-004	-3.27687E+002	7	...........
	460	461	3.66268E+000	-1.33846E-006	0.00000E+000	-4.90234E-006	0.00000E+000	6.67640E-004	-3.27687E+002	7	...........
	461	462	3.66270E+000	-1.33827E-006	0.00000E+000	-4.90169E-006	0.00000E+000	6.70540E-004	-3.27687E+002	7	...........
	462	463	3.66269E+000	-1.33839E-006	0.00000E+000	-4.90210E-006	0.00000E+000	6.72124E-004	-3.27687E+002	7	...........
	463	464	3.66270E+000	-1.33759E-006	0.00000E+000	-4.89921E-006	0.00000E+000	6.70224E-004	-3.27687E+002	7	...........
	464	465	3.66270E+000	-1.33670E-006	0.00000E+000	-4.89595E-006	0.00000E+000	6.70490E-004	-3.27687E+002	7	...........
	465	466	3.66270E+000	-1.33757E-006	0.00000E+000	-4.89911E-006	0.00000E+000	6.69357E-004	-3.27687E+002	7	...........
	466	467	3.66272E+000	-1.33760E-006	0.00000E+000	-4.89925E-006	0.00000E+000	6.69857E-004	-3.27687E+002	7	...........
	467	468	3.66272E+000	-1.33752E-006	0.00000E+000	-4.89898E-006	0.00000E+000	6.70790E-004	-3.27687E+002	7	...........
	468	469	3.66272E+000	-1.33725E-006	0.00000E+000	-4.89798E-006	0.00000E+000	6.68174E-004	-3.27687E+002	7	...........
	469	470	3.66272E+000	-1.33752E-006	0.00000E+000	-4.89897E-006	0.00000E+000	6.69090E-004	-3.27687E+002	7	...........
	470	471	3.66273E+000	-1.33723E-006	0.00000E+000	-4.89792E-006	0.00000E+000	6.68857E-004	-3.27687E+002	7	...........
	471	472	3.66273E+000	-1.33740E-006	0.00000E+000	-4.89852E-006	0.00000E+000	6.70374E-004	-3.27687E+002	7	...........
	472	473	3.66273E+000	-1.33722E-006	0.00000E+000	-4.89786E-006	0.00000E+000	6.70840E-004	-3.27687E+002	7	...........
	473	474	3.66275E+000	-1.33707E-006	0.00000E+000	-4.89734E-006	0.00000E+000	6.68857E-004	-3.27687E+002	7	...........
	474	475	3.66275E+000	-1.33657E-006	0.00000E+000	-4.89551E-006	0.00000E+000	6.69707E-004	-3.27687E+002	7	...........
	475	476	3.66275E+000	-1.33721E-006	0.00000E+000	-4.89786E-006	0.00000E+000	6.69224E-004	-3.27687E+002	7	...........
	476	477	3.66275E+000	-1.33653E-006	0.00000E+000	-4.89538E-006	0.00000E+000	6.70657E-004	-3.27687E+002	7	...........
	477	478	3.66276E+000	-1.33653E-006	0.00000E+000	-4.89538E-006	0.00000E+000	6.70140E-004	-3.27687E+002	7	...........
	478	479	3.66276E+000	-1.33619E-006	0.00000E+000	-4.89416E-006	0.00000E+000	6.69357E-004	-3.27687E+002	7	...........
	479	480	3.66276E+000	-1.33678E-006	0.00000E+000	-4.89632E-006	0.00000E+000	6.71574E-004	-3.27687E+002	7	...........
	480	481	3.66278E+000	-1.33655E-006	0.00000E+000	-4.89549E-006	0.00000E+000	6.69207E-004	-3.27687E+002	7	...........
	481	482	3.66277E+000	-1.33660E-006	0.00000E+000	-4.89565E-006	0.00000E+000	6.70657E-004	-3.27687E+002	7	...........
	482	483	3.66277E+000	-1.33656E-006	0.00000E+000	-4.89551E-006	0.00000E+000	6.68957E-004	-3.27687E+002	7	...........
	483	484	3.66278E+000	-1.33597E-006	0.00000E+000	-4.89337E-006	0.00000E+000	6.69340E-004	-3.27687E+002	7	...........
	484	485	3.66279E+000	-1.33624E-006	0.00000E+000	-4.89436E-006	0.00000E+000	6.67340E-004	-3.27687E+002	7	...........
	485	486	3.66279E+000	-1.33640E-006	0.00000E+000	-4.89496E-006	0.00000E+000	6.68257E-004	-3.27687E+002	7	...........
	486	487	3.66278E+000	-1.33654E-006	0.00000E+000	-4.89547E-006	0.00000E+000	6.72490E-004	-3.27687E+002	7	...........
	487	488	3.66279E+000	-1.33645E-006	0.00000E+000	-4.89513E-006	0.00000E+000	6.70874E-004	-3.27687E+002	7	...........
	488	489	3.66279E+000	-1.33621E-006	0.00000E+000	-4.89426E-006	0.00000E+000	6.68890E-004	-3.27687E+002	7	...........
	489	490	3.66280E+000	-1.33631E-006	0.00000E+000	-4.89462E-006	0.00000E+000	6.70440E-004	-3.27687E+002	7	...........
	490	491	3.66281E+000	-1.33630E-006	0.00000E+000	-4.89462E-006	0.00000E+000	6.68240E-004	-3.27687E+002	7	...........
	491	492	3.66282E+000	-1.33600E-006	0.00000E+000	-4.89353E-006	0.00000E+000	6.68557E-004	-3.27687E+002	7	...........
	492	493	3.66283E+000	-1.33580E-006	0.00000E+000	-4.89281E-006	0.00000E+000	6.67540E-004	-3.27687E+002	7	...........
	493	494	3.66284E+000	-1.33688E-006	0.00000E+000	-4.89678E-006	0.00000E+000	6.68307E-004	-3.27687E+002	7	...........
	494	495	3.66284E+000	-1.33679E-006	0.00000E+000	-4.89645E-006	0.00000E+000	6.69024E-004	-3.27687E+002	7	...........
	495	496	3.66284E+000	-1.33702E-006	0.00000E+000	-4.89728E-006	0.00000E+000	6.68057E-004	-3.27687E+002	7	...........
	496	497	3.66283E+000	-1.33624E-006	0.00000E+000	-4.89443E-006	0.00000E+000	6.70640E-004	-3.27687E+002	7	...........
	497	498	3.66284E+000	-1.33654E-006	0.00000E+000	-4.89553E-006	0.00000E+000	6.67607E-004	-3.27687E+002	7	...........
	498	499	3.66284E+000	-1.33621E-006	0.00000E+000	-4.89433E-006	0.00000E+000	6.69074E-004	-3.27687E+002	7	...........
	499	500	3.66285E+000	-1.33655E-006	0.00000E+000	-4.89559E-006	0.00000E+000	6.68290E-004	-3.27687E+002	7	...........
	500	501	3.66285E+000	-1.33671E-006	0.00000E+000	-4.89616E-006	0.00000E+000	6.67524E-004	-3.27687E+002	7	...........
	501	502	3.66286E+000	-1.33685E-006	0.00000E+000	-4.89670E-006	0.00000E+000	6.68140E-004	-3.27687E+002	7	...........
	502	503	3.66286E+000	-1.33665E-006	0.00000E+000	-4.89596E-006	0.00000E+000	6.67324E-004	-3.27687E+002	7	...........
	503	504	3.66287E+000	-1.33661E-006	0.00000E+000	-4.89583E-006	0.00000E+000	6.64990E-004	-3.27687E+002	7	...........
	504	505	3.66287E+000	-1.33663E-006	0.00000E+000	-4.89590E-006	0.00000E+000	6.68057E-004	-3.27687E+002	7	...........
	505	506	3.66288E+000	-1.33663E-006	0.00000E+000	-4.89591E-006	0.00000E+000	6.69874E-004	-3.27687E+002	7	...........
	506	507	3.66288E+000	-1.33621E-006	0.00000E+000	-4.89436E-006	0.00000E+000	6.68124E-004	-3.27687E+002	7	...........
	507	508	3.66288E+000	-1.33687E-006	0.00000E+000	-4.89681E-006	0.00000E+000	6.67707E-004	-3.27687E+002	7	...........
	508	509	3.66288E+000	-1.33709E-006	0.00000E+000	-4.89761E-006	0.00000E+000	6.68507E-004	-3.27687E+002	7	...........
	509	510	3.66289E+000	-1.33688E-006	0.00000E+000	-4.89685E-006	0.00000E+000	6.68690E-004	-3.27687E+002	7	...........
	510	511	3.66289E+000	-1.33707E-006	0.00000E+000	-4.89756E-006	0.00000E+000	6.70124E-004	-3.27687E+002	7	...........
	511	512	3.66291E+000	-1.33679E-006	0.00000E+000	-4.89654E-006	0.00000E+000	6.71124E-004	-3.27687E+002	7	...........
	512	513	3.66292E+000	-1.33698E-006	0.00000E+000	-4.89724E-006	0.00000E+000	6.66757E-004	-3.27687E+002	7	...........
	513	514	3.66291E+000	-1.33683E-006	0.00000E+000	-4.89667E-006	0.00000E+000	6.68824E-004	-3.27687E+002	7	...........
	514	515	3.66292E+000	-1.33691E-006	0.00000E+000	-4.89698E-006	0.00000E+000	6.66974E-004	-3.27687E+002	7	...........
	515	516	3.66292E+000	-1.33729E-006	0.00000E+000	-4.89839E-006	0.00000E+000	6.68690E-004	-3.27687E+002	7	...........
	516	517	3.66293E+000	-1.33702E-006	0.00000E+000	-4.89739E-006	0.00000E+000	6.70090E-004	-3.27687E+002	7	...........
	517	518	3.66293E+000	-1.33748E-006	0.00000E+000	-4.89908E-006	0.00000E+000	6.71840E-004	-3.27687E+002	7	...........
	518	519	3.66292E+000	-1.33785E-006	0.00000E+000	-4.90043E-006	0.00000E+000	6.68107E-004	-3.27687E+002	7	...........
	519	520	3.66294E+000	-1.33702E-006	0.00000E+000	-4.89742E-006	0.00000E+000	6.68940E-004	-3.27687E+002	7	...........
	520	521	3.66294E+000	-1.33777E-006	0.00000E+000	-4.90017E-006	0.00000E+000	6.70107E-004	-3.27687E+002	7	...........
	521	522	3.66295E+000	-1.33730E-006	0.00000E+000	-4.89847E-006	0.00000E+000	6.68007E-004	-3.27687E+002	7	...........
	522	523	3.66295E+000	-1.33732E-006	0.00000E+000	-4.89855E-006	0.00000E+000	6.71290E-004	-3.27687E+002	7	...........
	523	524	3.66296E+000	-1.33699E-006	0.00000E+000	-4.89732E-006	0.00000E+000	6.67774E-004	-3.27687E+002	7	...........
	524	525	3.66296E+000	-1.33688E-006	0.00000E+000	-4.89694E-006	0.00000E+000	6.69474E-004	-3.27687E+002	7	...........
	525	526	3.66296E+000	-1.33684E-006	0.00000E+000	-4.89679E-006	0.00000E+000	6.66574E-004	-3.27687E+002	7	...........
	526	527	3.66296E+000	-1.33692E-006	0.00000E+000	-4.89708E-006	0.00000E+000	6.67774E-004	-3.27687E+002	7	...........
	527	528	3.66297E+000	-1.33686E-006	0.00000E+000	-4.89686E-006	0.00000E+000	6.67640E-004	-3.27687E+002	7	...........
	528	529	3.66298E+000	-1.33749E-006	0.00000E+000	-4.89918E-006	0.00000E+000	6.66007E-004	-3.27687E+002	7	...........
	529	530	3.66298E+000	-1.33738E-006	0.00000E+000	-4.89878E-006	0.00000E+000	6.66774E-004	-3.27687E+002	7	...........
	530	531	3.66298E+000	-1.33760E-006	0.00000E+000	-4.89960E-006	0.00000E+000	6.65540E-004	-3.27687E+002	7	...........
	531	532	3.66298E+000	-1.33748E-006	0.00000E+000	-4.89916E-006	0.00000E+000	6.65707E-004	-3.27687E+002	7	...........
	532	533	3.66298E+000	-1.33694E-006	0.00000E+000	-4.89718E-006	0.00000E+000	6.68924E-004	-3.27687E+002	7	...........
	533	534	3.66298E+000	-1.33669E-006	0.00000E+000	-4.89629E-006	0.00000E+000	6.67707E-004	-3.27687E+002	7	...........
	534	535	3.66298E+000	-1.33701E-006	0.00000E+000	-4.89746E-006	0.00000E+000	6.68474E-004	-3.27687E+002	7	...........
	535	536	3.66298E+000	-1.33736E-006	0.00000E+000	-4.89873E-006	0.00000E+000	6.66507E-004	-3.27687E+002	7	...........
	536	537	3.66300E+000	-1.33774E-006	0.00000E+000	-4.90015E-006	0.00000E+000	6.66257E-004	-3.27687E+002	7	...........
	537	538	3.66301E+000	-1.33684E-006	0.00000E+000	-4.89686E-006	0.00000E+000	6.67257E-004	-3.27687E+002	7	...........
	538	539	3.66301E+000	-1.33735E-006	0.00000E+000	-4.89871E-006	0.00000E+000	6.68057E-004	-3.27687E+002	7	...........
	539	540	3.66302E+000	-1.33705E-006	0.00000E+000	-4.89762E-006	0.00000E+000	6.66857E-004	-3.27687E+002	7	...........
	540	541	3.66301E+000	-1.33696E-006	0.00000E+000	-4.89730E-006	0.00000E+000	6.67924E-004	-3.27687E+002	7	...........
	541	542	3.66302E+000	-1.33744E-006	0.00000E+000	-4.89906E-006	0.00000E+000	6.67440E-004	-3.27687E+002	7	...........
	542	543	3.66302E+000	-1.33707E-006	0.00000E+000	-4.89772E-006	0.00000E+000	6.67740E-004	-3.27687E+002	7	...........
	543	544	3.66302E+000	-1.33702E-006	0.00000E+000	-4.89752E-006	0.00000E+000	6.66807E-004	-3.27687E+002	7	...........
	544	545	3.66303E+000	-1.33702E-006	0.00000E+000	-4.89755E-006	0.00000E+000	6.67807E-004	-3.27687E+002	7	...........
	545	546	3.66303E+000	-1.33629E-006	0.00000E+000	-4.89487E-006	0.00000E+000	6.69807E-004	-3.27687E+002	7	...........
	546	547	3.66303E+000	-1.33620E-006	0.00000E+000	-4.89453E-006	0.00000E+000	6.69007E-004	-3.27687E+002	7	...........
	547	548	3.66303E+000	-1.33540E-006	0.00000E+000	-4.89160E-006	0.00000E+000	6.67957E-004	-3.27687E+002	7	...........
	548	549	3.66305E+000	-1.33689E-006	0.00000E+000	-4.89708E-006	0.00000E+000	6.66707E-004	-3.27687E+002	7	...........
	549	550	3.66305E+000	-1.33694E-006	0.00000E+000	-4.89726E-006	0.00000E+000	6.68257E-004	-3.27687E+002	7	...........
	550	551	3.66305E+000	-1.33685E-006	0.00000E+000	-4.89694E-006	0.00000E+000	6.69607E-004	-3.27687E+002	7	...........
	551	552	3.66306E+000	-1.33674E-006	0.00000E+000	-4.89655E-006	0.00000E+000	6.67657E-004	-3.27687E+002	7	...........
	552	553	3.66306E+000	-1.33696E-006	0.00000E+000	-4.89736E-006	0.00000E+000	6.66674E-004	-3.27687E+002	7	...........
	553	554	3.66307E+000	-1.33628E-006	0.00000E+000	-4.89487E-006	0.00000E+000	6.68640E-004	-3.27687E+002	7	...........
	554	555	3.66306E+000	-1.33670E-006	0.00000E+000	-4.89642E-006	0.00000E+000	6.67657E-004	-3.27687E+002	7	...........
	555	556	3.66307E+000	-1.33654E-006	0.00000E+000	-4.89586E-006	0.00000E+000	6.69607E-004	-3.27687E+002	7	...........
	556	557	3.66307E+000	-1.33730E-006	0.00000E+000	-4.89861E-006	0.00000E+000	6.69874E-004	-3.27687E+002	7	...........
	557	558	3.66307E+000	-1.33671E-006	0.00000E+000	-4.89649E-006	0.00000E+000	6.68624E-004	-3.27687E+002	7	...........
	558	559	3.66308E+000	-1.33678E-006	0.00000E+000	-4.89675E-006	0.00000E+000	6.69307E-004	-3.27687E+002	7	...........
	559	560	3.66307E+000	-1.33653E-006	0.00000E+000	-4.89580E-006	0.00000E+000	6.67507E-004	-3.27687E+002	7	...........
	560	561	3.66309E+000	-1.33574E-006	0.00000E+000	-4.89295E-006	0.00000E+000	6.67557E-004	-3.27687E+002	7	...........
	561	562	3.66309E+000	-1.33587E-006	0.00000E+000	-4.89343E-006	0.00000E+000	6.70090E-004	-3.27687E+002	7	...........
	562	563	3.66309E+000	-1.33661E-006	0.00000E+000	-4.89611E-006	0.00000E+000	6.68790E-004	-3.27687E+002	7	...........
	563	564	3.66309E+000	-1.33678E-006	0.00000E+000	-4.89676E-006	0.00000E+000	6.69457E-004	-3.27687E+002	7	...........
	564	565	3.66309E+000	-1.33633E-006	0.00000E+000	-4.89512E-006	0.00000E+000	6.67407E-004	-3.27687E+002	7	...........
	565	566	3.66309E+000	-1.33615E-006	0.00000E+000	-4.89444E-006	0.00000E+000	6.69224E-004	-3.27687E+002	7	...........
	566	567	3.66310E+000	-1.33580E-006	0.00000E+000	-4.89318E-006	0.00000E+000	6.67657E-004	-3.27687E+002	7	...........
	567	568	3.66311E+000	-1.33617E-006	0.00000E+000	-4.89453E-006	0.00000E+000	6.70390E-004	-3.27687E+002	7	...........
	568	569	3.66310E+000	-1.33703E-006	0.00000E+000	-4.89768E-006	0.00000E+000	6.67857E-004	-3.27687E+002	7	...........
	569	570	3.66312E+000	-1.33695E-006	0.00000E+000	-4.89741E-006	0.00000E+000	6.69074E-004	-3.27687E+002	7	...........
	570	571	3.66313E+000	-1.33657E-006	0.00000E+000	-4.89602E-006	0.00000E+000	6.67357E-004	-3.27687E+002	7	...........
	571	572	3.66312E+000	-1.33668E-006	0.00000E+000	-4.89642E-006	0.00000E+000	6.66890E-004	-3.27687E+002	7	...........
	572	573	3.66314E+000	-1.33672E-006	0.00000E+000	-4.89659E-006	0.00000E+000	6.68790E-004	-3.27687E+002	7	...........
	573	574	3.66312E+000	-1.33595E-006	0.00000E+000	-4.89376E-006	0.00000E+000	6.66290E-004	-3.27687E+002	7	...........
	574	575	3.66313E+000	-1.33541E-006	0.00000E+000	-4.89179E-006	0.00000E+000	6.66490E-004	-3.27687E+002	7	...........
	575	576	3.66313E+000	-1.33575E-006	0.00000E+000	-4.89303E-006	0.00000E+000	6.69707E-004	-3.27687E+002	7	...........
	576	577	3.66313E+000	-1.33603E-006	0.00000E+000	-4.89404E-006	0.00000E+000	6.69890E-004	-3.27687E+002	7	...........
	577	578	3.66314E+000	-1.33643E-006	0.00000E+000	-4.89552E-006	0.00000E+000	6.66390E-004	-3.27687E+002	7	...........
	578	579	3.66314E+000	-1.33620E-006	0.00000E+000	-4.89468E-006	0.00000E+000	6.68024E-004	-3.27687E+002	7	...........
	579	580	3.66314E+000	-1.33564E-006	0.00000E+000	-4.89262E-006	0.00000E+000	6.68674E-004	-3.27687E+002	7	...........
	580	581	3.66314E+000	-1.33580E-006	0.00000E+000	-4.89322E-006	0.00000E+000	6.67607E-004	-3.27687E+002	7	...........
	581	582	3.66314E+000	-1.33596E-006	0.00000E+000	-4.89380E-006	0.00000E+000	6.67507E-004	-3.27687E+002	7	...........
	582	583	3.66315E+000	-1.33600E-006	0.00000E+000	-4.89398E-006	0.00000E+000	6.72074E-004	-3.27687E+002	7	...........
	583	584	3.66316E+000	-1.33607E-006	0.00000E+000	-4.89424E-006	0.00000E+000	6.67157E-004	-3.27687E+002	7	...........
	584	585	3.66316E+000	-1.33538E-006	0.00000E+000	-4.89172E-006	0.00000E+000	6.69707E-004	-3.27687E+002	7	...........
	585	586	3.66316E+000	-1.33599E-006	0.00000E+000	-4.89395E-006	0.00000E+000	6.70640E-004	-3.27687E+002	7	...........
	586	587	3.66318E+000	-1.33551E-006	0.00000E+000	-4.89223E-006	0.00000E+000	6.69657E-004	-3.27687E+002	7	...........
	587	588	3.66318E+000	-1.33498E-006	0.00000E+000	-4.89026E-006	0.00000E+000	6.69324E-004	-3.27687E+002	7	...........
	588	589	3.66318E+000	-1.33498E-006	0.00000E+000	-4.89029E-006	0.00000E+000	6.70124E-004	-3.27687E+002	7	...........
	589	590	3.66318E+000	-1.33599E-006	0.00000E+000	-4.89396E-006	0.00000E+000	6.71940E-004	-3.27687E+002	7	...........
	590	591	3.66319E+000	-1.33570E-006	0.00000E+000	-4.89293E-006	0.00000E+000	6.70357E-004	-3.27687E+002	7	...........
	591	592	3.66319E+000	-1.33551E-006	0.00000E+000	-4.89221E-006	0.00000E+000	6.70257E-004	-3.27687E+002	7	...........
	592	593	3.66319E+000	-1.33532E-006	0.00000E+000	-4.89154E-006	0.00000E+000	6.71940E-004	-3.27687E+002	7	...........
	593	594	3.66320E+000	-1.33461E-006	0.00000E+000	-4.88893E-006	0.00000E+000	6.70874E-004	-3.27687E+002	7	...........
	594	595	3.66319E+000	-1.33462E-006	0.00000E+000	-4.88896E-006	0.00000E+000	6.71057E-004	-3.27687E+002	7	...........
	595	596	3.66320E+000	-1.33484E-006	0.00000E+000	-4.88977E-006	0.00000E+000	6.71224E-004	-3.27687E+002	7	...........
	596	597	3.66320E+000	-1.33555E-006	0.00000E+000	-4.89238E-006	0.00000E+000	6.73224E-004	-3.27687E+002	7	...........
	597	598	3.66320E+000	-1.33542E-006	0.00000E+000	-4.89192E-006	0.00000E+000	6.75174E-004	-3.27687E+002	7	...........
	598	599	3.66321E+000	-1.33528E-006	0.00000E+000	-4.89141E-006	0.00000E+000	6.70074E-004	-3.27687E+002	7	...........
	599	600	3.66322E+000	-1.33517E-006	0.00000E+000	-4.89101E-006	0.00000E+000	6.71674E-004	-3.27687E+002	7	...........
