EXPLAIN
TAG	PWR800_READVOLTAGE
TITLE	LABEL	PWR Read Voltage	Test Identifier
DATE	LABEL	23.4.2024	Date
TIME	LABEL	7:58:18	Time
NOTES	NOTES	1	Notes...
	
PSTAT	PSTAT	REF600-12055	Potentiostat
CAPACITY	QUANT	1.00000E+000	Capacity (A-hr)
CELLTYPE	SELECTOR	1	Cell Type
WORKINGCONNECTION	SELECTOR	0	Working Connection
MAXTIME	VARIABLEANDUNITS	6.00000E+002	s	6.00000E+002	second(s)	Max Time
SAMPLETIME	QUANT	1.00000E+000	Sample Period (s)
STOPAT1	MULTIPARAM	0	0.00000E+000	Stop At 1	None	N/A
STOPAT2	MULTIPARAM	0	0.00000E+000	Stop At 2	None	N/A
AESBHCSELECTOR	TOGGLE	F	Save Both Half Cells
EOC	QUANT	3.663216	Open Circuit (V)
SEQUENCER	TOGGLE	TRUE	Run as Sequence
PSTATMODEL	IQUANT	4	Pstat Model
PSTATSECTION	LABEL	REF600-12055	Pstat Section
PSTATSERIALNO	LABEL	12055	Pstat Serial Number
CTRLMODE	IQUANT	0	Control Mode
ELECTROMETER	IQUANT	0	RE=0 or CS=1
IESTAB	IQUANT	0	I/E Stability
CASPEED	IQUANT	4	Control Amp Speed
CONVENTION	IQUANT	1	Current Convention
ICHRANGE	IQUANT	2	Ich Range
ICHRANGEMODE	TOGGLE	T	Ich Auto Range
ICHOFFSETENABLE	TOGGLE	F	Ich Offset Enable
ICHOFFSET	QUANT	0	Ich Offset (V)
ICHFILTER	IQUANT	1	Ich Filter
VCHRANGE	IQUANT	3	Vch Range
VCHRANGEMODE	TOGGLE	T	Vch Auto Range
VCHOFFSETENABLE	TOGGLE	F	Vch Offset Enable
VCHOFFSET	QUANT	0	Vch Offset (V)
VCHFILTER	IQUANT	1	Vch Filter
ACHRANGE	IQUANT	2	Ach Range
ACHOFFSETENABLE	TOGGLE	F	Ach Offset Enable
ACHOFFSET	QUANT	0	Ach Offset (V)
ACHFILTER	IQUANT	1	Ach Filter
IERANGELOWERLIMIT	IQUANT	7	I/E Range Lower Limit
IERANGEMODE	TOGGLE	F	I/E AutoRange
IERANGE	IQUANT	11	I/E Range
POSFEEDENABLE	TOGGLE	F	Positive Feedback IR Comp
POSFEEDRESISTANCE	QUANT	0	Positive Feedback Resistance (ohm)
ACHSELECT	IQUANT	4	Ach Select
SENSECABLEID	IQUANT	14	Sense Cable ID
PWRCABLEID	IQUANT	14	Power Cable ID
DCCALDATE	LABEL	2/12/2024	DC Calibration Date
ACCALDATE	LABEL	2/12/2024	AC Calibration Date
THERMOSELECT	IQUANT	1	Thermo Select
FRAMEWORKVERSION	LABEL	7.10.3	Framework Version
INSTRUMENTVERSION	LABEL	4.91	Instrument Version
COMMVERSION	LABEL	2.24	Communications Version
CPUPLDVERSION	LABEL	0.00	CPU PLD Version
CTRLPLDVERSION	LABEL	0.00	CTRL PLD Version
PSTATPLDVERSION	LABEL	0.00	PSTAT PLD Version
CURVE	TABLE	600
	Pt	T	Vf	Im	Vu	Pwr	Sig	Ach	Temp	IERange	Over
	#	s	V	A	V	W	V	V	deg C	#	bits
	0	1	3.59341E+000	-1.60277E-006	0.00000E+000	-5.75940E-006	0.00000E+000	9.00440E-004	-3.27687E+002	7	...........
	1	2	3.59364E+000	-1.60203E-006	0.00000E+000	-5.75714E-006	0.00000E+000	8.98474E-004	-3.27687E+002	7	...........
	2	3	3.59382E+000	-1.60192E-006	0.00000E+000	-5.75702E-006	0.00000E+000	8.94957E-004	-3.27687E+002	7	...........
	3	4	3.59396E+000	-1.60184E-006	0.00000E+000	-5.75694E-006	0.00000E+000	8.91557E-004	-3.27687E+002	7	...........
	4	5	3.59408E+000	-1.60197E-006	0.00000E+000	-5.75761E-006	0.00000E+000	8.88724E-004	-3.27687E+002	7	...........
	5	6	3.59419E+000	-1.60213E-006	0.00000E+000	-5.75835E-006	0.00000E+000	8.89307E-004	-3.27687E+002	7	...........
	6	7	3.59428E+000	-1.60202E-006	0.00000E+000	-5.75812E-006	0.00000E+000	8.88040E-004	-3.27687E+002	7	...........
	7	8	3.59437E+000	-1.60215E-006	0.00000E+000	-5.75871E-006	0.00000E+000	8.90174E-004	-3.27687E+002	7	...........
	8	9	3.59445E+000	-1.60182E-006	0.00000E+000	-5.75768E-006	0.00000E+000	8.89474E-004	-3.27687E+002	7	...........
	9	10	3.59453E+000	-1.60172E-006	0.00000E+000	-5.75744E-006	0.00000E+000	8.89540E-004	-3.27687E+002	7	...........
	10	11	3.59460E+000	-1.60129E-006	0.00000E+000	-5.75599E-006	0.00000E+000	8.90124E-004	-3.27687E+002	7	...........
	11	12	3.59467E+000	-1.60136E-006	0.00000E+000	-5.75636E-006	0.00000E+000	8.93140E-004	-3.27687E+002	7	...........
	12	13	3.59474E+000	-1.60135E-006	0.00000E+000	-5.75644E-006	0.00000E+000	8.94074E-004	-3.27687E+002	7	...........
	13	14	3.59482E+000	-1.60172E-006	0.00000E+000	-5.75791E-006	0.00000E+000	8.99274E-004	-3.27687E+002	7	...........
	14	15	3.59488E+000	-1.60113E-006	0.00000E+000	-5.75586E-006	0.00000E+000	8.95457E-004	-3.27687E+002	7	...........
	15	16	3.59494E+000	-1.60113E-006	0.00000E+000	-5.75597E-006	0.00000E+000	8.97590E-004	-3.27687E+002	7	...........
	16	17	3.59502E+000	-1.60115E-006	0.00000E+000	-5.75618E-006	0.00000E+000	8.97624E-004	-3.27687E+002	7	...........
	17	18	3.59509E+000	-1.60149E-006	0.00000E+000	-5.75750E-006	0.00000E+000	8.94290E-004	-3.27687E+002	7	...........
	18	19	3.59516E+000	-1.60154E-006	0.00000E+000	-5.75780E-006	0.00000E+000	8.94207E-004	-3.27687E+002	7	...........
	19	20	3.59522E+000	-1.60147E-006	0.00000E+000	-5.75764E-006	0.00000E+000	8.95974E-004	-3.27687E+002	7	...........
	20	21	3.59528E+000	-1.60151E-006	0.00000E+000	-5.75787E-006	0.00000E+000	7.33490E-004	-3.27687E+002	7	...........
	21	22	3.59535E+000	-1.60094E-006	0.00000E+000	-5.75592E-006	0.00000E+000	6.58540E-004	-3.27687E+002	7	...........
	22	23	3.59540E+000	-1.60041E-006	0.00000E+000	-5.75413E-006	0.00000E+000	6.57807E-004	-3.27687E+002	7	...........
	23	24	3.59545E+000	-1.60029E-006	0.00000E+000	-5.75375E-006	0.00000E+000	6.58907E-004	-3.27687E+002	7	...........
	24	25	3.59550E+000	-1.59950E-006	0.00000E+000	-5.75099E-006	0.00000E+000	6.61407E-004	-3.27687E+002	7	...........
	25	26	3.59556E+000	-1.59981E-006	0.00000E+000	-5.75220E-006	0.00000E+000	6.57340E-004	-3.27687E+002	7	...........
	26	27	3.59560E+000	-1.59974E-006	0.00000E+000	-5.75204E-006	0.00000E+000	6.58957E-004	-3.27687E+002	7	...........
	27	28	3.59564E+000	-1.59961E-006	0.00000E+000	-5.75163E-006	0.00000E+000	6.56257E-004	-3.27687E+002	7	...........
	28	29	3.59569E+000	-1.59902E-006	0.00000E+000	-5.74956E-006	0.00000E+000	6.56624E-004	-3.27687E+002	7	...........
	29	30	3.59573E+000	-1.59924E-006	0.00000E+000	-5.75044E-006	0.00000E+000	6.56574E-004	-3.27687E+002	7	...........
	30	31	3.59576E+000	-1.59967E-006	0.00000E+000	-5.75203E-006	0.00000E+000	6.57457E-004	-3.27687E+002	7	...........
	31	32	3.59579E+000	-1.59946E-006	0.00000E+000	-5.75133E-006	0.00000E+000	6.59107E-004	-3.27687E+002	7	...........
	32	33	3.59583E+000	-1.59962E-006	0.00000E+000	-5.75194E-006	0.00000E+000	6.60690E-004	-3.27687E+002	7	...........
	33	34	3.59587E+000	-1.59962E-006	0.00000E+000	-5.75203E-006	0.00000E+000	6.60807E-004	-3.27687E+002	7	...........
	34	35	3.59590E+000	-1.59975E-006	0.00000E+000	-5.75254E-006	0.00000E+000	6.59657E-004	-3.27687E+002	7	...........
	35	36	3.59594E+000	-1.59946E-006	0.00000E+000	-5.75156E-006	0.00000E+000	6.60807E-004	-3.27687E+002	7	...........
	36	37	3.59597E+000	-1.59918E-006	0.00000E+000	-5.75061E-006	0.00000E+000	6.64757E-004	-3.27687E+002	7	...........
	37	38	3.59600E+000	-1.59873E-006	0.00000E+000	-5.74904E-006	0.00000E+000	6.65690E-004	-3.27687E+002	7	...........
	38	39	3.59604E+000	-1.59813E-006	0.00000E+000	-5.74693E-006	0.00000E+000	6.66290E-004	-3.27687E+002	7	...........
	39	40	3.59607E+000	-1.59868E-006	0.00000E+000	-5.74895E-006	0.00000E+000	6.68990E-004	-3.27687E+002	7	...........
	40	41	3.59611E+000	-1.59841E-006	0.00000E+000	-5.74807E-006	0.00000E+000	6.68707E-004	-3.27687E+002	7	...........
	41	42	3.59615E+000	-1.59877E-006	0.00000E+000	-5.74940E-006	0.00000E+000	6.67724E-004	-3.27687E+002	7	...........
	42	43	3.59619E+000	-1.59861E-006	0.00000E+000	-5.74891E-006	0.00000E+000	6.68490E-004	-3.27687E+002	7	...........
	43	44	3.59623E+000	-1.59828E-006	0.00000E+000	-5.74780E-006	0.00000E+000	6.71507E-004	-3.27687E+002	7	...........
	44	45	3.59627E+000	-1.59800E-006	0.00000E+000	-5.74684E-006	0.00000E+000	6.72257E-004	-3.27687E+002	7	...........
	45	46	3.59633E+000	-1.59813E-006	0.00000E+000	-5.74740E-006	0.00000E+000	6.73357E-004	-3.27687E+002	7	...........
	46	47	3.59637E+000	-1.59842E-006	0.00000E+000	-5.74851E-006	0.00000E+000	6.71807E-004	-3.27687E+002	7	...........
	47	48	3.59641E+000	-1.59842E-006	0.00000E+000	-5.74859E-006	0.00000E+000	6.72724E-004	-3.27687E+002	7	...........
	48	49	3.59647E+000	-1.59788E-006	0.00000E+000	-5.74673E-006	0.00000E+000	6.71290E-004	-3.27687E+002	7	...........
	49	50	3.59651E+000	-1.59781E-006	0.00000E+000	-5.74653E-006	0.00000E+000	6.71757E-004	-3.27687E+002	7	...........
	50	51	3.59657E+000	-1.59766E-006	0.00000E+000	-5.74608E-006	0.00000E+000	6.72524E-004	-3.27687E+002	7	...........
	51	52	3.59662E+000	-1.59658E-006	0.00000E+000	-5.74229E-006	0.00000E+000	6.73124E-004	-3.27687E+002	7	...........
	52	53	3.59668E+000	-1.59668E-006	0.00000E+000	-5.74274E-006	0.00000E+000	6.72174E-004	-3.27687E+002	7	...........
	53	54	3.59674E+000	-1.59722E-006	0.00000E+000	-5.74480E-006	0.00000E+000	6.70640E-004	-3.27687E+002	7	...........
	54	55	3.59678E+000	-1.59738E-006	0.00000E+000	-5.74545E-006	0.00000E+000	6.71790E-004	-3.27687E+002	7	...........
	55	56	3.59684E+000	-1.59728E-006	0.00000E+000	-5.74517E-006	0.00000E+000	6.70124E-004	-3.27687E+002	7	...........
	56	57	3.59688E+000	-1.59705E-006	0.00000E+000	-5.74441E-006	0.00000E+000	6.71707E-004	-3.27687E+002	7	...........
	57	58	3.59692E+000	-1.59706E-006	0.00000E+000	-5.74448E-006	0.00000E+000	6.67740E-004	-3.27687E+002	7	...........
	58	59	3.59697E+000	-1.59707E-006	0.00000E+000	-5.74461E-006	0.00000E+000	6.69090E-004	-3.27687E+002	7	...........
	59	60	3.59703E+000	-1.59716E-006	0.00000E+000	-5.74502E-006	0.00000E+000	6.68874E-004	-3.27687E+002	7	...........
	60	61	3.59706E+000	-1.59725E-006	0.00000E+000	-5.74543E-006	0.00000E+000	6.67257E-004	-3.27687E+002	7	...........
	61	62	3.59710E+000	-1.59744E-006	0.00000E+000	-5.74615E-006	0.00000E+000	6.66857E-004	-3.27687E+002	7	...........
	62	63	3.59713E+000	-1.59724E-006	0.00000E+000	-5.74550E-006	0.00000E+000	6.65774E-004	-3.27687E+002	7	...........
	63	64	3.59718E+000	-1.59713E-006	0.00000E+000	-5.74517E-006	0.00000E+000	6.63440E-004	-3.27687E+002	7	...........
	64	65	3.59721E+000	-1.59712E-006	0.00000E+000	-5.74519E-006	0.00000E+000	6.65340E-004	-3.27687E+002	7	...........
	65	66	3.59725E+000	-1.59635E-006	0.00000E+000	-5.74247E-006	0.00000E+000	6.65490E-004	-3.27687E+002	7	...........
	66	67	3.59728E+000	-1.59605E-006	0.00000E+000	-5.74143E-006	0.00000E+000	6.66657E-004	-3.27687E+002	7	...........
	67	68	3.59732E+000	-1.59629E-006	0.00000E+000	-5.74235E-006	0.00000E+000	6.62740E-004	-3.27687E+002	7	...........
	68	69	3.59734E+000	-1.59644E-006	0.00000E+000	-5.74295E-006	0.00000E+000	6.65390E-004	-3.27687E+002	7	...........
	69	70	3.59737E+000	-1.59646E-006	0.00000E+000	-5.74307E-006	0.00000E+000	6.64757E-004	-3.27687E+002	7	...........
	70	71	3.59741E+000	-1.59615E-006	0.00000E+000	-5.74201E-006	0.00000E+000	6.61724E-004	-3.27687E+002	7	...........
	71	72	3.59744E+000	-1.59587E-006	0.00000E+000	-5.74105E-006	0.00000E+000	6.61707E-004	-3.27687E+002	7	...........
	72	73	3.59747E+000	-1.59619E-006	0.00000E+000	-5.74224E-006	0.00000E+000	6.62890E-004	-3.27687E+002	7	...........
	73	74	3.59750E+000	-1.59606E-006	0.00000E+000	-5.74183E-006	0.00000E+000	6.63157E-004	-3.27687E+002	7	...........
	74	75	3.59754E+000	-1.59624E-006	0.00000E+000	-5.74254E-006	0.00000E+000	6.61690E-004	-3.27687E+002	7	...........
	75	76	3.59757E+000	-1.59622E-006	0.00000E+000	-5.74252E-006	0.00000E+000	6.62790E-004	-3.27687E+002	7	...........
	76	77	3.59760E+000	-1.59620E-006	0.00000E+000	-5.74249E-006	0.00000E+000	6.64790E-004	-3.27687E+002	7	...........
	77	78	3.59762E+000	-1.59606E-006	0.00000E+000	-5.74204E-006	0.00000E+000	6.66007E-004	-3.27687E+002	7	...........
	78	79	3.59766E+000	-1.59565E-006	0.00000E+000	-5.74060E-006	0.00000E+000	6.67057E-004	-3.27687E+002	7	...........
	79	80	3.59769E+000	-1.59491E-006	0.00000E+000	-5.73801E-006	0.00000E+000	6.66524E-004	-3.27687E+002	7	...........
	80	81	3.59772E+000	-1.59466E-006	0.00000E+000	-5.73716E-006	0.00000E+000	6.64990E-004	-3.27687E+002	7	...........
	81	82	3.59775E+000	-1.59559E-006	0.00000E+000	-5.74053E-006	0.00000E+000	6.68124E-004	-3.27687E+002	7	...........
	82	83	3.59776E+000	-1.59552E-006	0.00000E+000	-5.74029E-006	0.00000E+000	6.69157E-004	-3.27687E+002	7	...........
	83	84	3.59780E+000	-1.59500E-006	0.00000E+000	-5.73851E-006	0.00000E+000	6.68290E-004	-3.27687E+002	7	...........
	84	85	3.59783E+000	-1.59518E-006	0.00000E+000	-5.73918E-006	0.00000E+000	6.67574E-004	-3.27687E+002	7	...........
	85	86	3.59785E+000	-1.59519E-006	0.00000E+000	-5.73925E-006	0.00000E+000	6.67057E-004	-3.27687E+002	7	...........
	86	87	3.59788E+000	-1.59517E-006	0.00000E+000	-5.73925E-006	0.00000E+000	6.68490E-004	-3.27687E+002	7	...........
	87	88	3.59790E+000	-1.59526E-006	0.00000E+000	-5.73958E-006	0.00000E+000	6.69657E-004	-3.27687E+002	7	...........
	88	89	3.59793E+000	-1.59487E-006	0.00000E+000	-5.73823E-006	0.00000E+000	6.69040E-004	-3.27687E+002	7	...........
	89	90	3.59796E+000	-1.59494E-006	0.00000E+000	-5.73853E-006	0.00000E+000	6.68224E-004	-3.27687E+002	7	...........
	90	91	3.59798E+000	-1.59486E-006	0.00000E+000	-5.73826E-006	0.00000E+000	6.72657E-004	-3.27687E+002	7	...........
	91	92	3.59800E+000	-1.59500E-006	0.00000E+000	-5.73881E-006	0.00000E+000	6.71490E-004	-3.27687E+002	7	...........
	92	93	3.59803E+000	-1.59440E-006	0.00000E+000	-5.73669E-006	0.00000E+000	6.69940E-004	-3.27687E+002	7	...........
	93	94	3.59806E+000	-1.59399E-006	0.00000E+000	-5.73528E-006	0.00000E+000	6.73274E-004	-3.27687E+002	7	...........
	94	95	3.59808E+000	-1.59419E-006	0.00000E+000	-5.73602E-006	0.00000E+000	6.75974E-004	-3.27687E+002	7	...........
	95	96	3.59811E+000	-1.59420E-006	0.00000E+000	-5.73608E-006	0.00000E+000	6.74257E-004	-3.27687E+002	7	...........
	96	97	3.59812E+000	-1.59419E-006	0.00000E+000	-5.73608E-006	0.00000E+000	6.73474E-004	-3.27687E+002	7	...........
	97	98	3.59815E+000	-1.59447E-006	0.00000E+000	-5.73714E-006	0.00000E+000	6.73657E-004	-3.27687E+002	7	...........
	98	99	3.59817E+000	-1.59414E-006	0.00000E+000	-5.73599E-006	0.00000E+000	6.72374E-004	-3.27687E+002	7	...........
	99	100	3.59820E+000	-1.59371E-006	0.00000E+000	-5.73449E-006	0.00000E+000	6.73307E-004	-3.27687E+002	7	...........
	100	101	3.59821E+000	-1.59415E-006	0.00000E+000	-5.73610E-006	0.00000E+000	6.73407E-004	-3.27687E+002	7	...........
	101	102	3.59823E+000	-1.59472E-006	0.00000E+000	-5.73818E-006	0.00000E+000	6.73474E-004	-3.27687E+002	7	...........
	102	103	3.59825E+000	-1.59439E-006	0.00000E+000	-5.73702E-006	0.00000E+000	6.72324E-004	-3.27687E+002	7	...........
	103	104	3.59828E+000	-1.59461E-006	0.00000E+000	-5.73785E-006	0.00000E+000	6.72090E-004	-3.27687E+002	7	...........
	104	105	3.59830E+000	-1.59439E-006	0.00000E+000	-5.73711E-006	0.00000E+000	6.71957E-004	-3.27687E+002	7	...........
	105	106	3.59833E+000	-1.59442E-006	0.00000E+000	-5.73726E-006	0.00000E+000	6.72624E-004	-3.27687E+002	7	...........
	106	107	3.59835E+000	-1.59378E-006	0.00000E+000	-5.73497E-006	0.00000E+000	6.73257E-004	-3.27687E+002	7	...........
	107	108	3.59837E+000	-1.59277E-006	0.00000E+000	-5.73138E-006	0.00000E+000	6.72640E-004	-3.27687E+002	7	...........
	108	109	3.59840E+000	-1.59370E-006	0.00000E+000	-5.73477E-006	0.00000E+000	6.73390E-004	-3.27687E+002	7	...........
	109	110	3.59842E+000	-1.59407E-006	0.00000E+000	-5.73614E-006	0.00000E+000	6.69840E-004	-3.27687E+002	7	...........
	110	111	3.59844E+000	-1.59339E-006	0.00000E+000	-5.73373E-006	0.00000E+000	6.69457E-004	-3.27687E+002	7	...........
	111	112	3.59846E+000	-1.59309E-006	0.00000E+000	-5.73267E-006	0.00000E+000	6.72224E-004	-3.27687E+002	7	...........
	112	113	3.59849E+000	-1.59316E-006	0.00000E+000	-5.73297E-006	0.00000E+000	6.71057E-004	-3.27687E+002	7	...........
	113	114	3.59851E+000	-1.59348E-006	0.00000E+000	-5.73414E-006	0.00000E+000	6.69807E-004	-3.27687E+002	7	...........
	114	115	3.59854E+000	-1.59324E-006	0.00000E+000	-5.73335E-006	0.00000E+000	6.69840E-004	-3.27687E+002	7	...........
	115	116	3.59857E+000	-1.59327E-006	0.00000E+000	-5.73350E-006	0.00000E+000	6.68507E-004	-3.27687E+002	7	...........
	116	117	3.59858E+000	-1.59346E-006	0.00000E+000	-5.73419E-006	0.00000E+000	6.69107E-004	-3.27687E+002	7	...........
	117	118	3.59861E+000	-1.59304E-006	0.00000E+000	-5.73271E-006	0.00000E+000	6.67674E-004	-3.27687E+002	7	...........
	118	119	3.59864E+000	-1.59310E-006	0.00000E+000	-5.73300E-006	0.00000E+000	6.68340E-004	-3.27687E+002	7	...........
	119	120	3.59866E+000	-1.59311E-006	0.00000E+000	-5.73305E-006	0.00000E+000	6.65790E-004	-3.27687E+002	7	...........
	120	121	3.59868E+000	-1.59272E-006	0.00000E+000	-5.73170E-006	0.00000E+000	6.69807E-004	-3.27687E+002	7	...........
	121	122	3.59870E+000	-1.59216E-006	0.00000E+000	-5.72970E-006	0.00000E+000	6.67474E-004	-3.27687E+002	7	...........
	122	123	3.59872E+000	-1.59237E-006	0.00000E+000	-5.73048E-006	0.00000E+000	6.66040E-004	-3.27687E+002	7	...........
	123	124	3.59874E+000	-1.59290E-006	0.00000E+000	-5.73245E-006	0.00000E+000	6.69357E-004	-3.27687E+002	7	...........
	124	125	3.59877E+000	-1.59321E-006	0.00000E+000	-5.73359E-006	0.00000E+000	6.64657E-004	-3.27687E+002	7	...........
	125	126	3.59878E+000	-1.59269E-006	0.00000E+000	-5.73174E-006	0.00000E+000	6.66974E-004	-3.27687E+002	7	...........
	126	127	3.59881E+000	-1.59214E-006	0.00000E+000	-5.72982E-006	0.00000E+000	6.66774E-004	-3.27687E+002	7	...........
	127	128	3.59883E+000	-1.59213E-006	0.00000E+000	-5.72980E-006	0.00000E+000	6.66324E-004	-3.27687E+002	7	...........
	128	129	3.59885E+000	-1.59222E-006	0.00000E+000	-5.73017E-006	0.00000E+000	6.65157E-004	-3.27687E+002	7	...........
	129	130	3.59887E+000	-1.59258E-006	0.00000E+000	-5.73148E-006	0.00000E+000	6.64090E-004	-3.27687E+002	7	...........
	130	131	3.59890E+000	-1.59259E-006	0.00000E+000	-5.73158E-006	0.00000E+000	6.64874E-004	-3.27687E+002	7	...........
	131	132	3.59891E+000	-1.59263E-006	0.00000E+000	-5.73172E-006	0.00000E+000	6.63040E-004	-3.27687E+002	7	...........
	132	133	3.59893E+000	-1.59228E-006	0.00000E+000	-5.73050E-006	0.00000E+000	6.65707E-004	-3.27687E+002	7	...........
	133	134	3.59894E+000	-1.59203E-006	0.00000E+000	-5.72964E-006	0.00000E+000	6.63040E-004	-3.27687E+002	7	...........
	134	135	3.59897E+000	-1.59185E-006	0.00000E+000	-5.72901E-006	0.00000E+000	6.62640E-004	-3.27687E+002	7	...........
	135	136	3.59898E+000	-1.59109E-006	0.00000E+000	-5.72629E-006	0.00000E+000	6.63924E-004	-3.27687E+002	7	...........
	136	137	3.59901E+000	-1.59189E-006	0.00000E+000	-5.72921E-006	0.00000E+000	6.64957E-004	-3.27687E+002	7	...........
	137	138	3.59903E+000	-1.59194E-006	0.00000E+000	-5.72944E-006	0.00000E+000	6.63357E-004	-3.27687E+002	7	...........
	138	139	3.59905E+000	-1.59206E-006	0.00000E+000	-5.72991E-006	0.00000E+000	6.64907E-004	-3.27687E+002	7	...........
	139	140	3.59906E+000	-1.59171E-006	0.00000E+000	-5.72866E-006	0.00000E+000	6.64990E-004	-3.27687E+002	7	...........
	140	141	3.59908E+000	-1.59133E-006	0.00000E+000	-5.72732E-006	0.00000E+000	6.66890E-004	-3.27687E+002	7	...........
	141	142	3.59910E+000	-1.59217E-006	0.00000E+000	-5.73039E-006	0.00000E+000	6.67107E-004	-3.27687E+002	7	...........
	142	143	3.59912E+000	-1.59222E-006	0.00000E+000	-5.73060E-006	0.00000E+000	6.63574E-004	-3.27687E+002	7	...........
	143	144	3.59913E+000	-1.59254E-006	0.00000E+000	-5.73175E-006	0.00000E+000	6.65957E-004	-3.27687E+002	7	...........
	144	145	3.59915E+000	-1.59196E-006	0.00000E+000	-5.72970E-006	0.00000E+000	6.65840E-004	-3.27687E+002	7	...........
	145	146	3.59916E+000	-1.59222E-006	0.00000E+000	-5.73065E-006	0.00000E+000	6.67274E-004	-3.27687E+002	7	...........
	146	147	3.59919E+000	-1.59161E-006	0.00000E+000	-5.72853E-006	0.00000E+000	6.66524E-004	-3.27687E+002	7	...........
	147	148	3.59920E+000	-1.59155E-006	0.00000E+000	-5.72832E-006	0.00000E+000	6.67357E-004	-3.27687E+002	7	...........
	148	149	3.59922E+000	-1.59089E-006	0.00000E+000	-5.72597E-006	0.00000E+000	6.66607E-004	-3.27687E+002	7	...........
	149	150	3.59924E+000	-1.59130E-006	0.00000E+000	-5.72748E-006	0.00000E+000	6.65040E-004	-3.27687E+002	7	...........
	150	151	3.59925E+000	-1.59210E-006	0.00000E+000	-5.73036E-006	0.00000E+000	6.69190E-004	-3.27687E+002	7	...........
	151	152	3.59927E+000	-1.59230E-006	0.00000E+000	-5.73113E-006	0.00000E+000	6.67890E-004	-3.27687E+002	7	...........
	152	153	3.59930E+000	-1.59201E-006	0.00000E+000	-5.73010E-006	0.00000E+000	6.65524E-004	-3.27687E+002	7	...........
	153	154	3.59931E+000	-1.59181E-006	0.00000E+000	-5.72941E-006	0.00000E+000	6.66990E-004	-3.27687E+002	7	...........
	154	155	3.59932E+000	-1.59138E-006	0.00000E+000	-5.72790E-006	0.00000E+000	6.66240E-004	-3.27687E+002	7	...........
	155	156	3.59935E+000	-1.59161E-006	0.00000E+000	-5.72875E-006	0.00000E+000	6.68824E-004	-3.27687E+002	7	...........
	156	157	3.59935E+000	-1.59150E-006	0.00000E+000	-5.72839E-006	0.00000E+000	6.66724E-004	-3.27687E+002	7	...........
	157	158	3.59938E+000	-1.59155E-006	0.00000E+000	-5.72859E-006	0.00000E+000	6.66107E-004	-3.27687E+002	7	...........
	158	159	3.59939E+000	-1.59200E-006	0.00000E+000	-5.73022E-006	0.00000E+000	6.70290E-004	-3.27687E+002	7	...........
	159	160	3.59940E+000	-1.59150E-006	0.00000E+000	-5.72845E-006	0.00000E+000	6.69540E-004	-3.27687E+002	7	...........
	160	161	3.59942E+000	-1.59207E-006	0.00000E+000	-5.73052E-006	0.00000E+000	6.71024E-004	-3.27687E+002	7	...........
	161	162	3.59944E+000	-1.59179E-006	0.00000E+000	-5.72955E-006	0.00000E+000	6.70507E-004	-3.27687E+002	7	...........
	162	163	3.59946E+000	-1.59173E-006	0.00000E+000	-5.72935E-006	0.00000E+000	6.67290E-004	-3.27687E+002	7	...........
	163	164	3.59947E+000	-1.59102E-006	0.00000E+000	-5.72683E-006	0.00000E+000	6.73140E-004	-3.27687E+002	7	...........
	164	165	3.59949E+000	-1.59185E-006	0.00000E+000	-5.72982E-006	0.00000E+000	6.70990E-004	-3.27687E+002	7	...........
	165	166	3.59950E+000	-1.59214E-006	0.00000E+000	-5.73092E-006	0.00000E+000	6.69490E-004	-3.27687E+002	7	...........
	166	167	3.59951E+000	-1.59166E-006	0.00000E+000	-5.72921E-006	0.00000E+000	6.70224E-004	-3.27687E+002	7	...........
	167	168	3.59953E+000	-1.59106E-006	0.00000E+000	-5.72706E-006	0.00000E+000	6.68824E-004	-3.27687E+002	7	...........
	168	169	3.59955E+000	-1.59083E-006	0.00000E+000	-5.72627E-006	0.00000E+000	6.67724E-004	-3.27687E+002	7	...........
	169	170	3.59957E+000	-1.59138E-006	0.00000E+000	-5.72826E-006	0.00000E+000	6.70357E-004	-3.27687E+002	7	...........
	170	171	3.59958E+000	-1.59151E-006	0.00000E+000	-5.72878E-006	0.00000E+000	6.69857E-004	-3.27687E+002	7	...........
	171	172	3.59960E+000	-1.59126E-006	0.00000E+000	-5.72788E-006	0.00000E+000	6.71957E-004	-3.27687E+002	7	...........
	172	173	3.59961E+000	-1.59121E-006	0.00000E+000	-5.72775E-006	0.00000E+000	6.70590E-004	-3.27687E+002	7	...........
	173	174	3.59963E+000	-1.59156E-006	0.00000E+000	-5.72904E-006	0.00000E+000	6.73390E-004	-3.27687E+002	7	...........
	174	175	3.59964E+000	-1.59113E-006	0.00000E+000	-5.72749E-006	0.00000E+000	6.69340E-004	-3.27687E+002	7	...........
	175	176	3.59965E+000	-1.59142E-006	0.00000E+000	-5.72856E-006	0.00000E+000	6.71340E-004	-3.27687E+002	7	...........
	176	177	3.59967E+000	-1.59103E-006	0.00000E+000	-5.72717E-006	0.00000E+000	6.69340E-004	-3.27687E+002	7	...........
	177	178	3.59968E+000	-1.58998E-006	0.00000E+000	-5.72343E-006	0.00000E+000	6.70924E-004	-3.27687E+002	7	...........
	178	179	3.59970E+000	-1.59087E-006	0.00000E+000	-5.72664E-006	0.00000E+000	6.69874E-004	-3.27687E+002	7	...........
	179	180	3.59971E+000	-1.59124E-006	0.00000E+000	-5.72802E-006	0.00000E+000	6.72490E-004	-3.27687E+002	7	...........
	180	181	3.59972E+000	-1.59085E-006	0.00000E+000	-5.72663E-006	0.00000E+000	6.70557E-004	-3.27687E+002	7	...........
	181	182	3.59974E+000	-1.59079E-006	0.00000E+000	-5.72643E-006	0.00000E+000	6.72190E-004	-3.27687E+002	7	...........
	182	183	3.59976E+000	-1.59042E-006	0.00000E+000	-5.72515E-006	0.00000E+000	6.72124E-004	-3.27687E+002	7	...........
	183	184	3.59977E+000	-1.59060E-006	0.00000E+000	-5.72579E-006	0.00000E+000	6.73124E-004	-3.27687E+002	7	...........
	184	185	3.59979E+000	-1.59037E-006	0.00000E+000	-5.72500E-006	0.00000E+000	6.71540E-004	-3.27687E+002	7	...........
	185	186	3.59981E+000	-1.59040E-006	0.00000E+000	-5.72514E-006	0.00000E+000	6.72274E-004	-3.27687E+002	7	...........
	186	187	3.59982E+000	-1.59092E-006	0.00000E+000	-5.72705E-006	0.00000E+000	6.71724E-004	-3.27687E+002	7	...........
	187	188	3.59984E+000	-1.59091E-006	0.00000E+000	-5.72701E-006	0.00000E+000	6.72157E-004	-3.27687E+002	7	...........
	188	189	3.59985E+000	-1.59050E-006	0.00000E+000	-5.72554E-006	0.00000E+000	6.70157E-004	-3.27687E+002	7	...........
	189	190	3.59987E+000	-1.59051E-006	0.00000E+000	-5.72561E-006	0.00000E+000	6.70157E-004	-3.27687E+002	7	...........
	190	191	3.59988E+000	-1.58992E-006	0.00000E+000	-5.72352E-006	0.00000E+000	6.69124E-004	-3.27687E+002	7	...........
	191	192	3.59989E+000	-1.58943E-006	0.00000E+000	-5.72177E-006	0.00000E+000	6.69974E-004	-3.27687E+002	7	...........
	192	193	3.59992E+000	-1.59016E-006	0.00000E+000	-5.72445E-006	0.00000E+000	6.70124E-004	-3.27687E+002	7	...........
	193	194	3.59993E+000	-1.59041E-006	0.00000E+000	-5.72538E-006	0.00000E+000	6.69907E-004	-3.27687E+002	7	...........
	194	195	3.59995E+000	-1.58966E-006	0.00000E+000	-5.72269E-006	0.00000E+000	6.67207E-004	-3.27687E+002	7	...........
	195	196	3.59996E+000	-1.59006E-006	0.00000E+000	-5.72414E-006	0.00000E+000	6.67724E-004	-3.27687E+002	7	...........
	196	197	3.59998E+000	-1.59066E-006	0.00000E+000	-5.72633E-006	0.00000E+000	6.65407E-004	-3.27687E+002	7	...........
	197	198	3.59999E+000	-1.59044E-006	0.00000E+000	-5.72557E-006	0.00000E+000	6.70074E-004	-3.27687E+002	7	...........
	198	199	3.60001E+000	-1.59040E-006	0.00000E+000	-5.72544E-006	0.00000E+000	6.65207E-004	-3.27687E+002	7	...........
	199	200	3.60001E+000	-1.59038E-006	0.00000E+000	-5.72538E-006	0.00000E+000	6.64390E-004	-3.27687E+002	7	...........
	200	201	3.60003E+000	-1.59013E-006	0.00000E+000	-5.72451E-006	0.00000E+000	6.66624E-004	-3.27687E+002	7	...........
	201	202	3.60005E+000	-1.58999E-006	0.00000E+000	-5.72405E-006	0.00000E+000	6.64890E-004	-3.27687E+002	7	...........
	202	203	3.60007E+000	-1.59018E-006	0.00000E+000	-5.72475E-006	0.00000E+000	6.64174E-004	-3.27687E+002	7	...........
	203	204	3.60009E+000	-1.58991E-006	0.00000E+000	-5.72382E-006	0.00000E+000	6.62490E-004	-3.27687E+002	7	...........
	204	205	3.60011E+000	-1.58948E-006	0.00000E+000	-5.72231E-006	0.00000E+000	6.61607E-004	-3.27687E+002	7	...........
	205	206	3.60012E+000	-1.58861E-006	0.00000E+000	-5.71917E-006	0.00000E+000	6.63540E-004	-3.27687E+002	7	...........
	206	207	3.60013E+000	-1.59002E-006	0.00000E+000	-5.72428E-006	0.00000E+000	6.62340E-004	-3.27687E+002	7	...........
	207	208	3.60014E+000	-1.58956E-006	0.00000E+000	-5.72265E-006	0.00000E+000	6.62207E-004	-3.27687E+002	7	...........
	208	209	3.60016E+000	-1.58978E-006	0.00000E+000	-5.72347E-006	0.00000E+000	6.58457E-004	-3.27687E+002	7	...........
	209	210	3.60017E+000	-1.59001E-006	0.00000E+000	-5.72430E-006	0.00000E+000	6.57924E-004	-3.27687E+002	7	...........
	210	211	3.60018E+000	-1.58953E-006	0.00000E+000	-5.72260E-006	0.00000E+000	6.59340E-004	-3.27687E+002	7	...........
	211	212	3.60020E+000	-1.58996E-006	0.00000E+000	-5.72417E-006	0.00000E+000	6.61007E-004	-3.27687E+002	7	...........
	212	213	3.60021E+000	-1.58970E-006	0.00000E+000	-5.72325E-006	0.00000E+000	6.59407E-004	-3.27687E+002	7	...........
	213	214	3.60023E+000	-1.58987E-006	0.00000E+000	-5.72391E-006	0.00000E+000	6.60324E-004	-3.27687E+002	7	...........
	214	215	3.60025E+000	-1.59016E-006	0.00000E+000	-5.72496E-006	0.00000E+000	6.59324E-004	-3.27687E+002	7	...........
	215	216	3.60025E+000	-1.59025E-006	0.00000E+000	-5.72529E-006	0.00000E+000	6.56524E-004	-3.27687E+002	7	...........
	216	217	3.60027E+000	-1.59062E-006	0.00000E+000	-5.72666E-006	0.00000E+000	6.56107E-004	-3.27687E+002	7	...........
	217	218	3.60028E+000	-1.59031E-006	0.00000E+000	-5.72555E-006	0.00000E+000	6.58307E-004	-3.27687E+002	7	...........
	218	219	3.60029E+000	-1.58992E-006	0.00000E+000	-5.72417E-006	0.00000E+000	6.56740E-004	-3.27687E+002	7	...........
	219	220	3.60030E+000	-1.58944E-006	0.00000E+000	-5.72248E-006	0.00000E+000	6.56440E-004	-3.27687E+002	7	...........
	220	221	3.60032E+000	-1.59033E-006	0.00000E+000	-5.72570E-006	0.00000E+000	6.56357E-004	-3.27687E+002	7	...........
	221	222	3.60034E+000	-1.59031E-006	0.00000E+000	-5.72564E-006	0.00000E+000	6.54257E-004	-3.27687E+002	7	...........
	222	223	3.60035E+000	-1.59046E-006	0.00000E+000	-5.72622E-006	0.00000E+000	6.53274E-004	-3.27687E+002	7	...........
	223	224	3.60036E+000	-1.59001E-006	0.00000E+000	-5.72461E-006	0.00000E+000	6.53257E-004	-3.27687E+002	7	...........
	224	225	3.60038E+000	-1.59013E-006	0.00000E+000	-5.72506E-006	0.00000E+000	6.52957E-004	-3.27687E+002	7	...........
	225	226	3.60039E+000	-1.59015E-006	0.00000E+000	-5.72517E-006	0.00000E+000	6.51690E-004	-3.27687E+002	7	...........
	226	227	3.60040E+000	-1.59036E-006	0.00000E+000	-5.72591E-006	0.00000E+000	6.52024E-004	-3.27687E+002	7	...........
	227	228	3.60042E+000	-1.59035E-006	0.00000E+000	-5.72592E-006	0.00000E+000	6.55590E-004	-3.27687E+002	7	...........
	228	229	3.60043E+000	-1.59075E-006	0.00000E+000	-5.72740E-006	0.00000E+000	6.51240E-004	-3.27687E+002	7	...........
	229	230	3.60044E+000	-1.59048E-006	0.00000E+000	-5.72641E-006	0.00000E+000	6.51874E-004	-3.27687E+002	7	...........
	230	231	3.60045E+000	-1.59040E-006	0.00000E+000	-5.72615E-006	0.00000E+000	6.53890E-004	-3.27687E+002	7	...........
	231	232	3.60046E+000	-1.59038E-006	0.00000E+000	-5.72611E-006	0.00000E+000	6.52174E-004	-3.27687E+002	7	...........
	232	233	3.60047E+000	-1.59030E-006	0.00000E+000	-5.72583E-006	0.00000E+000	6.51440E-004	-3.27687E+002	7	...........
	233	234	3.60048E+000	-1.58932E-006	0.00000E+000	-5.72231E-006	0.00000E+000	6.50474E-004	-3.27687E+002	7	...........
	234	235	3.60049E+000	-1.58969E-006	0.00000E+000	-5.72366E-006	0.00000E+000	6.49924E-004	-3.27687E+002	7	...........
	235	236	3.60050E+000	-1.58995E-006	0.00000E+000	-5.72461E-006	0.00000E+000	6.53407E-004	-3.27687E+002	7	...........
	236	237	3.60052E+000	-1.58962E-006	0.00000E+000	-5.72346E-006	0.00000E+000	6.51390E-004	-3.27687E+002	7	...........
	237	238	3.60054E+000	-1.58997E-006	0.00000E+000	-5.72474E-006	0.00000E+000	6.47740E-004	-3.27687E+002	7	...........
	238	239	3.60055E+000	-1.58951E-006	0.00000E+000	-5.72311E-006	0.00000E+000	6.49974E-004	-3.27687E+002	7	...........
	239	240	3.60056E+000	-1.59009E-006	0.00000E+000	-5.72522E-006	0.00000E+000	6.51024E-004	-3.27687E+002	7	...........
	240	241	3.60057E+000	-1.58973E-006	0.00000E+000	-5.72393E-006	0.00000E+000	6.46840E-004	-3.27687E+002	7	...........
	241	242	3.60058E+000	-1.59019E-006	0.00000E+000	-5.72560E-006	0.00000E+000	6.51857E-004	-3.27687E+002	7	...........
	242	243	3.60060E+000	-1.59059E-006	0.00000E+000	-5.72708E-006	0.00000E+000	6.49707E-004	-3.27687E+002	7	...........
	243	244	3.60061E+000	-1.59084E-006	0.00000E+000	-5.72800E-006	0.00000E+000	6.50674E-004	-3.27687E+002	7	...........
	244	245	3.60062E+000	-1.59088E-006	0.00000E+000	-5.72816E-006	0.00000E+000	6.51624E-004	-3.27687E+002	7	...........
	245	246	3.60063E+000	-1.59036E-006	0.00000E+000	-5.72629E-006	0.00000E+000	6.49590E-004	-3.27687E+002	7	...........
	246	247	3.60065E+000	-1.59025E-006	0.00000E+000	-5.72592E-006	0.00000E+000	6.47874E-004	-3.27687E+002	7	...........
	247	248	3.60065E+000	-1.58904E-006	0.00000E+000	-5.72156E-006	0.00000E+000	6.50274E-004	-3.27687E+002	7	...........
	248	249	3.60066E+000	-1.59007E-006	0.00000E+000	-5.72532E-006	0.00000E+000	6.49807E-004	-3.27687E+002	7	...........
	249	250	3.60068E+000	-1.59019E-006	0.00000E+000	-5.72578E-006	0.00000E+000	6.48324E-004	-3.27687E+002	7	...........
	250	251	3.60069E+000	-1.59004E-006	0.00000E+000	-5.72526E-006	0.00000E+000	6.50007E-004	-3.27687E+002	7	...........
	251	252	3.60070E+000	-1.58935E-006	0.00000E+000	-5.72279E-006	0.00000E+000	6.49657E-004	-3.27687E+002	7	...........
	252	253	3.60072E+000	-1.58962E-006	0.00000E+000	-5.72378E-006	0.00000E+000	6.49540E-004	-3.27687E+002	7	...........
	253	254	3.60073E+000	-1.58996E-006	0.00000E+000	-5.72503E-006	0.00000E+000	6.51774E-004	-3.27687E+002	7	...........
	254	255	3.60074E+000	-1.59002E-006	0.00000E+000	-5.72525E-006	0.00000E+000	6.50807E-004	-3.27687E+002	7	...........
	255	256	3.60075E+000	-1.59033E-006	0.00000E+000	-5.72638E-006	0.00000E+000	6.49224E-004	-3.27687E+002	7	...........
	256	257	3.60076E+000	-1.59021E-006	0.00000E+000	-5.72596E-006	0.00000E+000	6.49757E-004	-3.27687E+002	7	...........
	257	258	3.60077E+000	-1.59050E-006	0.00000E+000	-5.72703E-006	0.00000E+000	6.49624E-004	-3.27687E+002	7	...........
	258	259	3.60078E+000	-1.59074E-006	0.00000E+000	-5.72791E-006	0.00000E+000	6.51290E-004	-3.27687E+002	7	...........
	259	260	3.60078E+000	-1.59039E-006	0.00000E+000	-5.72666E-006	0.00000E+000	6.49424E-004	-3.27687E+002	7	...........
	260	261	3.60080E+000	-1.59005E-006	0.00000E+000	-5.72545E-006	0.00000E+000	6.48690E-004	-3.27687E+002	7	...........
	261	262	3.60081E+000	-1.58937E-006	0.00000E+000	-5.72302E-006	0.00000E+000	6.52607E-004	-3.27687E+002	7	...........
	262	263	3.60082E+000	-1.59026E-006	0.00000E+000	-5.72623E-006	0.00000E+000	6.51340E-004	-3.27687E+002	7	...........
	263	264	3.60083E+000	-1.59023E-006	0.00000E+000	-5.72616E-006	0.00000E+000	6.50807E-004	-3.27687E+002	7	...........
	264	265	3.60084E+000	-1.59032E-006	0.00000E+000	-5.72649E-006	0.00000E+000	6.49790E-004	-3.27687E+002	7	...........
	265	266	3.60085E+000	-1.58999E-006	0.00000E+000	-5.72533E-006	0.00000E+000	6.51440E-004	-3.27687E+002	7	...........
	266	267	3.60087E+000	-1.59020E-006	0.00000E+000	-5.72611E-006	0.00000E+000	6.51357E-004	-3.27687E+002	7	...........
	267	268	3.60087E+000	-1.59030E-006	0.00000E+000	-5.72647E-006	0.00000E+000	6.50974E-004	-3.27687E+002	7	...........
	268	269	3.60088E+000	-1.59104E-006	0.00000E+000	-5.72913E-006	0.00000E+000	6.53340E-004	-3.27687E+002	7	...........
	269	270	3.60089E+000	-1.59072E-006	0.00000E+000	-5.72801E-006	0.00000E+000	6.51357E-004	-3.27687E+002	7	...........
	270	271	3.60089E+000	-1.59033E-006	0.00000E+000	-5.72660E-006	0.00000E+000	6.54057E-004	-3.27687E+002	7	...........
	271	272	3.60091E+000	-1.59067E-006	0.00000E+000	-5.72786E-006	0.00000E+000	6.55690E-004	-3.27687E+002	7	...........
	272	273	3.60092E+000	-1.59072E-006	0.00000E+000	-5.72806E-006	0.00000E+000	6.54157E-004	-3.27687E+002	7	...........
	273	274	3.60092E+000	-1.59017E-006	0.00000E+000	-5.72607E-006	0.00000E+000	6.55240E-004	-3.27687E+002	7	...........
	274	275	3.60094E+000	-1.58989E-006	0.00000E+000	-5.72512E-006	0.00000E+000	6.50907E-004	-3.27687E+002	7	...........
	275	276	3.60095E+000	-1.58931E-006	0.00000E+000	-5.72302E-006	0.00000E+000	6.54407E-004	-3.27687E+002	7	...........
	276	277	3.60096E+000	-1.59004E-006	0.00000E+000	-5.72568E-006	0.00000E+000	6.53974E-004	-3.27687E+002	7	...........
	277	278	3.60097E+000	-1.59042E-006	0.00000E+000	-5.72705E-006	0.00000E+000	6.55024E-004	-3.27687E+002	7	...........
	278	279	3.60098E+000	-1.58975E-006	0.00000E+000	-5.72464E-006	0.00000E+000	6.57474E-004	-3.27687E+002	7	...........
	279	280	3.60099E+000	-1.58992E-006	0.00000E+000	-5.72530E-006	0.00000E+000	6.55890E-004	-3.27687E+002	7	...........
	280	281	3.60099E+000	-1.58970E-006	0.00000E+000	-5.72449E-006	0.00000E+000	6.54290E-004	-3.27687E+002	7	...........
	281	282	3.60099E+000	-1.58990E-006	0.00000E+000	-5.72523E-006	0.00000E+000	6.57757E-004	-3.27687E+002	7	...........
	282	283	3.60101E+000	-1.59088E-006	0.00000E+000	-5.72878E-006	0.00000E+000	6.56907E-004	-3.27687E+002	7	...........
	283	284	3.60102E+000	-1.59071E-006	0.00000E+000	-5.72816E-006	0.00000E+000	6.55274E-004	-3.27687E+002	7	...........
	284	285	3.60103E+000	-1.59067E-006	0.00000E+000	-5.72805E-006	0.00000E+000	6.57940E-004	-3.27687E+002	7	...........
	285	286	3.60104E+000	-1.59080E-006	0.00000E+000	-5.72853E-006	0.00000E+000	6.58657E-004	-3.27687E+002	7	...........
	286	287	3.60105E+000	-1.58995E-006	0.00000E+000	-5.72551E-006	0.00000E+000	6.61557E-004	-3.27687E+002	7	...........
	287	288	3.60107E+000	-1.59013E-006	0.00000E+000	-5.72617E-006	0.00000E+000	6.59240E-004	-3.27687E+002	7	...........
	288	289	3.60107E+000	-1.59006E-006	0.00000E+000	-5.72593E-006	0.00000E+000	6.60307E-004	-3.27687E+002	7	...........
	289	290	3.60108E+000	-1.58916E-006	0.00000E+000	-5.72268E-006	0.00000E+000	6.61040E-004	-3.27687E+002	7	...........
	290	291	3.60109E+000	-1.59001E-006	0.00000E+000	-5.72575E-006	0.00000E+000	6.60640E-004	-3.27687E+002	7	...........
	291	292	3.60109E+000	-1.58967E-006	0.00000E+000	-5.72455E-006	0.00000E+000	6.62724E-004	-3.27687E+002	7	...........
	292	293	3.60110E+000	-1.58957E-006	0.00000E+000	-5.72418E-006	0.00000E+000	6.60940E-004	-3.27687E+002	7	...........
	293	294	3.60111E+000	-1.58977E-006	0.00000E+000	-5.72495E-006	0.00000E+000	6.60557E-004	-3.27687E+002	7	...........
	294	295	3.60111E+000	-1.58955E-006	0.00000E+000	-5.72415E-006	0.00000E+000	6.60240E-004	-3.27687E+002	7	...........
	295	296	3.60112E+000	-1.58939E-006	0.00000E+000	-5.72359E-006	0.00000E+000	6.63240E-004	-3.27687E+002	7	...........
	296	297	3.60113E+000	-1.58923E-006	0.00000E+000	-5.72304E-006	0.00000E+000	6.64457E-004	-3.27687E+002	7	...........
	297	298	3.60114E+000	-1.58955E-006	0.00000E+000	-5.72418E-006	0.00000E+000	6.64807E-004	-3.27687E+002	7	...........
	298	299	3.60115E+000	-1.58930E-006	0.00000E+000	-5.72331E-006	0.00000E+000	6.63640E-004	-3.27687E+002	7	...........
	299	300	3.60117E+000	-1.58992E-006	0.00000E+000	-5.72555E-006	0.00000E+000	6.63257E-004	-3.27687E+002	7	...........
	300	301	3.60116E+000	-1.59009E-006	0.00000E+000	-5.72618E-006	0.00000E+000	6.63174E-004	-3.27687E+002	7	...........
	301	302	3.60117E+000	-1.58972E-006	0.00000E+000	-5.72484E-006	0.00000E+000	6.63690E-004	-3.27687E+002	7	...........
	302	303	3.60118E+000	-1.58975E-006	0.00000E+000	-5.72497E-006	0.00000E+000	6.63924E-004	-3.27687E+002	7	...........
	303	304	3.60119E+000	-1.58948E-006	0.00000E+000	-5.72402E-006	0.00000E+000	6.65757E-004	-3.27687E+002	7	...........
	304	305	3.60120E+000	-1.58983E-006	0.00000E+000	-5.72528E-006	0.00000E+000	6.63840E-004	-3.27687E+002	7	...........
	305	306	3.60121E+000	-1.58943E-006	0.00000E+000	-5.72387E-006	0.00000E+000	6.64740E-004	-3.27687E+002	7	...........
	306	307	3.60122E+000	-1.58940E-006	0.00000E+000	-5.72380E-006	0.00000E+000	6.65307E-004	-3.27687E+002	7	...........
	307	308	3.60123E+000	-1.58984E-006	0.00000E+000	-5.72537E-006	0.00000E+000	6.66574E-004	-3.27687E+002	7	...........
	308	309	3.60124E+000	-1.58952E-006	0.00000E+000	-5.72424E-006	0.00000E+000	6.65024E-004	-3.27687E+002	7	...........
	309	310	3.60125E+000	-1.58967E-006	0.00000E+000	-5.72481E-006	0.00000E+000	6.65174E-004	-3.27687E+002	7	...........
	310	311	3.60125E+000	-1.58979E-006	0.00000E+000	-5.72525E-006	0.00000E+000	6.67307E-004	-3.27687E+002	7	...........
	311	312	3.60126E+000	-1.59001E-006	0.00000E+000	-5.72604E-006	0.00000E+000	6.65990E-004	-3.27687E+002	7	...........
	312	313	3.60127E+000	-1.59037E-006	0.00000E+000	-5.72736E-006	0.00000E+000	6.64140E-004	-3.27687E+002	7	...........
	313	314	3.60128E+000	-1.59032E-006	0.00000E+000	-5.72717E-006	0.00000E+000	6.67207E-004	-3.27687E+002	7	...........
	314	315	3.60129E+000	-1.59018E-006	0.00000E+000	-5.72671E-006	0.00000E+000	6.67640E-004	-3.27687E+002	7	...........
	315	316	3.60130E+000	-1.59011E-006	0.00000E+000	-5.72645E-006	0.00000E+000	6.67490E-004	-3.27687E+002	7	...........
	316	317	3.60131E+000	-1.58982E-006	0.00000E+000	-5.72542E-006	0.00000E+000	6.64340E-004	-3.27687E+002	7	...........
	317	318	3.60132E+000	-1.58879E-006	0.00000E+000	-5.72174E-006	0.00000E+000	6.66257E-004	-3.27687E+002	7	...........
	318	319	3.60133E+000	-1.58955E-006	0.00000E+000	-5.72448E-006	0.00000E+000	6.66024E-004	-3.27687E+002	7	...........
	319	320	3.60134E+000	-1.58949E-006	0.00000E+000	-5.72429E-006	0.00000E+000	6.65740E-004	-3.27687E+002	7	...........
	320	321	3.60135E+000	-1.58923E-006	0.00000E+000	-5.72336E-006	0.00000E+000	6.65990E-004	-3.27687E+002	7	...........
	321	322	3.60135E+000	-1.58967E-006	0.00000E+000	-5.72495E-006	0.00000E+000	6.68140E-004	-3.27687E+002	7	...........
	322	323	3.60137E+000	-1.58918E-006	0.00000E+000	-5.72320E-006	0.00000E+000	6.69357E-004	-3.27687E+002	7	...........
	323	324	3.60138E+000	-1.58957E-006	0.00000E+000	-5.72464E-006	0.00000E+000	6.66474E-004	-3.27687E+002	7	...........
	324	325	3.60139E+000	-1.58943E-006	0.00000E+000	-5.72417E-006	0.00000E+000	6.67657E-004	-3.27687E+002	7	...........
	325	326	3.60138E+000	-1.59024E-006	0.00000E+000	-5.72705E-006	0.00000E+000	6.67124E-004	-3.27687E+002	7	...........
	326	327	3.60139E+000	-1.58991E-006	0.00000E+000	-5.72589E-006	0.00000E+000	6.66724E-004	-3.27687E+002	7	...........
	327	328	3.60140E+000	-1.59017E-006	0.00000E+000	-5.72685E-006	0.00000E+000	6.68040E-004	-3.27687E+002	7	...........
	328	329	3.60142E+000	-1.58966E-006	0.00000E+000	-5.72505E-006	0.00000E+000	6.68640E-004	-3.27687E+002	7	...........
	329	330	3.60142E+000	-1.58948E-006	0.00000E+000	-5.72438E-006	0.00000E+000	6.66957E-004	-3.27687E+002	7	...........
	330	331	3.60143E+000	-1.58947E-006	0.00000E+000	-5.72436E-006	0.00000E+000	6.67524E-004	-3.27687E+002	7	...........
	331	332	3.60143E+000	-1.58849E-006	0.00000E+000	-5.72084E-006	0.00000E+000	6.66824E-004	-3.27687E+002	7	...........
	332	333	3.60144E+000	-1.58905E-006	0.00000E+000	-5.72286E-006	0.00000E+000	6.66724E-004	-3.27687E+002	7	...........
	333	334	3.60145E+000	-1.58911E-006	0.00000E+000	-5.72308E-006	0.00000E+000	6.67974E-004	-3.27687E+002	7	...........
	334	335	3.60146E+000	-1.58955E-006	0.00000E+000	-5.72471E-006	0.00000E+000	6.68874E-004	-3.27687E+002	7	...........
	335	336	3.60146E+000	-1.58962E-006	0.00000E+000	-5.72496E-006	0.00000E+000	6.69324E-004	-3.27687E+002	7	...........
	336	337	3.60147E+000	-1.58944E-006	0.00000E+000	-5.72431E-006	0.00000E+000	6.67357E-004	-3.27687E+002	7	...........
	337	338	3.60148E+000	-1.58964E-006	0.00000E+000	-5.72506E-006	0.00000E+000	6.69007E-004	-3.27687E+002	7	...........
	338	339	3.60149E+000	-1.58949E-006	0.00000E+000	-5.72453E-006	0.00000E+000	6.67690E-004	-3.27687E+002	7	...........
	339	340	3.60150E+000	-1.58982E-006	0.00000E+000	-5.72573E-006	0.00000E+000	6.68107E-004	-3.27687E+002	7	...........
	340	341	3.60150E+000	-1.59000E-006	0.00000E+000	-5.72637E-006	0.00000E+000	6.68557E-004	-3.27687E+002	7	...........
	341	342	3.60151E+000	-1.58971E-006	0.00000E+000	-5.72536E-006	0.00000E+000	6.70807E-004	-3.27687E+002	7	...........
	342	343	3.60152E+000	-1.58990E-006	0.00000E+000	-5.72608E-006	0.00000E+000	6.69024E-004	-3.27687E+002	7	...........
	343	344	3.60153E+000	-1.58957E-006	0.00000E+000	-5.72487E-006	0.00000E+000	6.67757E-004	-3.27687E+002	7	...........
	344	345	3.60154E+000	-1.58951E-006	0.00000E+000	-5.72470E-006	0.00000E+000	6.66757E-004	-3.27687E+002	7	...........
	345	346	3.60156E+000	-1.58878E-006	0.00000E+000	-5.72209E-006	0.00000E+000	6.68040E-004	-3.27687E+002	7	...........
	346	347	3.60157E+000	-1.58913E-006	0.00000E+000	-5.72336E-006	0.00000E+000	6.67224E-004	-3.27687E+002	7	...........
	347	348	3.60158E+000	-1.58947E-006	0.00000E+000	-5.72461E-006	0.00000E+000	6.66240E-004	-3.27687E+002	7	...........
	348	349	3.60158E+000	-1.58985E-006	0.00000E+000	-5.72598E-006	0.00000E+000	6.68007E-004	-3.27687E+002	7	...........
	349	350	3.60159E+000	-1.58954E-006	0.00000E+000	-5.72487E-006	0.00000E+000	6.67990E-004	-3.27687E+002	7	...........
	350	351	3.60159E+000	-1.58882E-006	0.00000E+000	-5.72228E-006	0.00000E+000	6.66790E-004	-3.27687E+002	7	...........
	351	352	3.60160E+000	-1.58870E-006	0.00000E+000	-5.72187E-006	0.00000E+000	6.65374E-004	-3.27687E+002	7	...........
	352	353	3.60161E+000	-1.58903E-006	0.00000E+000	-5.72308E-006	0.00000E+000	6.68790E-004	-3.27687E+002	7	...........
	353	354	3.60161E+000	-1.58934E-006	0.00000E+000	-5.72418E-006	0.00000E+000	6.68240E-004	-3.27687E+002	7	...........
	354	355	3.60163E+000	-1.58931E-006	0.00000E+000	-5.72409E-006	0.00000E+000	6.68574E-004	-3.27687E+002	7	...........
	355	356	3.60163E+000	-1.58915E-006	0.00000E+000	-5.72353E-006	0.00000E+000	6.66807E-004	-3.27687E+002	7	...........
	356	357	3.60165E+000	-1.58958E-006	0.00000E+000	-5.72511E-006	0.00000E+000	6.67624E-004	-3.27687E+002	7	...........
	357	358	3.60165E+000	-1.58924E-006	0.00000E+000	-5.72389E-006	0.00000E+000	6.67374E-004	-3.27687E+002	7	...........
	358	359	3.60166E+000	-1.58932E-006	0.00000E+000	-5.72417E-006	0.00000E+000	6.68257E-004	-3.27687E+002	7	...........
	359	360	3.60167E+000	-1.58874E-006	0.00000E+000	-5.72209E-006	0.00000E+000	6.67424E-004	-3.27687E+002	7	...........
	360	361	3.60167E+000	-1.58930E-006	0.00000E+000	-5.72413E-006	0.00000E+000	6.67724E-004	-3.27687E+002	7	...........
	361	362	3.60168E+000	-1.58961E-006	0.00000E+000	-5.72525E-006	0.00000E+000	6.69024E-004	-3.27687E+002	7	...........
	362	363	3.60169E+000	-1.58951E-006	0.00000E+000	-5.72492E-006	0.00000E+000	6.71240E-004	-3.27687E+002	7	...........
	363	364	3.60170E+000	-1.58948E-006	0.00000E+000	-5.72483E-006	0.00000E+000	6.68590E-004	-3.27687E+002	7	...........
	364	365	3.60170E+000	-1.58973E-006	0.00000E+000	-5.72571E-006	0.00000E+000	6.68357E-004	-3.27687E+002	7	...........
	365	366	3.60171E+000	-1.58941E-006	0.00000E+000	-5.72459E-006	0.00000E+000	6.68807E-004	-3.27687E+002	7	...........
	366	367	3.60172E+000	-1.58993E-006	0.00000E+000	-5.72646E-006	0.00000E+000	6.68924E-004	-3.27687E+002	7	...........
	367	368	3.60173E+000	-1.58993E-006	0.00000E+000	-5.72650E-006	0.00000E+000	6.68157E-004	-3.27687E+002	7	...........
	368	369	3.60173E+000	-1.58976E-006	0.00000E+000	-5.72589E-006	0.00000E+000	6.69774E-004	-3.27687E+002	7	...........
	369	370	3.60173E+000	-1.58975E-006	0.00000E+000	-5.72585E-006	0.00000E+000	6.69057E-004	-3.27687E+002	7	...........
	370	371	3.60174E+000	-1.58989E-006	0.00000E+000	-5.72636E-006	0.00000E+000	6.67757E-004	-3.27687E+002	7	...........
	371	372	3.60176E+000	-1.59027E-006	0.00000E+000	-5.72776E-006	0.00000E+000	6.69190E-004	-3.27687E+002	7	...........
	372	373	3.60176E+000	-1.59018E-006	0.00000E+000	-5.72746E-006	0.00000E+000	6.65574E-004	-3.27687E+002	7	...........
	373	374	3.60177E+000	-1.58946E-006	0.00000E+000	-5.72486E-006	0.00000E+000	6.68457E-004	-3.27687E+002	7	...........
	374	375	3.60177E+000	-1.58993E-006	0.00000E+000	-5.72656E-006	0.00000E+000	6.68940E-004	-3.27687E+002	7	...........
	375	376	3.60178E+000	-1.59032E-006	0.00000E+000	-5.72798E-006	0.00000E+000	6.68540E-004	-3.27687E+002	7	...........
	376	377	3.60178E+000	-1.58962E-006	0.00000E+000	-5.72548E-006	0.00000E+000	6.66574E-004	-3.27687E+002	7	...........
	377	378	3.60180E+000	-1.58922E-006	0.00000E+000	-5.72406E-006	0.00000E+000	6.65374E-004	-3.27687E+002	7	...........
	378	379	3.60180E+000	-1.58929E-006	0.00000E+000	-5.72431E-006	0.00000E+000	6.66424E-004	-3.27687E+002	7	...........
	379	380	3.60180E+000	-1.58921E-006	0.00000E+000	-5.72403E-006	0.00000E+000	6.67607E-004	-3.27687E+002	7	...........
	380	381	3.60181E+000	-1.58948E-006	0.00000E+000	-5.72501E-006	0.00000E+000	6.68324E-004	-3.27687E+002	7	...........
	381	382	3.60181E+000	-1.58975E-006	0.00000E+000	-5.72598E-006	0.00000E+000	6.68790E-004	-3.27687E+002	7	...........
	382	383	3.60183E+000	-1.58995E-006	0.00000E+000	-5.72675E-006	0.00000E+000	6.66024E-004	-3.27687E+002	7	...........
	383	384	3.60184E+000	-1.58985E-006	0.00000E+000	-5.72639E-006	0.00000E+000	6.65774E-004	-3.27687E+002	7	...........
	384	385	3.60184E+000	-1.58981E-006	0.00000E+000	-5.72623E-006	0.00000E+000	6.66640E-004	-3.27687E+002	7	...........
	385	386	3.60185E+000	-1.58947E-006	0.00000E+000	-5.72502E-006	0.00000E+000	6.66174E-004	-3.27687E+002	7	...........
	386	387	3.60186E+000	-1.58942E-006	0.00000E+000	-5.72487E-006	0.00000E+000	6.65774E-004	-3.27687E+002	7	...........
	387	388	3.60187E+000	-1.58846E-006	0.00000E+000	-5.72142E-006	0.00000E+000	6.65157E-004	-3.27687E+002	7	...........
	388	389	3.60187E+000	-1.58903E-006	0.00000E+000	-5.72347E-006	0.00000E+000	6.64240E-004	-3.27687E+002	7	...........
	389	390	3.60187E+000	-1.58975E-006	0.00000E+000	-5.72608E-006	0.00000E+000	6.65324E-004	-3.27687E+002	7	...........
	390	391	3.60189E+000	-1.58906E-006	0.00000E+000	-5.72362E-006	0.00000E+000	6.65824E-004	-3.27687E+002	7	...........
	391	392	3.60189E+000	-1.58921E-006	0.00000E+000	-5.72416E-006	0.00000E+000	6.67290E-004	-3.27687E+002	7	...........
	392	393	3.60190E+000	-1.58883E-006	0.00000E+000	-5.72279E-006	0.00000E+000	6.64640E-004	-3.27687E+002	7	...........
	393	394	3.60191E+000	-1.58907E-006	0.00000E+000	-5.72369E-006	0.00000E+000	6.67007E-004	-3.27687E+002	7	...........
	394	395	3.60191E+000	-1.58892E-006	0.00000E+000	-5.72317E-006	0.00000E+000	6.64957E-004	-3.27687E+002	7	...........
	395	396	3.60192E+000	-1.58895E-006	0.00000E+000	-5.72328E-006	0.00000E+000	6.66207E-004	-3.27687E+002	7	...........
	396	397	3.60193E+000	-1.58932E-006	0.00000E+000	-5.72461E-006	0.00000E+000	6.65907E-004	-3.27687E+002	7	...........
	397	398	3.60193E+000	-1.58944E-006	0.00000E+000	-5.72507E-006	0.00000E+000	6.63074E-004	-3.27687E+002	7	...........
	398	399	3.60194E+000	-1.58929E-006	0.00000E+000	-5.72451E-006	0.00000E+000	6.65274E-004	-3.27687E+002	7	...........
	399	400	3.60195E+000	-1.58905E-006	0.00000E+000	-5.72367E-006	0.00000E+000	6.63257E-004	-3.27687E+002	7	...........
	400	401	3.60195E+000	-1.58944E-006	0.00000E+000	-5.72510E-006	0.00000E+000	6.62590E-004	-3.27687E+002	7	...........
	401	402	3.60197E+000	-1.58901E-006	0.00000E+000	-5.72356E-006	0.00000E+000	6.62174E-004	-3.27687E+002	7	...........
	402	403	3.60197E+000	-1.58821E-006	0.00000E+000	-5.72070E-006	0.00000E+000	6.64857E-004	-3.27687E+002	7	...........
	403	404	3.60197E+000	-1.58896E-006	0.00000E+000	-5.72338E-006	0.00000E+000	6.62074E-004	-3.27687E+002	7	...........
	404	405	3.60198E+000	-1.58907E-006	0.00000E+000	-5.72379E-006	0.00000E+000	6.60274E-004	-3.27687E+002	7	...........
	405	406	3.60199E+000	-1.58941E-006	0.00000E+000	-5.72504E-006	0.00000E+000	6.61574E-004	-3.27687E+002	7	...........
	406	407	3.60199E+000	-1.58909E-006	0.00000E+000	-5.72388E-006	0.00000E+000	6.63674E-004	-3.27687E+002	7	...........
	407	408	3.60200E+000	-1.58873E-006	0.00000E+000	-5.72260E-006	0.00000E+000	6.61274E-004	-3.27687E+002	7	...........
	408	409	3.60201E+000	-1.58892E-006	0.00000E+000	-5.72330E-006	0.00000E+000	6.63790E-004	-3.27687E+002	7	...........
	409	410	3.60201E+000	-1.58903E-006	0.00000E+000	-5.72372E-006	0.00000E+000	6.61090E-004	-3.27687E+002	7	...........
	410	411	3.60202E+000	-1.58932E-006	0.00000E+000	-5.72478E-006	0.00000E+000	6.62057E-004	-3.27687E+002	7	...........
	411	412	3.60203E+000	-1.58921E-006	0.00000E+000	-5.72439E-006	0.00000E+000	6.62207E-004	-3.27687E+002	7	...........
	412	413	3.60203E+000	-1.58898E-006	0.00000E+000	-5.72355E-006	0.00000E+000	6.64090E-004	-3.27687E+002	7	...........
	413	414	3.60203E+000	-1.58895E-006	0.00000E+000	-5.72345E-006	0.00000E+000	6.64040E-004	-3.27687E+002	7	...........
	414	415	3.60203E+000	-1.58879E-006	0.00000E+000	-5.72289E-006	0.00000E+000	6.64390E-004	-3.27687E+002	7	...........
	415	416	3.60204E+000	-1.58847E-006	0.00000E+000	-5.72174E-006	0.00000E+000	6.63790E-004	-3.27687E+002	7	...........
	416	417	3.60205E+000	-1.58823E-006	0.00000E+000	-5.72090E-006	0.00000E+000	6.63090E-004	-3.27687E+002	7	...........
	417	418	3.60205E+000	-1.58869E-006	0.00000E+000	-5.72254E-006	0.00000E+000	6.65440E-004	-3.27687E+002	7	...........
	418	419	3.60206E+000	-1.58899E-006	0.00000E+000	-5.72362E-006	0.00000E+000	6.60607E-004	-3.27687E+002	7	...........
	419	420	3.60207E+000	-1.58854E-006	0.00000E+000	-5.72205E-006	0.00000E+000	6.63074E-004	-3.27687E+002	7	...........
	420	421	3.60207E+000	-1.58847E-006	0.00000E+000	-5.72178E-006	0.00000E+000	6.61540E-004	-3.27687E+002	7	...........
	421	422	3.60207E+000	-1.58864E-006	0.00000E+000	-5.72240E-006	0.00000E+000	6.62974E-004	-3.27687E+002	7	...........
	422	423	3.60208E+000	-1.58858E-006	0.00000E+000	-5.72218E-006	0.00000E+000	6.64107E-004	-3.27687E+002	7	...........
	423	424	3.60208E+000	-1.58850E-006	0.00000E+000	-5.72190E-006	0.00000E+000	6.63790E-004	-3.27687E+002	7	...........
	424	425	3.60209E+000	-1.58883E-006	0.00000E+000	-5.72311E-006	0.00000E+000	6.63724E-004	-3.27687E+002	7	...........
	425	426	3.60209E+000	-1.58879E-006	0.00000E+000	-5.72296E-006	0.00000E+000	6.63374E-004	-3.27687E+002	7	...........
	426	427	3.60210E+000	-1.58880E-006	0.00000E+000	-5.72300E-006	0.00000E+000	6.66057E-004	-3.27687E+002	7	...........
	427	428	3.60211E+000	-1.58810E-006	0.00000E+000	-5.72050E-006	0.00000E+000	6.63574E-004	-3.27687E+002	7	...........
	428	429	3.60211E+000	-1.58835E-006	0.00000E+000	-5.72142E-006	0.00000E+000	6.65507E-004	-3.27687E+002	7	...........
	429	430	3.60211E+000	-1.58803E-006	0.00000E+000	-5.72026E-006	0.00000E+000	6.61624E-004	-3.27687E+002	7	...........
	430	431	3.60212E+000	-1.58798E-006	0.00000E+000	-5.72009E-006	0.00000E+000	6.66324E-004	-3.27687E+002	7	...........
	431	432	3.60213E+000	-1.58861E-006	0.00000E+000	-5.72237E-006	0.00000E+000	6.61874E-004	-3.27687E+002	7	...........
	432	433	3.60213E+000	-1.58881E-006	0.00000E+000	-5.72308E-006	0.00000E+000	6.64174E-004	-3.27687E+002	7	...........
	433	434	3.60213E+000	-1.58845E-006	0.00000E+000	-5.72181E-006	0.00000E+000	6.66124E-004	-3.27687E+002	7	...........
	434	435	3.60214E+000	-1.58836E-006	0.00000E+000	-5.72150E-006	0.00000E+000	6.66124E-004	-3.27687E+002	7	...........
	435	436	3.60215E+000	-1.58798E-006	0.00000E+000	-5.72014E-006	0.00000E+000	6.63540E-004	-3.27687E+002	7	...........
	436	437	3.60216E+000	-1.58821E-006	0.00000E+000	-5.72097E-006	0.00000E+000	6.62290E-004	-3.27687E+002	7	...........
	437	438	3.60216E+000	-1.58855E-006	0.00000E+000	-5.72220E-006	0.00000E+000	6.63007E-004	-3.27687E+002	7	...........
	438	439	3.60217E+000	-1.58901E-006	0.00000E+000	-5.72388E-006	0.00000E+000	6.65357E-004	-3.27687E+002	7	...........
	439	440	3.60217E+000	-1.58899E-006	0.00000E+000	-5.72381E-006	0.00000E+000	6.63907E-004	-3.27687E+002	7	...........
	440	441	3.60217E+000	-1.58952E-006	0.00000E+000	-5.72574E-006	0.00000E+000	6.61224E-004	-3.27687E+002	7	...........
	441	442	3.60218E+000	-1.58971E-006	0.00000E+000	-5.72643E-006	0.00000E+000	6.64924E-004	-3.27687E+002	7	...........
	442	443	3.60219E+000	-1.58939E-006	0.00000E+000	-5.72528E-006	0.00000E+000	6.64307E-004	-3.27687E+002	7	...........
	443	444	3.60219E+000	-1.58861E-006	0.00000E+000	-5.72247E-006	0.00000E+000	6.63974E-004	-3.27687E+002	7	...........
	444	445	3.60219E+000	-1.58818E-006	0.00000E+000	-5.72093E-006	0.00000E+000	6.66490E-004	-3.27687E+002	7	...........
	445	446	3.60220E+000	-1.58926E-006	0.00000E+000	-5.72483E-006	0.00000E+000	6.65807E-004	-3.27687E+002	7	...........
	446	447	3.60219E+000	-1.58866E-006	0.00000E+000	-5.72266E-006	0.00000E+000	6.66240E-004	-3.27687E+002	7	...........
	447	448	3.60220E+000	-1.58926E-006	0.00000E+000	-5.72484E-006	0.00000E+000	6.66507E-004	-3.27687E+002	7	...........
	448	449	3.60221E+000	-1.58900E-006	0.00000E+000	-5.72391E-006	0.00000E+000	6.63890E-004	-3.27687E+002	7	...........
	449	450	3.60222E+000	-1.58886E-006	0.00000E+000	-5.72342E-006	0.00000E+000	6.66074E-004	-3.27687E+002	7	...........
	450	451	3.60223E+000	-1.58938E-006	0.00000E+000	-5.72530E-006	0.00000E+000	6.63857E-004	-3.27687E+002	7	...........
	451	452	3.60222E+000	-1.58896E-006	0.00000E+000	-5.72379E-006	0.00000E+000	6.67074E-004	-3.27687E+002	7	...........
	452	453	3.60224E+000	-1.58984E-006	0.00000E+000	-5.72698E-006	0.00000E+000	6.65290E-004	-3.27687E+002	7	...........
	453	454	3.60223E+000	-1.58981E-006	0.00000E+000	-5.72688E-006	0.00000E+000	6.65657E-004	-3.27687E+002	7	...........
	454	455	3.60224E+000	-1.58953E-006	0.00000E+000	-5.72589E-006	0.00000E+000	6.65024E-004	-3.27687E+002	7	...........
	455	456	3.60224E+000	-1.58942E-006	0.00000E+000	-5.72547E-006	0.00000E+000	6.65674E-004	-3.27687E+002	7	...........
	456	457	3.60225E+000	-1.58967E-006	0.00000E+000	-5.72640E-006	0.00000E+000	6.65624E-004	-3.27687E+002	7	...........
	457	458	3.60225E+000	-1.58995E-006	0.00000E+000	-5.72740E-006	0.00000E+000	6.65457E-004	-3.27687E+002	7	...........
	458	459	3.60225E+000	-1.58909E-006	0.00000E+000	-5.72430E-006	0.00000E+000	6.66557E-004	-3.27687E+002	7	...........
	459	460	3.60227E+000	-1.58964E-006	0.00000E+000	-5.72629E-006	0.00000E+000	6.64257E-004	-3.27687E+002	7	...........
	460	461	3.60227E+000	-1.58903E-006	0.00000E+000	-5.72411E-006	0.00000E+000	6.66390E-004	-3.27687E+002	7	...........
	461	462	3.60227E+000	-1.58902E-006	0.00000E+000	-5.72406E-006	0.00000E+000	6.67340E-004	-3.27687E+002	7	...........
	462	463	3.60228E+000	-1.58887E-006	0.00000E+000	-5.72356E-006	0.00000E+000	6.65990E-004	-3.27687E+002	7	...........
	463	464	3.60228E+000	-1.58842E-006	0.00000E+000	-5.72194E-006	0.00000E+000	6.66857E-004	-3.27687E+002	7	...........
	464	465	3.60229E+000	-1.58854E-006	0.00000E+000	-5.72237E-006	0.00000E+000	6.66640E-004	-3.27687E+002	7	...........
	465	466	3.60230E+000	-1.58941E-006	0.00000E+000	-5.72555E-006	0.00000E+000	6.67874E-004	-3.27687E+002	7	...........
	466	467	3.60230E+000	-1.58969E-006	0.00000E+000	-5.72654E-006	0.00000E+000	6.66440E-004	-3.27687E+002	7	...........
	467	468	3.60230E+000	-1.58955E-006	0.00000E+000	-5.72603E-006	0.00000E+000	6.66324E-004	-3.27687E+002	7	...........
	468	469	3.60231E+000	-1.58950E-006	0.00000E+000	-5.72589E-006	0.00000E+000	6.66624E-004	-3.27687E+002	7	...........
	469	470	3.60232E+000	-1.58978E-006	0.00000E+000	-5.72689E-006	0.00000E+000	6.67790E-004	-3.27687E+002	7	...........
	470	471	3.60232E+000	-1.58949E-006	0.00000E+000	-5.72585E-006	0.00000E+000	6.68157E-004	-3.27687E+002	7	...........
	471	472	3.60232E+000	-1.58917E-006	0.00000E+000	-5.72469E-006	0.00000E+000	6.67690E-004	-3.27687E+002	7	...........
	472	473	3.60233E+000	-1.58866E-006	0.00000E+000	-5.72288E-006	0.00000E+000	6.67307E-004	-3.27687E+002	7	...........
	473	474	3.60233E+000	-1.58927E-006	0.00000E+000	-5.72508E-006	0.00000E+000	6.69857E-004	-3.27687E+002	7	...........
	474	475	3.60233E+000	-1.58941E-006	0.00000E+000	-5.72559E-006	0.00000E+000	6.67240E-004	-3.27687E+002	7	...........
	475	476	3.60234E+000	-1.58985E-006	0.00000E+000	-5.72718E-006	0.00000E+000	6.67140E-004	-3.27687E+002	7	...........
	476	477	3.60234E+000	-1.58977E-006	0.00000E+000	-5.72690E-006	0.00000E+000	6.66424E-004	-3.27687E+002	7	...........
	477	478	3.60234E+000	-1.58960E-006	0.00000E+000	-5.72627E-006	0.00000E+000	6.68390E-004	-3.27687E+002	7	...........
	478	479	3.60234E+000	-1.58960E-006	0.00000E+000	-5.72627E-006	0.00000E+000	6.67840E-004	-3.27687E+002	7	...........
	479	480	3.60234E+000	-1.59013E-006	0.00000E+000	-5.72819E-006	0.00000E+000	6.67390E-004	-3.27687E+002	7	...........
	480	481	3.60235E+000	-1.59002E-006	0.00000E+000	-5.72782E-006	0.00000E+000	6.68824E-004	-3.27687E+002	7	...........
	481	482	3.60237E+000	-1.59056E-006	0.00000E+000	-5.72978E-006	0.00000E+000	6.68424E-004	-3.27687E+002	7	...........
	482	483	3.60237E+000	-1.59000E-006	0.00000E+000	-5.72778E-006	0.00000E+000	6.69074E-004	-3.27687E+002	7	...........
	483	484	3.60238E+000	-1.58997E-006	0.00000E+000	-5.72769E-006	0.00000E+000	6.70107E-004	-3.27687E+002	7	...........
	484	485	3.60238E+000	-1.58994E-006	0.00000E+000	-5.72756E-006	0.00000E+000	6.69257E-004	-3.27687E+002	7	...........
	485	486	3.60238E+000	-1.58969E-006	0.00000E+000	-5.72667E-006	0.00000E+000	6.70307E-004	-3.27687E+002	7	...........
	486	487	3.60238E+000	-1.58909E-006	0.00000E+000	-5.72449E-006	0.00000E+000	6.69490E-004	-3.27687E+002	7	...........
	487	488	3.60240E+000	-1.58976E-006	0.00000E+000	-5.72695E-006	0.00000E+000	6.72240E-004	-3.27687E+002	7	...........
	488	489	3.60240E+000	-1.59002E-006	0.00000E+000	-5.72789E-006	0.00000E+000	6.69724E-004	-3.27687E+002	7	...........
	489	490	3.60240E+000	-1.59008E-006	0.00000E+000	-5.72809E-006	0.00000E+000	6.70890E-004	-3.27687E+002	7	...........
	490	491	3.60241E+000	-1.58973E-006	0.00000E+000	-5.72686E-006	0.00000E+000	6.71057E-004	-3.27687E+002	7	...........
	491	492	3.60240E+000	-1.58963E-006	0.00000E+000	-5.72650E-006	0.00000E+000	6.71757E-004	-3.27687E+002	7	...........
	492	493	3.60242E+000	-1.58977E-006	0.00000E+000	-5.72700E-006	0.00000E+000	6.69907E-004	-3.27687E+002	7	...........
	493	494	3.60242E+000	-1.58962E-006	0.00000E+000	-5.72649E-006	0.00000E+000	6.70040E-004	-3.27687E+002	7	...........
	494	495	3.60242E+000	-1.58997E-006	0.00000E+000	-5.72775E-006	0.00000E+000	6.69924E-004	-3.27687E+002	7	...........
	495	496	3.60242E+000	-1.58972E-006	0.00000E+000	-5.72685E-006	0.00000E+000	6.71824E-004	-3.27687E+002	7	...........
	496	497	3.60243E+000	-1.59035E-006	0.00000E+000	-5.72913E-006	0.00000E+000	6.72074E-004	-3.27687E+002	7	...........
	497	498	3.60243E+000	-1.59015E-006	0.00000E+000	-5.72842E-006	0.00000E+000	6.69624E-004	-3.27687E+002	7	...........
	498	499	3.60244E+000	-1.59026E-006	0.00000E+000	-5.72884E-006	0.00000E+000	6.70974E-004	-3.27687E+002	7	...........
	499	500	3.60245E+000	-1.58979E-006	0.00000E+000	-5.72715E-006	0.00000E+000	6.69040E-004	-3.27687E+002	7	...........
	500	501	3.60244E+000	-1.58958E-006	0.00000E+000	-5.72638E-006	0.00000E+000	6.72674E-004	-3.27687E+002	7	...........
	501	502	3.60245E+000	-1.58966E-006	0.00000E+000	-5.72667E-006	0.00000E+000	6.73090E-004	-3.27687E+002	7	...........
	502	503	3.60246E+000	-1.59032E-006	0.00000E+000	-5.72907E-006	0.00000E+000	6.70907E-004	-3.27687E+002	7	...........
	503	504	3.60246E+000	-1.59011E-006	0.00000E+000	-5.72832E-006	0.00000E+000	6.68607E-004	-3.27687E+002	7	...........
	504	505	3.60247E+000	-1.59013E-006	0.00000E+000	-5.72838E-006	0.00000E+000	6.69257E-004	-3.27687E+002	7	...........
	505	506	3.60247E+000	-1.59006E-006	0.00000E+000	-5.72816E-006	0.00000E+000	6.71090E-004	-3.27687E+002	7	...........
	506	507	3.60248E+000	-1.58996E-006	0.00000E+000	-5.72780E-006	0.00000E+000	6.69024E-004	-3.27687E+002	7	...........
	507	508	3.60248E+000	-1.58996E-006	0.00000E+000	-5.72779E-006	0.00000E+000	6.71057E-004	-3.27687E+002	7	...........
	508	509	3.60248E+000	-1.59016E-006	0.00000E+000	-5.72850E-006	0.00000E+000	6.70440E-004	-3.27687E+002	7	...........
	509	510	3.60249E+000	-1.59059E-006	0.00000E+000	-5.73007E-006	0.00000E+000	6.71840E-004	-3.27687E+002	7	...........
	510	511	3.60250E+000	-1.59019E-006	0.00000E+000	-5.72865E-006	0.00000E+000	6.73174E-004	-3.27687E+002	7	...........
	511	512	3.60250E+000	-1.59005E-006	0.00000E+000	-5.72816E-006	0.00000E+000	6.73390E-004	-3.27687E+002	7	...........
	512	513	3.60250E+000	-1.58959E-006	0.00000E+000	-5.72651E-006	0.00000E+000	6.70290E-004	-3.27687E+002	7	...........
	513	514	3.60250E+000	-1.58938E-006	0.00000E+000	-5.72573E-006	0.00000E+000	6.72790E-004	-3.27687E+002	7	...........
	514	515	3.60252E+000	-1.58931E-006	0.00000E+000	-5.72552E-006	0.00000E+000	6.74574E-004	-3.27687E+002	7	...........
	515	516	3.60251E+000	-1.58892E-006	0.00000E+000	-5.72412E-006	0.00000E+000	6.74324E-004	-3.27687E+002	7	...........
	516	517	3.60251E+000	-1.58971E-006	0.00000E+000	-5.72696E-006	0.00000E+000	6.76057E-004	-3.27687E+002	7	...........
	517	518	3.60253E+000	-1.58983E-006	0.00000E+000	-5.72742E-006	0.00000E+000	6.73674E-004	-3.27687E+002	7	...........
	518	519	3.60252E+000	-1.58999E-006	0.00000E+000	-5.72798E-006	0.00000E+000	6.74124E-004	-3.27687E+002	7	...........
	519	520	3.60252E+000	-1.59001E-006	0.00000E+000	-5.72804E-006	0.00000E+000	6.72524E-004	-3.27687E+002	7	...........
	520	521	3.60254E+000	-1.59031E-006	0.00000E+000	-5.72913E-006	0.00000E+000	6.73190E-004	-3.27687E+002	7	...........
	521	522	3.60253E+000	-1.58994E-006	0.00000E+000	-5.72781E-006	0.00000E+000	6.71024E-004	-3.27687E+002	7	...........
	522	523	3.60254E+000	-1.59034E-006	0.00000E+000	-5.72925E-006	0.00000E+000	6.75440E-004	-3.27687E+002	7	...........
	523	524	3.60254E+000	-1.59049E-006	0.00000E+000	-5.72981E-006	0.00000E+000	6.74307E-004	-3.27687E+002	7	...........
	524	525	3.60254E+000	-1.59048E-006	0.00000E+000	-5.72976E-006	0.00000E+000	6.73974E-004	-3.27687E+002	7	...........
	525	526	3.60255E+000	-1.59024E-006	0.00000E+000	-5.72891E-006	0.00000E+000	6.74224E-004	-3.27687E+002	7	...........
	526	527	3.60256E+000	-1.59022E-006	0.00000E+000	-5.72886E-006	0.00000E+000	6.73740E-004	-3.27687E+002	7	...........
	527	528	3.60256E+000	-1.59023E-006	0.00000E+000	-5.72892E-006	0.00000E+000	6.74124E-004	-3.27687E+002	7	...........
	528	529	3.60257E+000	-1.59004E-006	0.00000E+000	-5.72823E-006	0.00000E+000	6.73474E-004	-3.27687E+002	7	...........
	529	530	3.60257E+000	-1.58965E-006	0.00000E+000	-5.72681E-006	0.00000E+000	6.73707E-004	-3.27687E+002	7	...........
	530	531	3.60257E+000	-1.59021E-006	0.00000E+000	-5.72883E-006	0.00000E+000	6.75557E-004	-3.27687E+002	7	...........
	531	532	3.60258E+000	-1.59044E-006	0.00000E+000	-5.72968E-006	0.00000E+000	6.73690E-004	-3.27687E+002	7	...........
	532	533	3.60258E+000	-1.58996E-006	0.00000E+000	-5.72795E-006	0.00000E+000	6.73824E-004	-3.27687E+002	7	...........
	533	534	3.60259E+000	-1.58949E-006	0.00000E+000	-5.72630E-006	0.00000E+000	6.74757E-004	-3.27687E+002	7	...........
	534	535	3.60259E+000	-1.58936E-006	0.00000E+000	-5.72583E-006	0.00000E+000	6.74207E-004	-3.27687E+002	7	...........
	535	536	3.60260E+000	-1.58968E-006	0.00000E+000	-5.72700E-006	0.00000E+000	6.75307E-004	-3.27687E+002	7	...........
	536	537	3.60261E+000	-1.59040E-006	0.00000E+000	-5.72958E-006	0.00000E+000	6.73107E-004	-3.27687E+002	7	...........
	537	538	3.60261E+000	-1.59057E-006	0.00000E+000	-5.73022E-006	0.00000E+000	6.74640E-004	-3.27687E+002	7	...........
	538	539	3.60262E+000	-1.59086E-006	0.00000E+000	-5.73127E-006	0.00000E+000	6.75257E-004	-3.27687E+002	7	...........
	539	540	3.60262E+000	-1.59043E-006	0.00000E+000	-5.72974E-006	0.00000E+000	6.75040E-004	-3.27687E+002	7	...........
	540	541	3.60263E+000	-1.59056E-006	0.00000E+000	-5.73020E-006	0.00000E+000	6.78057E-004	-3.27687E+002	7	...........
	541	542	3.60263E+000	-1.59017E-006	0.00000E+000	-5.72882E-006	0.00000E+000	6.75524E-004	-3.27687E+002	7	...........
	542	543	3.60263E+000	-1.59044E-006	0.00000E+000	-5.72975E-006	0.00000E+000	6.75224E-004	-3.27687E+002	7	...........
	543	544	3.60263E+000	-1.58920E-006	0.00000E+000	-5.72530E-006	0.00000E+000	6.74257E-004	-3.27687E+002	7	...........
	544	545	3.60264E+000	-1.58957E-006	0.00000E+000	-5.72666E-006	0.00000E+000	6.75290E-004	-3.27687E+002	7	...........
	545	546	3.60264E+000	-1.59027E-006	0.00000E+000	-5.72918E-006	0.00000E+000	6.75340E-004	-3.27687E+002	7	...........
	546	547	3.60265E+000	-1.59009E-006	0.00000E+000	-5.72855E-006	0.00000E+000	6.78374E-004	-3.27687E+002	7	...........
	547	548	3.60265E+000	-1.58967E-006	0.00000E+000	-5.72704E-006	0.00000E+000	6.75807E-004	-3.27687E+002	7	...........
	548	549	3.60266E+000	-1.58971E-006	0.00000E+000	-5.72720E-006	0.00000E+000	6.73890E-004	-3.27687E+002	7	...........
	549	550	3.60266E+000	-1.58983E-006	0.00000E+000	-5.72764E-006	0.00000E+000	6.73990E-004	-3.27687E+002	7	...........
	550	551	3.60267E+000	-1.58977E-006	0.00000E+000	-5.72741E-006	0.00000E+000	6.73807E-004	-3.27687E+002	7	...........
	551	552	3.60268E+000	-1.59000E-006	0.00000E+000	-5.72827E-006	0.00000E+000	6.74190E-004	-3.27687E+002	7	...........
	552	553	3.60268E+000	-1.59027E-006	0.00000E+000	-5.72925E-006	0.00000E+000	6.74307E-004	-3.27687E+002	7	...........
	553	554	3.60269E+000	-1.59073E-006	0.00000E+000	-5.73089E-006	0.00000E+000	6.77057E-004	-3.27687E+002	7	...........
	554	555	3.60269E+000	-1.59053E-006	0.00000E+000	-5.73021E-006	0.00000E+000	6.72657E-004	-3.27687E+002	7	...........
	555	556	3.60270E+000	-1.59041E-006	0.00000E+000	-5.72976E-006	0.00000E+000	6.76290E-004	-3.27687E+002	7	...........
	556	557	3.60270E+000	-1.58999E-006	0.00000E+000	-5.72825E-006	0.00000E+000	6.75040E-004	-3.27687E+002	7	...........
	557	558	3.60271E+000	-1.58939E-006	0.00000E+000	-5.72611E-006	0.00000E+000	6.76957E-004	-3.27687E+002	7	...........
	558	559	3.60271E+000	-1.58935E-006	0.00000E+000	-5.72596E-006	0.00000E+000	6.73774E-004	-3.27687E+002	7	...........
	559	560	3.60272E+000	-1.59000E-006	0.00000E+000	-5.72831E-006	0.00000E+000	6.77557E-004	-3.27687E+002	7	...........
	560	561	3.60273E+000	-1.59035E-006	0.00000E+000	-5.72960E-006	0.00000E+000	6.75407E-004	-3.27687E+002	7	...........
	561	562	3.60272E+000	-1.58940E-006	0.00000E+000	-5.72618E-006	0.00000E+000	6.74090E-004	-3.27687E+002	7	...........
	562	563	3.60273E+000	-1.58916E-006	0.00000E+000	-5.72531E-006	0.00000E+000	6.74824E-004	-3.27687E+002	7	...........
	563	564	3.60274E+000	-1.58986E-006	0.00000E+000	-5.72784E-006	0.00000E+000	6.75090E-004	-3.27687E+002	7	...........
	564	565	3.60275E+000	-1.58947E-006	0.00000E+000	-5.72645E-006	0.00000E+000	6.73990E-004	-3.27687E+002	7	...........
	565	566	3.60275E+000	-1.58943E-006	0.00000E+000	-5.72631E-006	0.00000E+000	6.75640E-004	-3.27687E+002	7	...........
	566	567	3.60275E+000	-1.58972E-006	0.00000E+000	-5.72737E-006	0.00000E+000	6.75857E-004	-3.27687E+002	7	...........
	567	568	3.60277E+000	-1.58978E-006	0.00000E+000	-5.72760E-006	0.00000E+000	6.76107E-004	-3.27687E+002	7	...........
	568	569	3.60277E+000	-1.59019E-006	0.00000E+000	-5.72909E-006	0.00000E+000	6.75574E-004	-3.27687E+002	7	...........
	569	570	3.60277E+000	-1.58980E-006	0.00000E+000	-5.72770E-006	0.00000E+000	6.76490E-004	-3.27687E+002	7	...........
	570	571	3.60278E+000	-1.58973E-006	0.00000E+000	-5.72746E-006	0.00000E+000	6.76324E-004	-3.27687E+002	7	...........
	571	572	3.60279E+000	-1.58944E-006	0.00000E+000	-5.72643E-006	0.00000E+000	6.76857E-004	-3.27687E+002	7	...........
	572	573	3.60280E+000	-1.58929E-006	0.00000E+000	-5.72588E-006	0.00000E+000	6.75774E-004	-3.27687E+002	7	...........
	573	574	3.60279E+000	-1.59013E-006	0.00000E+000	-5.72890E-006	0.00000E+000	6.76440E-004	-3.27687E+002	7	...........
	574	575	3.60280E+000	-1.59064E-006	0.00000E+000	-5.73074E-006	0.00000E+000	6.76807E-004	-3.27687E+002	7	...........
	575	576	3.60282E+000	-1.59017E-006	0.00000E+000	-5.72911E-006	0.00000E+000	6.76490E-004	-3.27687E+002	7	...........
	576	577	3.60283E+000	-1.58969E-006	0.00000E+000	-5.72739E-006	0.00000E+000	6.76557E-004	-3.27687E+002	7	...........
	577	578	3.60283E+000	-1.58965E-006	0.00000E+000	-5.72724E-006	0.00000E+000	6.76324E-004	-3.27687E+002	7	...........
	578	579	3.60282E+000	-1.58991E-006	0.00000E+000	-5.72816E-006	0.00000E+000	6.75907E-004	-3.27687E+002	7	...........
	579	580	3.60282E+000	-1.59022E-006	0.00000E+000	-5.72928E-006	0.00000E+000	6.76557E-004	-3.27687E+002	7	...........
	580	581	3.60284E+000	-1.59045E-006	0.00000E+000	-5.73014E-006	0.00000E+000	6.75940E-004	-3.27687E+002	7	...........
	581	582	3.60284E+000	-1.59020E-006	0.00000E+000	-5.72922E-006	0.00000E+000	6.78490E-004	-3.27687E+002	7	...........
	582	583	3.60285E+000	-1.58985E-006	0.00000E+000	-5.72800E-006	0.00000E+000	6.78507E-004	-3.27687E+002	7	...........
	583	584	3.60285E+000	-1.59044E-006	0.00000E+000	-5.73011E-006	0.00000E+000	6.77440E-004	-3.27687E+002	7	...........
	584	585	3.60286E+000	-1.59026E-006	0.00000E+000	-5.72949E-006	0.00000E+000	6.78524E-004	-3.27687E+002	7	...........
	585	586	3.60287E+000	-1.58974E-006	0.00000E+000	-5.72762E-006	0.00000E+000	6.77440E-004	-3.27687E+002	7	...........
	586	587	3.60288E+000	-1.58932E-006	0.00000E+000	-5.72614E-006	0.00000E+000	6.77240E-004	-3.27687E+002	7	...........
	587	588	3.60288E+000	-1.58994E-006	0.00000E+000	-5.72838E-006	0.00000E+000	6.78790E-004	-3.27687E+002	7	...........
	588	589	3.60289E+000	-1.59031E-006	0.00000E+000	-5.72970E-006	0.00000E+000	6.75490E-004	-3.27687E+002	7	...........
	589	590	3.60289E+000	-1.58979E-006	0.00000E+000	-5.72785E-006	0.00000E+000	6.81074E-004	-3.27687E+002	7	...........
	590	591	3.60289E+000	-1.58944E-006	0.00000E+000	-5.72659E-006	0.00000E+000	6.76974E-004	-3.27687E+002	7	...........
	591	592	3.60290E+000	-1.58939E-006	0.00000E+000	-5.72642E-006	0.00000E+000	6.78257E-004	-3.27687E+002	7	...........
	592	593	3.60290E+000	-1.59008E-006	0.00000E+000	-5.72890E-006	0.00000E+000	6.78440E-004	-3.27687E+002	7	...........
	593	594	3.60291E+000	-1.59003E-006	0.00000E+000	-5.72875E-006	0.00000E+000	6.77440E-004	-3.27687E+002	7	...........
	594	595	3.60291E+000	-1.59010E-006	0.00000E+000	-5.72898E-006	0.00000E+000	6.77790E-004	-3.27687E+002	7	...........
	595	596	3.60291E+000	-1.59040E-006	0.00000E+000	-5.73008E-006	0.00000E+000	6.77224E-004	-3.27687E+002	7	...........
	596	597	3.60292E+000	-1.59071E-006	0.00000E+000	-5.73121E-006	0.00000E+000	6.76924E-004	-3.27687E+002	7	...........
	597	598	3.60293E+000	-1.59092E-006	0.00000E+000	-5.73196E-006	0.00000E+000	6.77224E-004	-3.27687E+002	7	...........
	598	599	3.60293E+000	-1.59087E-006	0.00000E+000	-5.73181E-006	0.00000E+000	6.80990E-004	-3.27687E+002	7	...........
	599	600	3.60294E+000	-1.59077E-006	0.00000E+000	-5.73146E-006	0.00000E+000	6.78490E-004	-3.27687E+002	7	...........
