EXPLAIN
TAG	PWR800_READVOLTAGE
TITLE	LABEL	PWR Read Voltage	Test Identifier
DATE	LABEL	22.4.2024	Date
TIME	LABEL	20:34:51	Time
NOTES	NOTES	1	Notes...
	
PSTAT	PSTAT	REF600-12055	Potentiostat
CAPACITY	QUANT	1.00000E+000	Capacity (A-hr)
CELLTYPE	SELECTOR	1	Cell Type
WORKINGCONNECTION	SELECTOR	0	Working Connection
MAXTIME	VARIABLEANDUNITS	6.00000E+002	s	6.00000E+002	second(s)	Max Time
SAMPLETIME	QUANT	1.00000E+000	Sample Period (s)
STOPAT1	MULTIPARAM	0	0.00000E+000	Stop At 1	None	N/A
STOPAT2	MULTIPARAM	0	0.00000E+000	Stop At 2	None	N/A
AESBHCSELECTOR	TOGGLE	F	Save Both Half Cells
EOC	QUANT	3.908852	Open Circuit (V)
SEQUENCER	TOGGLE	TRUE	Run as Sequence
PSTATMODEL	IQUANT	4	Pstat Model
PSTATSECTION	LABEL	REF600-12055	Pstat Section
PSTATSERIALNO	LABEL	12055	Pstat Serial Number
CTRLMODE	IQUANT	0	Control Mode
ELECTROMETER	IQUANT	0	RE=0 or CS=1
IESTAB	IQUANT	0	I/E Stability
CASPEED	IQUANT	4	Control Amp Speed
CONVENTION	IQUANT	1	Current Convention
ICHRANGE	IQUANT	2	Ich Range
ICHRANGEMODE	TOGGLE	T	Ich Auto Range
ICHOFFSETENABLE	TOGGLE	F	Ich Offset Enable
ICHOFFSET	QUANT	0	Ich Offset (V)
ICHFILTER	IQUANT	1	Ich Filter
VCHRANGE	IQUANT	3	Vch Range
VCHRANGEMODE	TOGGLE	T	Vch Auto Range
VCHOFFSETENABLE	TOGGLE	F	Vch Offset Enable
VCHOFFSET	QUANT	0	Vch Offset (V)
VCHFILTER	IQUANT	1	Vch Filter
ACHRANGE	IQUANT	2	Ach Range
ACHOFFSETENABLE	TOGGLE	F	Ach Offset Enable
ACHOFFSET	QUANT	0	Ach Offset (V)
ACHFILTER	IQUANT	1	Ach Filter
IERANGELOWERLIMIT	IQUANT	7	I/E Range Lower Limit
IERANGEMODE	TOGGLE	F	I/E AutoRange
IERANGE	IQUANT	11	I/E Range
POSFEEDENABLE	TOGGLE	F	Positive Feedback IR Comp
POSFEEDRESISTANCE	QUANT	0	Positive Feedback Resistance (ohm)
ACHSELECT	IQUANT	4	Ach Select
SENSECABLEID	IQUANT	14	Sense Cable ID
PWRCABLEID	IQUANT	14	Power Cable ID
DCCALDATE	LABEL	2/12/2024	DC Calibration Date
ACCALDATE	LABEL	2/12/2024	AC Calibration Date
THERMOSELECT	IQUANT	1	Thermo Select
FRAMEWORKVERSION	LABEL	7.10.3	Framework Version
INSTRUMENTVERSION	LABEL	4.91	Instrument Version
COMMVERSION	LABEL	2.24	Communications Version
CPUPLDVERSION	LABEL	0.00	CPU PLD Version
CTRLPLDVERSION	LABEL	0.00	CTRL PLD Version
PSTATPLDVERSION	LABEL	0.00	PSTAT PLD Version
CURVE	TABLE	600
	Pt	T	Vf	Im	Vu	Pwr	Sig	Ach	Temp	IERange	Over
	#	s	V	A	V	W	V	V	deg C	#	bits
	0	1	4.01505E+000	1.38692E-006	0.00000E+000	5.56855E-006	0.00000E+000	9.95907E-004	-3.27687E+002	7	...........
	1	2	4.01481E+000	1.38631E-006	0.00000E+000	5.56578E-006	0.00000E+000	9.96707E-004	-3.27687E+002	7	...........
	2	3	4.01463E+000	1.38605E-006	0.00000E+000	5.56445E-006	0.00000E+000	9.96690E-004	-3.27687E+002	7	...........
	3	4	4.01447E+000	1.38555E-006	0.00000E+000	5.56223E-006	0.00000E+000	1.00041E-003	-3.27687E+002	7	...........
	4	5	4.01434E+000	1.38522E-006	0.00000E+000	5.56073E-006	0.00000E+000	9.99807E-004	-3.27687E+002	7	...........
	5	6	4.01423E+000	1.38575E-006	0.00000E+000	5.56272E-006	0.00000E+000	9.98457E-004	-3.27687E+002	7	...........
	6	7	4.01413E+000	1.38521E-006	0.00000E+000	5.56042E-006	0.00000E+000	9.98107E-004	-3.27687E+002	7	...........
	7	8	4.01405E+000	1.38554E-006	0.00000E+000	5.56164E-006	0.00000E+000	1.00029E-003	-3.27687E+002	7	...........
	8	9	4.01396E+000	1.38519E-006	0.00000E+000	5.56009E-006	0.00000E+000	9.96874E-004	-3.27687E+002	7	...........
	9	10	4.01387E+000	1.38547E-006	0.00000E+000	5.56110E-006	0.00000E+000	9.96657E-004	-3.27687E+002	7	...........
	10	11	4.01379E+000	1.38604E-006	0.00000E+000	5.56327E-006	0.00000E+000	9.94207E-004	-3.27687E+002	7	...........
	11	12	4.01370E+000	1.38601E-006	0.00000E+000	5.56304E-006	0.00000E+000	9.95290E-004	-3.27687E+002	7	...........
	12	13	4.01362E+000	1.38590E-006	0.00000E+000	5.56246E-006	0.00000E+000	9.95157E-004	-3.27687E+002	7	...........
	13	14	4.01354E+000	1.38580E-006	0.00000E+000	5.56194E-006	0.00000E+000	9.91090E-004	-3.27687E+002	7	...........
	14	15	4.01347E+000	1.38539E-006	0.00000E+000	5.56021E-006	0.00000E+000	9.91657E-004	-3.27687E+002	7	...........
	15	16	4.01339E+000	1.38564E-006	0.00000E+000	5.56113E-006	0.00000E+000	9.92624E-004	-3.27687E+002	7	...........
	16	17	4.01332E+000	1.38611E-006	0.00000E+000	5.56291E-006	0.00000E+000	9.90890E-004	-3.27687E+002	7	...........
	17	18	4.01325E+000	1.38548E-006	0.00000E+000	5.56029E-006	0.00000E+000	9.93007E-004	-3.27687E+002	7	...........
	18	19	4.01319E+000	1.38459E-006	0.00000E+000	5.55663E-006	0.00000E+000	9.94857E-004	-3.27687E+002	7	...........
	19	20	4.01312E+000	1.38428E-006	0.00000E+000	5.55527E-006	0.00000E+000	9.96390E-004	-3.27687E+002	7	...........
	20	21	4.01305E+000	1.38477E-006	0.00000E+000	5.55716E-006	0.00000E+000	8.19507E-004	-3.27687E+002	7	...........
	21	22	4.01297E+000	1.38524E-006	0.00000E+000	5.55892E-006	0.00000E+000	7.36174E-004	-3.27687E+002	7	...........
	22	23	4.01288E+000	1.38562E-006	0.00000E+000	5.56032E-006	0.00000E+000	7.41524E-004	-3.27687E+002	7	...........
	23	24	4.01280E+000	1.38624E-006	0.00000E+000	5.56271E-006	0.00000E+000	7.40724E-004	-3.27687E+002	7	...........
	24	25	4.01273E+000	1.38514E-006	0.00000E+000	5.55818E-006	0.00000E+000	7.40607E-004	-3.27687E+002	7	...........
	25	26	4.01265E+000	1.38486E-006	0.00000E+000	5.55695E-006	0.00000E+000	7.42640E-004	-3.27687E+002	7	...........
	26	27	4.01258E+000	1.38510E-006	0.00000E+000	5.55783E-006	0.00000E+000	7.43974E-004	-3.27687E+002	7	...........
	27	28	4.01252E+000	1.38507E-006	0.00000E+000	5.55763E-006	0.00000E+000	7.42340E-004	-3.27687E+002	7	...........
	28	29	4.01245E+000	1.38503E-006	0.00000E+000	5.55736E-006	0.00000E+000	7.42307E-004	-3.27687E+002	7	...........
	29	30	4.01239E+000	1.38525E-006	0.00000E+000	5.55815E-006	0.00000E+000	7.43007E-004	-3.27687E+002	7	...........
	30	31	4.01233E+000	1.38519E-006	0.00000E+000	5.55785E-006	0.00000E+000	7.42990E-004	-3.27687E+002	7	...........
	31	32	4.01227E+000	1.38576E-006	0.00000E+000	5.56005E-006	0.00000E+000	7.38440E-004	-3.27687E+002	7	...........
	32	33	4.01222E+000	1.38598E-006	0.00000E+000	5.56087E-006	0.00000E+000	7.41390E-004	-3.27687E+002	7	...........
	33	34	4.01218E+000	1.38559E-006	0.00000E+000	5.55924E-006	0.00000E+000	7.38857E-004	-3.27687E+002	7	...........
	34	35	4.01214E+000	1.38543E-006	0.00000E+000	5.55855E-006	0.00000E+000	7.39190E-004	-3.27687E+002	7	...........
	35	36	4.01209E+000	1.38634E-006	0.00000E+000	5.56211E-006	0.00000E+000	7.38040E-004	-3.27687E+002	7	...........
	36	37	4.01205E+000	1.38602E-006	0.00000E+000	5.56079E-006	0.00000E+000	7.36590E-004	-3.27687E+002	7	...........
	37	38	4.01201E+000	1.38594E-006	0.00000E+000	5.56043E-006	0.00000E+000	7.37040E-004	-3.27687E+002	7	...........
	38	39	4.01198E+000	1.38690E-006	0.00000E+000	5.56423E-006	0.00000E+000	7.34257E-004	-3.27687E+002	7	...........
	39	40	4.01195E+000	1.38633E-006	0.00000E+000	5.56191E-006	0.00000E+000	7.35524E-004	-3.27687E+002	7	...........
	40	41	4.01192E+000	1.38647E-006	0.00000E+000	5.56240E-006	0.00000E+000	7.32490E-004	-3.27687E+002	7	...........
	41	42	4.01189E+000	1.38665E-006	0.00000E+000	5.56308E-006	0.00000E+000	7.36390E-004	-3.27687E+002	7	...........
	42	43	4.01185E+000	1.38656E-006	0.00000E+000	5.56267E-006	0.00000E+000	7.33757E-004	-3.27687E+002	7	...........
	43	44	4.01182E+000	1.38674E-006	0.00000E+000	5.56336E-006	0.00000E+000	7.32974E-004	-3.27687E+002	7	...........
	44	45	4.01180E+000	1.38670E-006	0.00000E+000	5.56316E-006	0.00000E+000	7.30324E-004	-3.27687E+002	7	...........
	45	46	4.01177E+000	1.38677E-006	0.00000E+000	5.56338E-006	0.00000E+000	7.31457E-004	-3.27687E+002	7	...........
	46	47	4.01174E+000	1.38660E-006	0.00000E+000	5.56269E-006	0.00000E+000	7.32274E-004	-3.27687E+002	7	...........
	47	48	4.01171E+000	1.38634E-006	0.00000E+000	5.56158E-006	0.00000E+000	7.29407E-004	-3.27687E+002	7	...........
	48	49	4.01169E+000	1.38598E-006	0.00000E+000	5.56013E-006	0.00000E+000	7.31524E-004	-3.27687E+002	7	...........
	49	50	4.01166E+000	1.38592E-006	0.00000E+000	5.55984E-006	0.00000E+000	7.28357E-004	-3.27687E+002	7	...........
	50	51	4.01163E+000	1.38519E-006	0.00000E+000	5.55688E-006	0.00000E+000	7.32224E-004	-3.27687E+002	7	...........
	51	52	4.01159E+000	1.38597E-006	0.00000E+000	5.55994E-006	0.00000E+000	7.33174E-004	-3.27687E+002	7	...........
	52	53	4.01157E+000	1.38602E-006	0.00000E+000	5.56011E-006	0.00000E+000	7.32090E-004	-3.27687E+002	7	...........
	53	54	4.01154E+000	1.38600E-006	0.00000E+000	5.55998E-006	0.00000E+000	7.33607E-004	-3.27687E+002	7	...........
	54	55	4.01150E+000	1.38608E-006	0.00000E+000	5.56026E-006	0.00000E+000	7.34607E-004	-3.27687E+002	7	...........
	55	56	4.01147E+000	1.38602E-006	0.00000E+000	5.55997E-006	0.00000E+000	7.35140E-004	-3.27687E+002	7	...........
	56	57	4.01144E+000	1.38584E-006	0.00000E+000	5.55921E-006	0.00000E+000	7.35390E-004	-3.27687E+002	7	...........
	57	58	4.01142E+000	1.38578E-006	0.00000E+000	5.55895E-006	0.00000E+000	7.35374E-004	-3.27687E+002	7	...........
	58	59	4.01138E+000	1.38609E-006	0.00000E+000	5.56014E-006	0.00000E+000	7.37474E-004	-3.27687E+002	7	...........
	59	60	4.01135E+000	1.38600E-006	0.00000E+000	5.55971E-006	0.00000E+000	7.36590E-004	-3.27687E+002	7	...........
	60	61	4.01131E+000	1.38626E-006	0.00000E+000	5.56071E-006	0.00000E+000	7.37007E-004	-3.27687E+002	7	...........
	61	62	4.01128E+000	1.38573E-006	0.00000E+000	5.55856E-006	0.00000E+000	7.35674E-004	-3.27687E+002	7	...........
	62	63	4.01125E+000	1.38546E-006	0.00000E+000	5.55740E-006	0.00000E+000	7.38507E-004	-3.27687E+002	7	...........
	63	64	4.01121E+000	1.38556E-006	0.00000E+000	5.55776E-006	0.00000E+000	7.39207E-004	-3.27687E+002	7	...........
	64	65	4.01118E+000	1.38575E-006	0.00000E+000	5.55850E-006	0.00000E+000	7.41040E-004	-3.27687E+002	7	...........
	65	66	4.01115E+000	1.38543E-006	0.00000E+000	5.55717E-006	0.00000E+000	7.39640E-004	-3.27687E+002	7	...........
	66	67	4.01113E+000	1.38544E-006	0.00000E+000	5.55719E-006	0.00000E+000	7.39190E-004	-3.27687E+002	7	...........
	67	68	4.01110E+000	1.38561E-006	0.00000E+000	5.55781E-006	0.00000E+000	7.38524E-004	-3.27687E+002	7	...........
	68	69	4.01107E+000	1.38617E-006	0.00000E+000	5.56004E-006	0.00000E+000	7.39124E-004	-3.27687E+002	7	...........
	69	70	4.01104E+000	1.38713E-006	0.00000E+000	5.56383E-006	0.00000E+000	7.38690E-004	-3.27687E+002	7	...........
	70	71	4.01102E+000	1.38703E-006	0.00000E+000	5.56340E-006	0.00000E+000	7.38640E-004	-3.27687E+002	7	...........
	71	72	4.01098E+000	1.38630E-006	0.00000E+000	5.56045E-006	0.00000E+000	7.36107E-004	-3.27687E+002	7	...........
	72	73	4.01096E+000	1.38703E-006	0.00000E+000	5.56331E-006	0.00000E+000	7.36607E-004	-3.27687E+002	7	...........
	73	74	4.01094E+000	1.38650E-006	0.00000E+000	5.56117E-006	0.00000E+000	7.33840E-004	-3.27687E+002	7	...........
	74	75	4.01091E+000	1.38720E-006	0.00000E+000	5.56393E-006	0.00000E+000	7.35924E-004	-3.27687E+002	7	...........
	75	76	4.01090E+000	1.38709E-006	0.00000E+000	5.56349E-006	0.00000E+000	7.34424E-004	-3.27687E+002	7	...........
	76	77	4.01086E+000	1.38716E-006	0.00000E+000	5.56372E-006	0.00000E+000	7.36974E-004	-3.27687E+002	7	...........
	77	78	4.01085E+000	1.38701E-006	0.00000E+000	5.56310E-006	0.00000E+000	7.31040E-004	-3.27687E+002	7	...........
	78	79	4.01082E+000	1.38688E-006	0.00000E+000	5.56251E-006	0.00000E+000	7.30540E-004	-3.27687E+002	7	...........
	79	80	4.01080E+000	1.38662E-006	0.00000E+000	5.56147E-006	0.00000E+000	7.33574E-004	-3.27687E+002	7	...........
	80	81	4.01078E+000	1.38660E-006	0.00000E+000	5.56135E-006	0.00000E+000	7.32490E-004	-3.27687E+002	7	...........
	81	82	4.01075E+000	1.38601E-006	0.00000E+000	5.55895E-006	0.00000E+000	7.31407E-004	-3.27687E+002	7	...........
	82	83	4.01073E+000	1.38658E-006	0.00000E+000	5.56120E-006	0.00000E+000	7.29474E-004	-3.27687E+002	7	...........
	83	84	4.01071E+000	1.38611E-006	0.00000E+000	5.55926E-006	0.00000E+000	7.31590E-004	-3.27687E+002	7	...........
	84	85	4.01069E+000	1.38682E-006	0.00000E+000	5.56209E-006	0.00000E+000	7.30340E-004	-3.27687E+002	7	...........
	85	86	4.01066E+000	1.38754E-006	0.00000E+000	5.56494E-006	0.00000E+000	7.26507E-004	-3.27687E+002	7	...........
	86	87	4.01064E+000	1.38693E-006	0.00000E+000	5.56249E-006	0.00000E+000	7.27790E-004	-3.27687E+002	7	...........
	87	88	4.01062E+000	1.38647E-006	0.00000E+000	5.56061E-006	0.00000E+000	7.26857E-004	-3.27687E+002	7	...........
	88	89	4.01059E+000	1.38634E-006	0.00000E+000	5.56005E-006	0.00000E+000	7.25457E-004	-3.27687E+002	7	...........
	89	90	4.01057E+000	1.38600E-006	0.00000E+000	5.55864E-006	0.00000E+000	7.23574E-004	-3.27687E+002	7	...........
	90	91	4.01055E+000	1.38712E-006	0.00000E+000	5.56312E-006	0.00000E+000	7.23290E-004	-3.27687E+002	7	...........
	91	92	4.01053E+000	1.38687E-006	0.00000E+000	5.56209E-006	0.00000E+000	7.21274E-004	-3.27687E+002	7	...........
	92	93	4.01051E+000	1.38711E-006	0.00000E+000	5.56303E-006	0.00000E+000	7.25374E-004	-3.27687E+002	7	...........
	93	94	4.01049E+000	1.38699E-006	0.00000E+000	5.56250E-006	0.00000E+000	7.22407E-004	-3.27687E+002	7	...........
	94	95	4.01047E+000	1.38641E-006	0.00000E+000	5.56015E-006	0.00000E+000	7.21990E-004	-3.27687E+002	7	...........
	95	96	4.01045E+000	1.38685E-006	0.00000E+000	5.56189E-006	0.00000E+000	7.18724E-004	-3.27687E+002	7	...........
	96	97	4.01042E+000	1.38647E-006	0.00000E+000	5.56032E-006	0.00000E+000	7.19957E-004	-3.27687E+002	7	...........
	97	98	4.01041E+000	1.38625E-006	0.00000E+000	5.55943E-006	0.00000E+000	7.17674E-004	-3.27687E+002	7	...........
	98	99	4.01038E+000	1.38628E-006	0.00000E+000	5.55951E-006	0.00000E+000	7.19624E-004	-3.27687E+002	7	...........
	99	100	4.01036E+000	1.38654E-006	0.00000E+000	5.56052E-006	0.00000E+000	7.18190E-004	-3.27687E+002	7	...........
	100	101	4.01034E+000	1.38772E-006	0.00000E+000	5.56521E-006	0.00000E+000	7.20107E-004	-3.27687E+002	7	...........
	101	102	4.01031E+000	1.38744E-006	0.00000E+000	5.56408E-006	0.00000E+000	7.17440E-004	-3.27687E+002	7	...........
	102	103	4.01029E+000	1.38682E-006	0.00000E+000	5.56156E-006	0.00000E+000	7.19390E-004	-3.27687E+002	7	...........
	103	104	4.01027E+000	1.38641E-006	0.00000E+000	5.55989E-006	0.00000E+000	7.20574E-004	-3.27687E+002	7	...........
	104	105	4.01025E+000	1.38672E-006	0.00000E+000	5.56111E-006	0.00000E+000	7.22624E-004	-3.27687E+002	7	...........
	105	106	4.01023E+000	1.38723E-006	0.00000E+000	5.56311E-006	0.00000E+000	7.18274E-004	-3.27687E+002	7	...........
	106	107	4.01020E+000	1.38757E-006	0.00000E+000	5.56443E-006	0.00000E+000	7.20307E-004	-3.27687E+002	7	...........
	107	108	4.01019E+000	1.38775E-006	0.00000E+000	5.56516E-006	0.00000E+000	7.20390E-004	-3.27687E+002	7	...........
	108	109	4.01017E+000	1.38791E-006	0.00000E+000	5.56574E-006	0.00000E+000	7.20624E-004	-3.27687E+002	7	...........
	109	110	4.01015E+000	1.38753E-006	0.00000E+000	5.56419E-006	0.00000E+000	7.20907E-004	-3.27687E+002	7	...........
	110	111	4.01013E+000	1.38768E-006	0.00000E+000	5.56479E-006	0.00000E+000	7.20957E-004	-3.27687E+002	7	...........
	111	112	4.01011E+000	1.38747E-006	0.00000E+000	5.56389E-006	0.00000E+000	7.23774E-004	-3.27687E+002	7	...........
	112	113	4.01008E+000	1.38777E-006	0.00000E+000	5.56506E-006	0.00000E+000	7.22524E-004	-3.27687E+002	7	...........
	113	114	4.01007E+000	1.38827E-006	0.00000E+000	5.56707E-006	0.00000E+000	7.22207E-004	-3.27687E+002	7	...........
	114	115	4.01005E+000	1.38826E-006	0.00000E+000	5.56698E-006	0.00000E+000	7.23857E-004	-3.27687E+002	7	...........
	115	116	4.01003E+000	1.38792E-006	0.00000E+000	5.56559E-006	0.00000E+000	7.23140E-004	-3.27687E+002	7	...........
	116	117	4.01000E+000	1.38858E-006	0.00000E+000	5.56823E-006	0.00000E+000	7.27657E-004	-3.27687E+002	7	...........
	117	118	4.00998E+000	1.38773E-006	0.00000E+000	5.56475E-006	0.00000E+000	7.29607E-004	-3.27687E+002	7	...........
	118	119	4.00997E+000	1.38726E-006	0.00000E+000	5.56287E-006	0.00000E+000	7.26324E-004	-3.27687E+002	7	...........
	119	120	4.00994E+000	1.38759E-006	0.00000E+000	5.56414E-006	0.00000E+000	7.28207E-004	-3.27687E+002	7	...........
	120	121	4.00992E+000	1.38783E-006	0.00000E+000	5.56510E-006	0.00000E+000	7.27874E-004	-3.27687E+002	7	...........
	121	122	4.00991E+000	1.38823E-006	0.00000E+000	5.56667E-006	0.00000E+000	7.30807E-004	-3.27687E+002	7	...........
	122	123	4.00988E+000	1.38848E-006	0.00000E+000	5.56763E-006	0.00000E+000	7.29590E-004	-3.27687E+002	7	...........
	123	124	4.00986E+000	1.38872E-006	0.00000E+000	5.56857E-006	0.00000E+000	7.30940E-004	-3.27687E+002	7	...........
	124	125	4.00985E+000	1.38836E-006	0.00000E+000	5.56714E-006	0.00000E+000	7.32657E-004	-3.27687E+002	7	...........
	125	126	4.00984E+000	1.38765E-006	0.00000E+000	5.56424E-006	0.00000E+000	7.31357E-004	-3.27687E+002	7	...........
	126	127	4.00980E+000	1.38819E-006	0.00000E+000	5.56639E-006	0.00000E+000	7.31790E-004	-3.27687E+002	7	...........
	127	128	4.00978E+000	1.38711E-006	0.00000E+000	5.56201E-006	0.00000E+000	7.32924E-004	-3.27687E+002	7	...........
	128	129	4.00977E+000	1.38686E-006	0.00000E+000	5.56099E-006	0.00000E+000	7.35290E-004	-3.27687E+002	7	...........
	129	130	4.00975E+000	1.38769E-006	0.00000E+000	5.56430E-006	0.00000E+000	7.37674E-004	-3.27687E+002	7	...........
	130	131	4.00973E+000	1.38806E-006	0.00000E+000	5.56576E-006	0.00000E+000	7.35607E-004	-3.27687E+002	7	...........
	131	132	4.00971E+000	1.38751E-006	0.00000E+000	5.56350E-006	0.00000E+000	7.35257E-004	-3.27687E+002	7	...........
	132	133	4.00970E+000	1.38801E-006	0.00000E+000	5.56550E-006	0.00000E+000	7.39824E-004	-3.27687E+002	7	...........
	133	134	4.00968E+000	1.38780E-006	0.00000E+000	5.56463E-006	0.00000E+000	7.41040E-004	-3.27687E+002	7	...........
	134	135	4.00966E+000	1.38769E-006	0.00000E+000	5.56416E-006	0.00000E+000	7.38307E-004	-3.27687E+002	7	...........
	135	136	4.00964E+000	1.38824E-006	0.00000E+000	5.56633E-006	0.00000E+000	7.40874E-004	-3.27687E+002	7	...........
	136	137	4.00962E+000	1.38874E-006	0.00000E+000	5.56832E-006	0.00000E+000	7.38590E-004	-3.27687E+002	7	...........
	137	138	4.00961E+000	1.38942E-006	0.00000E+000	5.57102E-006	0.00000E+000	7.42124E-004	-3.27687E+002	7	...........
	138	139	4.00959E+000	1.38898E-006	0.00000E+000	5.56924E-006	0.00000E+000	7.41307E-004	-3.27687E+002	7	...........
	139	140	4.00957E+000	1.38920E-006	0.00000E+000	5.57010E-006	0.00000E+000	7.41190E-004	-3.27687E+002	7	...........
	140	141	4.00955E+000	1.38902E-006	0.00000E+000	5.56935E-006	0.00000E+000	7.41940E-004	-3.27687E+002	7	...........
	141	142	4.00953E+000	1.38879E-006	0.00000E+000	5.56841E-006	0.00000E+000	7.44607E-004	-3.27687E+002	7	...........
	142	143	4.00952E+000	1.38871E-006	0.00000E+000	5.56806E-006	0.00000E+000	7.44640E-004	-3.27687E+002	7	...........
	143	144	4.00951E+000	1.38861E-006	0.00000E+000	5.56763E-006	0.00000E+000	7.42907E-004	-3.27687E+002	7	...........
	144	145	4.00949E+000	1.38822E-006	0.00000E+000	5.56605E-006	0.00000E+000	7.41774E-004	-3.27687E+002	7	...........
	145	146	4.00948E+000	1.38801E-006	0.00000E+000	5.56521E-006	0.00000E+000	7.45424E-004	-3.27687E+002	7	...........
	146	147	4.00946E+000	1.38836E-006	0.00000E+000	5.56656E-006	0.00000E+000	7.43774E-004	-3.27687E+002	7	...........
	147	148	4.00944E+000	1.38902E-006	0.00000E+000	5.56919E-006	0.00000E+000	7.45024E-004	-3.27687E+002	7	...........
	148	149	4.00943E+000	1.38839E-006	0.00000E+000	5.56664E-006	0.00000E+000	7.46107E-004	-3.27687E+002	7	...........
	149	150	4.00941E+000	1.38853E-006	0.00000E+000	5.56720E-006	0.00000E+000	7.41424E-004	-3.27687E+002	7	...........
	150	151	4.00939E+000	1.38832E-006	0.00000E+000	5.56634E-006	0.00000E+000	7.46174E-004	-3.27687E+002	7	...........
	151	152	4.00939E+000	1.38875E-006	0.00000E+000	5.56806E-006	0.00000E+000	7.43324E-004	-3.27687E+002	7	...........
	152	153	4.00937E+000	1.38884E-006	0.00000E+000	5.56836E-006	0.00000E+000	7.45840E-004	-3.27687E+002	7	...........
	153	154	4.00936E+000	1.38859E-006	0.00000E+000	5.56734E-006	0.00000E+000	7.43040E-004	-3.27687E+002	7	...........
	154	155	4.00935E+000	1.38857E-006	0.00000E+000	5.56727E-006	0.00000E+000	7.45824E-004	-3.27687E+002	7	...........
	155	156	4.00934E+000	1.38876E-006	0.00000E+000	5.56802E-006	0.00000E+000	7.43340E-004	-3.27687E+002	7	...........
	156	157	4.00932E+000	1.38885E-006	0.00000E+000	5.56836E-006	0.00000E+000	7.46290E-004	-3.27687E+002	7	...........
	157	158	4.00930E+000	1.38838E-006	0.00000E+000	5.56643E-006	0.00000E+000	7.45674E-004	-3.27687E+002	7	...........
	158	159	4.00929E+000	1.38753E-006	0.00000E+000	5.56300E-006	0.00000E+000	7.43224E-004	-3.27687E+002	7	...........
	159	160	4.00927E+000	1.38798E-006	0.00000E+000	5.56478E-006	0.00000E+000	7.45757E-004	-3.27687E+002	7	...........
	160	161	4.00927E+000	1.38849E-006	0.00000E+000	5.56683E-006	0.00000E+000	7.46990E-004	-3.27687E+002	7	...........
	161	162	4.00926E+000	1.38786E-006	0.00000E+000	5.56429E-006	0.00000E+000	7.46874E-004	-3.27687E+002	7	...........
	162	163	4.00924E+000	1.38836E-006	0.00000E+000	5.56626E-006	0.00000E+000	7.45374E-004	-3.27687E+002	7	...........
	163	164	4.00923E+000	1.38883E-006	0.00000E+000	5.56815E-006	0.00000E+000	7.44857E-004	-3.27687E+002	7	...........
	164	165	4.00922E+000	1.38843E-006	0.00000E+000	5.56653E-006	0.00000E+000	7.44174E-004	-3.27687E+002	7	...........
	165	166	4.00920E+000	1.38835E-006	0.00000E+000	5.56616E-006	0.00000E+000	7.45607E-004	-3.27687E+002	7	...........
	166	167	4.00919E+000	1.38813E-006	0.00000E+000	5.56527E-006	0.00000E+000	7.44290E-004	-3.27687E+002	7	...........
	167	168	4.00917E+000	1.38873E-006	0.00000E+000	5.56768E-006	0.00000E+000	7.42757E-004	-3.27687E+002	7	...........
	168	169	4.00916E+000	1.38907E-006	0.00000E+000	5.56902E-006	0.00000E+000	7.42574E-004	-3.27687E+002	7	...........
	169	170	4.00915E+000	1.38892E-006	0.00000E+000	5.56841E-006	0.00000E+000	7.44407E-004	-3.27687E+002	7	...........
	170	171	4.00914E+000	1.38931E-006	0.00000E+000	5.56995E-006	0.00000E+000	7.45607E-004	-3.27687E+002	7	...........
	171	172	4.00913E+000	1.38948E-006	0.00000E+000	5.57061E-006	0.00000E+000	7.45190E-004	-3.27687E+002	7	...........
	172	173	4.00912E+000	1.38879E-006	0.00000E+000	5.56783E-006	0.00000E+000	7.44324E-004	-3.27687E+002	7	...........
	173	174	4.00910E+000	1.38903E-006	0.00000E+000	5.56875E-006	0.00000E+000	7.42040E-004	-3.27687E+002	7	...........
	174	175	4.00910E+000	1.38758E-006	0.00000E+000	5.56296E-006	0.00000E+000	7.43840E-004	-3.27687E+002	7	...........
	175	176	4.00908E+000	1.38756E-006	0.00000E+000	5.56283E-006	0.00000E+000	7.43257E-004	-3.27687E+002	7	...........
	176	177	4.00907E+000	1.38812E-006	0.00000E+000	5.56506E-006	0.00000E+000	7.42440E-004	-3.27687E+002	7	...........
	177	178	4.00907E+000	1.38873E-006	0.00000E+000	5.56751E-006	0.00000E+000	7.42824E-004	-3.27687E+002	7	...........
	178	179	4.00905E+000	1.38938E-006	0.00000E+000	5.57008E-006	0.00000E+000	7.41657E-004	-3.27687E+002	7	...........
	179	180	4.00904E+000	1.38913E-006	0.00000E+000	5.56909E-006	0.00000E+000	7.41474E-004	-3.27687E+002	7	...........
	180	181	4.00902E+000	1.38847E-006	0.00000E+000	5.56642E-006	0.00000E+000	7.42257E-004	-3.27687E+002	7	...........
	181	182	4.00901E+000	1.38851E-006	0.00000E+000	5.56654E-006	0.00000E+000	7.42040E-004	-3.27687E+002	7	...........
	182	183	4.00899E+000	1.38832E-006	0.00000E+000	5.56575E-006	0.00000E+000	7.42290E-004	-3.27687E+002	7	...........
	183	184	4.00898E+000	1.38855E-006	0.00000E+000	5.56668E-006	0.00000E+000	7.43190E-004	-3.27687E+002	7	...........
	184	185	4.00897E+000	1.38924E-006	0.00000E+000	5.56941E-006	0.00000E+000	7.44724E-004	-3.27687E+002	7	...........
	185	186	4.00895E+000	1.38983E-006	0.00000E+000	5.57176E-006	0.00000E+000	7.44657E-004	-3.27687E+002	7	...........
	186	187	4.00894E+000	1.38941E-006	0.00000E+000	5.57006E-006	0.00000E+000	7.39990E-004	-3.27687E+002	7	...........
	187	188	4.00892E+000	1.38895E-006	0.00000E+000	5.56819E-006	0.00000E+000	7.40640E-004	-3.27687E+002	7	...........
	188	189	4.00890E+000	1.38922E-006	0.00000E+000	5.56926E-006	0.00000E+000	7.41124E-004	-3.27687E+002	7	...........
	189	190	4.00890E+000	1.38913E-006	0.00000E+000	5.56887E-006	0.00000E+000	7.39990E-004	-3.27687E+002	7	...........
	190	191	4.00890E+000	1.38919E-006	0.00000E+000	5.56912E-006	0.00000E+000	7.39674E-004	-3.27687E+002	7	...........
	191	192	4.00887E+000	1.38982E-006	0.00000E+000	5.57162E-006	0.00000E+000	7.41624E-004	-3.27687E+002	7	...........
	192	193	4.00886E+000	1.38997E-006	0.00000E+000	5.57219E-006	0.00000E+000	7.39724E-004	-3.27687E+002	7	...........
	193	194	4.00884E+000	1.39034E-006	0.00000E+000	5.57364E-006	0.00000E+000	7.41024E-004	-3.27687E+002	7	...........
	194	195	4.00883E+000	1.39098E-006	0.00000E+000	5.57619E-006	0.00000E+000	7.39124E-004	-3.27687E+002	7	...........
	195	196	4.00883E+000	1.39030E-006	0.00000E+000	5.57347E-006	0.00000E+000	7.40157E-004	-3.27687E+002	7	...........
	196	197	4.00882E+000	1.39003E-006	0.00000E+000	5.57236E-006	0.00000E+000	7.40074E-004	-3.27687E+002	7	...........
	197	198	4.00880E+000	1.38965E-006	0.00000E+000	5.57083E-006	0.00000E+000	7.36674E-004	-3.27687E+002	7	...........
	198	199	4.00879E+000	1.38997E-006	0.00000E+000	5.57210E-006	0.00000E+000	7.39340E-004	-3.27687E+002	7	...........
	199	200	4.00877E+000	1.39020E-006	0.00000E+000	5.57299E-006	0.00000E+000	7.39874E-004	-3.27687E+002	7	...........
	200	201	4.00876E+000	1.39054E-006	0.00000E+000	5.57436E-006	0.00000E+000	7.37590E-004	-3.27687E+002	7	...........
	201	202	4.00875E+000	1.39064E-006	0.00000E+000	5.57473E-006	0.00000E+000	7.40257E-004	-3.27687E+002	7	...........
	202	203	4.00873E+000	1.39003E-006	0.00000E+000	5.57227E-006	0.00000E+000	7.39174E-004	-3.27687E+002	7	...........
	203	204	4.00872E+000	1.38990E-006	0.00000E+000	5.57173E-006	0.00000E+000	7.40774E-004	-3.27687E+002	7	...........
	204	205	4.00871E+000	1.39008E-006	0.00000E+000	5.57244E-006	0.00000E+000	7.37640E-004	-3.27687E+002	7	...........
	205	206	4.00871E+000	1.38910E-006	0.00000E+000	5.56851E-006	0.00000E+000	7.40924E-004	-3.27687E+002	7	...........
	206	207	4.00870E+000	1.38937E-006	0.00000E+000	5.56958E-006	0.00000E+000	7.36940E-004	-3.27687E+002	7	...........
	207	208	4.00868E+000	1.38904E-006	0.00000E+000	5.56821E-006	0.00000E+000	7.36024E-004	-3.27687E+002	7	...........
	208	209	4.00867E+000	1.38957E-006	0.00000E+000	5.57033E-006	0.00000E+000	7.37290E-004	-3.27687E+002	7	...........
	209	210	4.00865E+000	1.39026E-006	0.00000E+000	5.57308E-006	0.00000E+000	7.36607E-004	-3.27687E+002	7	...........
	210	211	4.00864E+000	1.39034E-006	0.00000E+000	5.57339E-006	0.00000E+000	7.39940E-004	-3.27687E+002	7	...........
	211	212	4.00863E+000	1.38995E-006	0.00000E+000	5.57179E-006	0.00000E+000	7.37474E-004	-3.27687E+002	7	...........
	212	213	4.00862E+000	1.39019E-006	0.00000E+000	5.57274E-006	0.00000E+000	7.37690E-004	-3.27687E+002	7	...........
	213	214	4.00861E+000	1.38997E-006	0.00000E+000	5.57185E-006	0.00000E+000	7.35924E-004	-3.27687E+002	7	...........
	214	215	4.00861E+000	1.38954E-006	0.00000E+000	5.57014E-006	0.00000E+000	7.37274E-004	-3.27687E+002	7	...........
	215	216	4.00860E+000	1.39040E-006	0.00000E+000	5.57354E-006	0.00000E+000	7.39307E-004	-3.27687E+002	7	...........
	216	217	4.00858E+000	1.38990E-006	0.00000E+000	5.57152E-006	0.00000E+000	7.38257E-004	-3.27687E+002	7	...........
	217	218	4.00858E+000	1.38986E-006	0.00000E+000	5.57136E-006	0.00000E+000	7.38757E-004	-3.27687E+002	7	...........
	218	219	4.00856E+000	1.38993E-006	0.00000E+000	5.57163E-006	0.00000E+000	7.36457E-004	-3.27687E+002	7	...........
	219	220	4.00855E+000	1.39015E-006	0.00000E+000	5.57248E-006	0.00000E+000	7.36224E-004	-3.27687E+002	7	...........
	220	221	4.00854E+000	1.38894E-006	0.00000E+000	5.56762E-006	0.00000E+000	7.36757E-004	-3.27687E+002	7	...........
	221	222	4.00853E+000	1.38982E-006	0.00000E+000	5.57114E-006	0.00000E+000	7.36657E-004	-3.27687E+002	7	...........
	222	223	4.00852E+000	1.38880E-006	0.00000E+000	5.56704E-006	0.00000E+000	7.34574E-004	-3.27687E+002	7	...........
	223	224	4.00852E+000	1.38963E-006	0.00000E+000	5.57036E-006	0.00000E+000	7.35340E-004	-3.27687E+002	7	...........
	224	225	4.00851E+000	1.38976E-006	0.00000E+000	5.57084E-006	0.00000E+000	7.37440E-004	-3.27687E+002	7	...........
	225	226	4.00849E+000	1.39042E-006	0.00000E+000	5.57350E-006	0.00000E+000	7.37940E-004	-3.27687E+002	7	...........
	226	227	4.00848E+000	1.38991E-006	0.00000E+000	5.57143E-006	0.00000E+000	7.36140E-004	-3.27687E+002	7	...........
	227	228	4.00847E+000	1.38943E-006	0.00000E+000	5.56949E-006	0.00000E+000	7.38574E-004	-3.27687E+002	7	...........
	228	229	4.00846E+000	1.38915E-006	0.00000E+000	5.56836E-006	0.00000E+000	7.37707E-004	-3.27687E+002	7	...........
	229	230	4.00844E+000	1.38977E-006	0.00000E+000	5.57079E-006	0.00000E+000	7.37740E-004	-3.27687E+002	7	...........
	230	231	4.00844E+000	1.39035E-006	0.00000E+000	5.57311E-006	0.00000E+000	7.40740E-004	-3.27687E+002	7	...........
	231	232	4.00843E+000	1.38972E-006	0.00000E+000	5.57058E-006	0.00000E+000	7.38824E-004	-3.27687E+002	7	...........
	232	233	4.00842E+000	1.38985E-006	0.00000E+000	5.57111E-006	0.00000E+000	7.39857E-004	-3.27687E+002	7	...........
	233	234	4.00841E+000	1.38928E-006	0.00000E+000	5.56878E-006	0.00000E+000	7.37257E-004	-3.27687E+002	7	...........
	234	235	4.00839E+000	1.38962E-006	0.00000E+000	5.57014E-006	0.00000E+000	7.40874E-004	-3.27687E+002	7	...........
	235	236	4.00839E+000	1.39000E-006	0.00000E+000	5.57167E-006	0.00000E+000	7.36824E-004	-3.27687E+002	7	...........
	236	237	4.00838E+000	1.39006E-006	0.00000E+000	5.57189E-006	0.00000E+000	7.37474E-004	-3.27687E+002	7	...........
	237	238	4.00837E+000	1.38924E-006	0.00000E+000	5.56860E-006	0.00000E+000	7.36574E-004	-3.27687E+002	7	...........
	238	239	4.00837E+000	1.38979E-006	0.00000E+000	5.57079E-006	0.00000E+000	7.40874E-004	-3.27687E+002	7	...........
	239	240	4.00835E+000	1.39012E-006	0.00000E+000	5.57208E-006	0.00000E+000	7.40707E-004	-3.27687E+002	7	...........
	240	241	4.00834E+000	1.38973E-006	0.00000E+000	5.57050E-006	0.00000E+000	7.37974E-004	-3.27687E+002	7	...........
	241	242	4.00833E+000	1.39039E-006	0.00000E+000	5.57314E-006	0.00000E+000	7.40457E-004	-3.27687E+002	7	...........
	242	243	4.00832E+000	1.38967E-006	0.00000E+000	5.57026E-006	0.00000E+000	7.41057E-004	-3.27687E+002	7	...........
	243	244	4.00831E+000	1.38934E-006	0.00000E+000	5.56892E-006	0.00000E+000	7.40940E-004	-3.27687E+002	7	...........
	244	245	4.00831E+000	1.38964E-006	0.00000E+000	5.57010E-006	0.00000E+000	7.41807E-004	-3.27687E+002	7	...........
	245	246	4.00829E+000	1.38981E-006	0.00000E+000	5.57077E-006	0.00000E+000	7.43540E-004	-3.27687E+002	7	...........
	246	247	4.00827E+000	1.39004E-006	0.00000E+000	5.57167E-006	0.00000E+000	7.40974E-004	-3.27687E+002	7	...........
	247	248	4.00827E+000	1.39024E-006	0.00000E+000	5.57244E-006	0.00000E+000	7.43657E-004	-3.27687E+002	7	...........
	248	249	4.00825E+000	1.39021E-006	0.00000E+000	5.57232E-006	0.00000E+000	7.43374E-004	-3.27687E+002	7	...........
	249	250	4.00826E+000	1.39006E-006	0.00000E+000	5.57172E-006	0.00000E+000	7.41440E-004	-3.27687E+002	7	...........
	250	251	4.00825E+000	1.38959E-006	0.00000E+000	5.56983E-006	0.00000E+000	7.43974E-004	-3.27687E+002	7	...........
	251	252	4.00824E+000	1.38945E-006	0.00000E+000	5.56925E-006	0.00000E+000	7.44424E-004	-3.27687E+002	7	...........
	252	253	4.00823E+000	1.38914E-006	0.00000E+000	5.56800E-006	0.00000E+000	7.44374E-004	-3.27687E+002	7	...........
	253	254	4.00822E+000	1.38920E-006	0.00000E+000	5.56821E-006	0.00000E+000	7.45457E-004	-3.27687E+002	7	...........
	254	255	4.00820E+000	1.38933E-006	0.00000E+000	5.56870E-006	0.00000E+000	7.43374E-004	-3.27687E+002	7	...........
	255	256	4.00820E+000	1.38973E-006	0.00000E+000	5.57030E-006	0.00000E+000	7.45640E-004	-3.27687E+002	7	...........
	256	257	4.00819E+000	1.39091E-006	0.00000E+000	5.57501E-006	0.00000E+000	7.45140E-004	-3.27687E+002	7	...........
	257	258	4.00818E+000	1.39124E-006	0.00000E+000	5.57632E-006	0.00000E+000	7.44840E-004	-3.27687E+002	7	...........
	258	259	4.00817E+000	1.39031E-006	0.00000E+000	5.57259E-006	0.00000E+000	7.45240E-004	-3.27687E+002	7	...........
	259	260	4.00815E+000	1.39070E-006	0.00000E+000	5.57414E-006	0.00000E+000	7.44707E-004	-3.27687E+002	7	...........
	260	261	4.00814E+000	1.39065E-006	0.00000E+000	5.57391E-006	0.00000E+000	7.45307E-004	-3.27687E+002	7	...........
	261	262	4.00814E+000	1.39058E-006	0.00000E+000	5.57363E-006	0.00000E+000	7.44507E-004	-3.27687E+002	7	...........
	262	263	4.00812E+000	1.39058E-006	0.00000E+000	5.57361E-006	0.00000E+000	7.45557E-004	-3.27687E+002	7	...........
	263	264	4.00811E+000	1.39055E-006	0.00000E+000	5.57347E-006	0.00000E+000	7.42974E-004	-3.27687E+002	7	...........
	264	265	4.00812E+000	1.39033E-006	0.00000E+000	5.57262E-006	0.00000E+000	7.45540E-004	-3.27687E+002	7	...........
	265	266	4.00811E+000	1.39078E-006	0.00000E+000	5.57438E-006	0.00000E+000	7.46274E-004	-3.27687E+002	7	...........
	266	267	4.00810E+000	1.38995E-006	0.00000E+000	5.57104E-006	0.00000E+000	7.47824E-004	-3.27687E+002	7	...........
	267	268	4.00808E+000	1.38939E-006	0.00000E+000	5.56877E-006	0.00000E+000	7.47057E-004	-3.27687E+002	7	...........
	268	269	4.00809E+000	1.38870E-006	0.00000E+000	5.56602E-006	0.00000E+000	7.45990E-004	-3.27687E+002	7	...........
	269	270	4.00807E+000	1.38918E-006	0.00000E+000	5.56795E-006	0.00000E+000	7.47957E-004	-3.27687E+002	7	...........
	270	271	4.00806E+000	1.38891E-006	0.00000E+000	5.56685E-006	0.00000E+000	7.44957E-004	-3.27687E+002	7	...........
	271	272	4.00806E+000	1.39003E-006	0.00000E+000	5.57134E-006	0.00000E+000	7.46740E-004	-3.27687E+002	7	...........
	272	273	4.00804E+000	1.39004E-006	0.00000E+000	5.57131E-006	0.00000E+000	7.46057E-004	-3.27687E+002	7	...........
	273	274	4.00804E+000	1.38926E-006	0.00000E+000	5.56820E-006	0.00000E+000	7.49524E-004	-3.27687E+002	7	...........
	274	275	4.00801E+000	1.38926E-006	0.00000E+000	5.56817E-006	0.00000E+000	7.46524E-004	-3.27687E+002	7	...........
	275	276	4.00800E+000	1.38933E-006	0.00000E+000	5.56846E-006	0.00000E+000	7.47274E-004	-3.27687E+002	7	...........
	276	277	4.00800E+000	1.38916E-006	0.00000E+000	5.56777E-006	0.00000E+000	7.48807E-004	-3.27687E+002	7	...........
	277	278	4.00799E+000	1.38929E-006	0.00000E+000	5.56827E-006	0.00000E+000	7.44540E-004	-3.27687E+002	7	...........
	278	279	4.00798E+000	1.38901E-006	0.00000E+000	5.56712E-006	0.00000E+000	7.45474E-004	-3.27687E+002	7	...........
	279	280	4.00798E+000	1.38962E-006	0.00000E+000	5.56957E-006	0.00000E+000	7.45874E-004	-3.27687E+002	7	...........
	280	281	4.00797E+000	1.38890E-006	0.00000E+000	5.56668E-006	0.00000E+000	7.44057E-004	-3.27687E+002	7	...........
	281	282	4.00796E+000	1.38901E-006	0.00000E+000	5.56709E-006	0.00000E+000	7.46440E-004	-3.27687E+002	7	...........
	282	283	4.00795E+000	1.38875E-006	0.00000E+000	5.56602E-006	0.00000E+000	7.46590E-004	-3.27687E+002	7	...........
	283	284	4.00794E+000	1.38843E-006	0.00000E+000	5.56474E-006	0.00000E+000	7.45607E-004	-3.27687E+002	7	...........
	284	285	4.00793E+000	1.38846E-006	0.00000E+000	5.56485E-006	0.00000E+000	7.45890E-004	-3.27687E+002	7	...........
	285	286	4.00792E+000	1.38920E-006	0.00000E+000	5.56779E-006	0.00000E+000	7.44857E-004	-3.27687E+002	7	...........
	286	287	4.00792E+000	1.38937E-006	0.00000E+000	5.56849E-006	0.00000E+000	7.46290E-004	-3.27687E+002	7	...........
	287	288	4.00791E+000	1.38932E-006	0.00000E+000	5.56826E-006	0.00000E+000	7.48090E-004	-3.27687E+002	7	...........
	288	289	4.00791E+000	1.38925E-006	0.00000E+000	5.56799E-006	0.00000E+000	7.47940E-004	-3.27687E+002	7	...........
	289	290	4.00790E+000	1.38951E-006	0.00000E+000	5.56902E-006	0.00000E+000	7.48190E-004	-3.27687E+002	7	...........
	290	291	4.00788E+000	1.38908E-006	0.00000E+000	5.56726E-006	0.00000E+000	7.46824E-004	-3.27687E+002	7	...........
	291	292	4.00789E+000	1.38873E-006	0.00000E+000	5.56588E-006	0.00000E+000	7.48340E-004	-3.27687E+002	7	...........
	292	293	4.00788E+000	1.38842E-006	0.00000E+000	5.56460E-006	0.00000E+000	7.48257E-004	-3.27687E+002	7	...........
	293	294	4.00787E+000	1.38953E-006	0.00000E+000	5.56905E-006	0.00000E+000	7.46407E-004	-3.27687E+002	7	...........
	294	295	4.00787E+000	1.38946E-006	0.00000E+000	5.56880E-006	0.00000E+000	7.46940E-004	-3.27687E+002	7	...........
	295	296	4.00786E+000	1.38973E-006	0.00000E+000	5.56985E-006	0.00000E+000	7.46190E-004	-3.27687E+002	7	...........
	296	297	4.00785E+000	1.38944E-006	0.00000E+000	5.56869E-006	0.00000E+000	7.44057E-004	-3.27687E+002	7	...........
	297	298	4.00785E+000	1.38908E-006	0.00000E+000	5.56721E-006	0.00000E+000	7.47557E-004	-3.27687E+002	7	...........
	298	299	4.00784E+000	1.38937E-006	0.00000E+000	5.56838E-006	0.00000E+000	7.48657E-004	-3.27687E+002	7	...........
	299	300	4.00783E+000	1.38888E-006	0.00000E+000	5.56641E-006	0.00000E+000	7.45957E-004	-3.27687E+002	7	...........
	300	301	4.00784E+000	1.38957E-006	0.00000E+000	5.56919E-006	0.00000E+000	7.46140E-004	-3.27687E+002	7	...........
	301	302	4.00782E+000	1.38957E-006	0.00000E+000	5.56914E-006	0.00000E+000	7.45674E-004	-3.27687E+002	7	...........
	302	303	4.00781E+000	1.38991E-006	0.00000E+000	5.57051E-006	0.00000E+000	7.47174E-004	-3.27687E+002	7	...........
	303	304	4.00780E+000	1.39047E-006	0.00000E+000	5.57271E-006	0.00000E+000	7.46440E-004	-3.27687E+002	7	...........
	304	305	4.00779E+000	1.39067E-006	0.00000E+000	5.57353E-006	0.00000E+000	7.46007E-004	-3.27687E+002	7	...........
	305	306	4.00779E+000	1.39018E-006	0.00000E+000	5.57157E-006	0.00000E+000	7.45657E-004	-3.27687E+002	7	...........
	306	307	4.00779E+000	1.39017E-006	0.00000E+000	5.57152E-006	0.00000E+000	7.44874E-004	-3.27687E+002	7	...........
	307	308	4.00778E+000	1.38999E-006	0.00000E+000	5.57076E-006	0.00000E+000	7.46540E-004	-3.27687E+002	7	...........
	308	309	4.00778E+000	1.38959E-006	0.00000E+000	5.56915E-006	0.00000E+000	7.44690E-004	-3.27687E+002	7	...........
	309	310	4.00777E+000	1.38975E-006	0.00000E+000	5.56980E-006	0.00000E+000	7.45807E-004	-3.27687E+002	7	...........
	310	311	4.00777E+000	1.38985E-006	0.00000E+000	5.57020E-006	0.00000E+000	7.45374E-004	-3.27687E+002	7	...........
	311	312	4.00776E+000	1.39035E-006	0.00000E+000	5.57219E-006	0.00000E+000	7.46590E-004	-3.27687E+002	7	...........
	312	313	4.00775E+000	1.38923E-006	0.00000E+000	5.56768E-006	0.00000E+000	7.44440E-004	-3.27687E+002	7	...........
	313	314	4.00774E+000	1.38893E-006	0.00000E+000	5.56646E-006	0.00000E+000	7.43740E-004	-3.27687E+002	7	...........
	314	315	4.00774E+000	1.38827E-006	0.00000E+000	5.56383E-006	0.00000E+000	7.45440E-004	-3.27687E+002	7	...........
	315	316	4.00773E+000	1.38807E-006	0.00000E+000	5.56301E-006	0.00000E+000	7.45557E-004	-3.27687E+002	7	...........
	316	317	4.00772E+000	1.38820E-006	0.00000E+000	5.56351E-006	0.00000E+000	7.45574E-004	-3.27687E+002	7	...........
	317	318	4.00772E+000	1.38923E-006	0.00000E+000	5.56765E-006	0.00000E+000	7.44340E-004	-3.27687E+002	7	...........
	318	319	4.00771E+000	1.38968E-006	0.00000E+000	5.56942E-006	0.00000E+000	7.42957E-004	-3.27687E+002	7	...........
	319	320	4.00770E+000	1.39019E-006	0.00000E+000	5.57145E-006	0.00000E+000	7.45140E-004	-3.27687E+002	7	...........
	320	321	4.00770E+000	1.38877E-006	0.00000E+000	5.56579E-006	0.00000E+000	7.43657E-004	-3.27687E+002	7	...........
	321	322	4.00769E+000	1.38936E-006	0.00000E+000	5.56814E-006	0.00000E+000	7.41924E-004	-3.27687E+002	7	...........
	322	323	4.00768E+000	1.38991E-006	0.00000E+000	5.57031E-006	0.00000E+000	7.45474E-004	-3.27687E+002	7	...........
	323	324	4.00768E+000	1.38978E-006	0.00000E+000	5.56979E-006	0.00000E+000	7.44640E-004	-3.27687E+002	7	...........
	324	325	4.00767E+000	1.39018E-006	0.00000E+000	5.57137E-006	0.00000E+000	7.43924E-004	-3.27687E+002	7	...........
	325	326	4.00767E+000	1.39030E-006	0.00000E+000	5.57184E-006	0.00000E+000	7.44957E-004	-3.27687E+002	7	...........
	326	327	4.00765E+000	1.38977E-006	0.00000E+000	5.56973E-006	0.00000E+000	7.42724E-004	-3.27687E+002	7	...........
	327	328	4.00765E+000	1.38992E-006	0.00000E+000	5.57030E-006	0.00000E+000	7.43107E-004	-3.27687E+002	7	...........
	328	329	4.00764E+000	1.38941E-006	0.00000E+000	5.56827E-006	0.00000E+000	7.43324E-004	-3.27687E+002	7	...........
	329	330	4.00764E+000	1.38909E-006	0.00000E+000	5.56696E-006	0.00000E+000	7.43224E-004	-3.27687E+002	7	...........
	330	331	4.00763E+000	1.38907E-006	0.00000E+000	5.56688E-006	0.00000E+000	7.44524E-004	-3.27687E+002	7	...........
	331	332	4.00763E+000	1.38895E-006	0.00000E+000	5.56640E-006	0.00000E+000	7.43540E-004	-3.27687E+002	7	...........
	332	333	4.00763E+000	1.38892E-006	0.00000E+000	5.56626E-006	0.00000E+000	7.43957E-004	-3.27687E+002	7	...........
	333	334	4.00762E+000	1.38890E-006	0.00000E+000	5.56618E-006	0.00000E+000	7.42790E-004	-3.27687E+002	7	...........
	334	335	4.00762E+000	1.38950E-006	0.00000E+000	5.56858E-006	0.00000E+000	7.43590E-004	-3.27687E+002	7	...........
	335	336	4.00761E+000	1.38978E-006	0.00000E+000	5.56970E-006	0.00000E+000	7.43474E-004	-3.27687E+002	7	...........
	336	337	4.00761E+000	1.38903E-006	0.00000E+000	5.56669E-006	0.00000E+000	7.42790E-004	-3.27687E+002	7	...........
	337	338	4.00760E+000	1.38891E-006	0.00000E+000	5.56621E-006	0.00000E+000	7.39624E-004	-3.27687E+002	7	...........
	338	339	4.00759E+000	1.38875E-006	0.00000E+000	5.56556E-006	0.00000E+000	7.41574E-004	-3.27687E+002	7	...........
	339	340	4.00758E+000	1.38854E-006	0.00000E+000	5.56468E-006	0.00000E+000	7.41990E-004	-3.27687E+002	7	...........
	340	341	4.00758E+000	1.38947E-006	0.00000E+000	5.56843E-006	0.00000E+000	7.40124E-004	-3.27687E+002	7	...........
	341	342	4.00758E+000	1.38985E-006	0.00000E+000	5.56994E-006	0.00000E+000	7.41457E-004	-3.27687E+002	7	...........
	342	343	4.00757E+000	1.38903E-006	0.00000E+000	5.56665E-006	0.00000E+000	7.42090E-004	-3.27687E+002	7	...........
	343	344	4.00757E+000	1.38863E-006	0.00000E+000	5.56502E-006	0.00000E+000	7.41357E-004	-3.27687E+002	7	...........
	344	345	4.00755E+000	1.38784E-006	0.00000E+000	5.56184E-006	0.00000E+000	7.41990E-004	-3.27687E+002	7	...........
	345	346	4.00756E+000	1.38795E-006	0.00000E+000	5.56229E-006	0.00000E+000	7.40040E-004	-3.27687E+002	7	...........
	346	347	4.00755E+000	1.38792E-006	0.00000E+000	5.56217E-006	0.00000E+000	7.42040E-004	-3.27687E+002	7	...........
	347	348	4.00755E+000	1.38815E-006	0.00000E+000	5.56307E-006	0.00000E+000	7.41807E-004	-3.27687E+002	7	...........
	348	349	4.00754E+000	1.38768E-006	0.00000E+000	5.56118E-006	0.00000E+000	7.40790E-004	-3.27687E+002	7	...........
	349	350	4.00754E+000	1.38866E-006	0.00000E+000	5.56513E-006	0.00000E+000	7.40074E-004	-3.27687E+002	7	...........
	350	351	4.00753E+000	1.38879E-006	0.00000E+000	5.56561E-006	0.00000E+000	7.42524E-004	-3.27687E+002	7	...........
	351	352	4.00752E+000	1.38855E-006	0.00000E+000	5.56464E-006	0.00000E+000	7.43540E-004	-3.27687E+002	7	...........
	352	353	4.00752E+000	1.38759E-006	0.00000E+000	5.56079E-006	0.00000E+000	7.43757E-004	-3.27687E+002	7	...........
	353	354	4.00751E+000	1.38818E-006	0.00000E+000	5.56314E-006	0.00000E+000	7.44124E-004	-3.27687E+002	7	...........
	354	355	4.00750E+000	1.38814E-006	0.00000E+000	5.56297E-006	0.00000E+000	7.42290E-004	-3.27687E+002	7	...........
	355	356	4.00750E+000	1.38847E-006	0.00000E+000	5.56430E-006	0.00000E+000	7.44157E-004	-3.27687E+002	7	...........
	356	357	4.00749E+000	1.38876E-006	0.00000E+000	5.56542E-006	0.00000E+000	7.39324E-004	-3.27687E+002	7	...........
	357	358	4.00748E+000	1.38885E-006	0.00000E+000	5.56581E-006	0.00000E+000	7.41074E-004	-3.27687E+002	7	...........
	358	359	4.00747E+000	1.38900E-006	0.00000E+000	5.56637E-006	0.00000E+000	7.41424E-004	-3.27687E+002	7	...........
	359	360	4.00747E+000	1.38902E-006	0.00000E+000	5.56645E-006	0.00000E+000	7.40590E-004	-3.27687E+002	7	...........
	360	361	4.00746E+000	1.38925E-006	0.00000E+000	5.56738E-006	0.00000E+000	7.39690E-004	-3.27687E+002	7	...........
	361	362	4.00746E+000	1.38807E-006	0.00000E+000	5.56264E-006	0.00000E+000	7.41274E-004	-3.27687E+002	7	...........
	362	363	4.00745E+000	1.38792E-006	0.00000E+000	5.56202E-006	0.00000E+000	7.40890E-004	-3.27687E+002	7	...........
	363	364	4.00745E+000	1.38813E-006	0.00000E+000	5.56285E-006	0.00000E+000	7.39774E-004	-3.27687E+002	7	...........
	364	365	4.00745E+000	1.38824E-006	0.00000E+000	5.56330E-006	0.00000E+000	7.40024E-004	-3.27687E+002	7	...........
	365	366	4.00743E+000	1.38854E-006	0.00000E+000	5.56448E-006	0.00000E+000	7.40524E-004	-3.27687E+002	7	...........
	366	367	4.00743E+000	1.38938E-006	0.00000E+000	5.56784E-006	0.00000E+000	7.40124E-004	-3.27687E+002	7	...........
	367	368	4.00742E+000	1.38898E-006	0.00000E+000	5.56624E-006	0.00000E+000	7.41407E-004	-3.27687E+002	7	...........
	368	369	4.00742E+000	1.38907E-006	0.00000E+000	5.56659E-006	0.00000E+000	7.40490E-004	-3.27687E+002	7	...........
	369	370	4.00741E+000	1.38902E-006	0.00000E+000	5.56638E-006	0.00000E+000	7.40024E-004	-3.27687E+002	7	...........
	370	371	4.00741E+000	1.38920E-006	0.00000E+000	5.56707E-006	0.00000E+000	7.40290E-004	-3.27687E+002	7	...........
	371	372	4.00740E+000	1.38924E-006	0.00000E+000	5.56726E-006	0.00000E+000	7.40257E-004	-3.27687E+002	7	...........
	372	373	4.00740E+000	1.38921E-006	0.00000E+000	5.56711E-006	0.00000E+000	7.40040E-004	-3.27687E+002	7	...........
	373	374	4.00738E+000	1.38990E-006	0.00000E+000	5.56985E-006	0.00000E+000	7.41290E-004	-3.27687E+002	7	...........
	374	375	4.00737E+000	1.38992E-006	0.00000E+000	5.56993E-006	0.00000E+000	7.41807E-004	-3.27687E+002	7	...........
	375	376	4.00738E+000	1.38924E-006	0.00000E+000	5.56721E-006	0.00000E+000	7.41757E-004	-3.27687E+002	7	...........
	376	377	4.00736E+000	1.38894E-006	0.00000E+000	5.56599E-006	0.00000E+000	7.41574E-004	-3.27687E+002	7	...........
	377	378	4.00737E+000	1.38874E-006	0.00000E+000	5.56520E-006	0.00000E+000	7.41624E-004	-3.27687E+002	7	...........
	378	379	4.00735E+000	1.38927E-006	0.00000E+000	5.56729E-006	0.00000E+000	7.43440E-004	-3.27687E+002	7	...........
	379	380	4.00735E+000	1.38932E-006	0.00000E+000	5.56747E-006	0.00000E+000	7.46007E-004	-3.27687E+002	7	...........
	380	381	4.00734E+000	1.38905E-006	0.00000E+000	5.56639E-006	0.00000E+000	7.42040E-004	-3.27687E+002	7	...........
	381	382	4.00734E+000	1.38905E-006	0.00000E+000	5.56640E-006	0.00000E+000	7.42307E-004	-3.27687E+002	7	...........
	382	383	4.00733E+000	1.38950E-006	0.00000E+000	5.56819E-006	0.00000E+000	7.42524E-004	-3.27687E+002	7	...........
	383	384	4.00731E+000	1.38924E-006	0.00000E+000	5.56710E-006	0.00000E+000	7.42274E-004	-3.27687E+002	7	...........
	384	385	4.00730E+000	1.38892E-006	0.00000E+000	5.56584E-006	0.00000E+000	7.42874E-004	-3.27687E+002	7	...........
	385	386	4.00730E+000	1.38861E-006	0.00000E+000	5.56458E-006	0.00000E+000	7.39524E-004	-3.27687E+002	7	...........
	386	387	4.00730E+000	1.38850E-006	0.00000E+000	5.56415E-006	0.00000E+000	7.39590E-004	-3.27687E+002	7	...........
	387	388	4.00729E+000	1.38889E-006	0.00000E+000	5.56569E-006	0.00000E+000	7.42374E-004	-3.27687E+002	7	...........
	388	389	4.00728E+000	1.38925E-006	0.00000E+000	5.56711E-006	0.00000E+000	7.42057E-004	-3.27687E+002	7	...........
	389	390	4.00727E+000	1.38896E-006	0.00000E+000	5.56594E-006	0.00000E+000	7.38290E-004	-3.27687E+002	7	...........
	390	391	4.00727E+000	1.38820E-006	0.00000E+000	5.56288E-006	0.00000E+000	7.41390E-004	-3.27687E+002	7	...........
	391	392	4.00726E+000	1.38797E-006	0.00000E+000	5.56196E-006	0.00000E+000	7.41140E-004	-3.27687E+002	7	...........
	392	393	4.00726E+000	1.38782E-006	0.00000E+000	5.56136E-006	0.00000E+000	7.41307E-004	-3.27687E+002	7	...........
	393	394	4.00725E+000	1.38763E-006	0.00000E+000	5.56056E-006	0.00000E+000	7.40490E-004	-3.27687E+002	7	...........
	394	395	4.00725E+000	1.38739E-006	0.00000E+000	5.55963E-006	0.00000E+000	7.41807E-004	-3.27687E+002	7	...........
	395	396	4.00724E+000	1.38806E-006	0.00000E+000	5.56227E-006	0.00000E+000	7.41140E-004	-3.27687E+002	7	...........
	396	397	4.00723E+000	1.38798E-006	0.00000E+000	5.56197E-006	0.00000E+000	7.41240E-004	-3.27687E+002	7	...........
	397	398	4.00722E+000	1.38816E-006	0.00000E+000	5.56265E-006	0.00000E+000	7.39990E-004	-3.27687E+002	7	...........
	398	399	4.00721E+000	1.38831E-006	0.00000E+000	5.56326E-006	0.00000E+000	7.41174E-004	-3.27687E+002	7	...........
	399	400	4.00721E+000	1.38797E-006	0.00000E+000	5.56187E-006	0.00000E+000	7.42390E-004	-3.27687E+002	7	...........
	400	401	4.00720E+000	1.38795E-006	0.00000E+000	5.56180E-006	0.00000E+000	7.41207E-004	-3.27687E+002	7	...........
	401	402	4.00719E+000	1.38769E-006	0.00000E+000	5.56076E-006	0.00000E+000	7.40107E-004	-3.27687E+002	7	...........
	402	403	4.00719E+000	1.38760E-006	0.00000E+000	5.56039E-006	0.00000E+000	7.41140E-004	-3.27687E+002	7	...........
	403	404	4.00718E+000	1.38776E-006	0.00000E+000	5.56102E-006	0.00000E+000	7.40507E-004	-3.27687E+002	7	...........
	404	405	4.00717E+000	1.38765E-006	0.00000E+000	5.56055E-006	0.00000E+000	7.41774E-004	-3.27687E+002	7	...........
	405	406	4.00717E+000	1.38805E-006	0.00000E+000	5.56215E-006	0.00000E+000	7.40940E-004	-3.27687E+002	7	...........
	406	407	4.00717E+000	1.38783E-006	0.00000E+000	5.56125E-006	0.00000E+000	7.38357E-004	-3.27687E+002	7	...........
	407	408	4.00716E+000	1.38783E-006	0.00000E+000	5.56126E-006	0.00000E+000	7.37474E-004	-3.27687E+002	7	...........
	408	409	4.00716E+000	1.38727E-006	0.00000E+000	5.55902E-006	0.00000E+000	7.40407E-004	-3.27687E+002	7	...........
	409	410	4.00716E+000	1.38741E-006	0.00000E+000	5.55956E-006	0.00000E+000	7.38140E-004	-3.27687E+002	7	...........
	410	411	4.00715E+000	1.38763E-006	0.00000E+000	5.56045E-006	0.00000E+000	7.41557E-004	-3.27687E+002	7	...........
	411	412	4.00714E+000	1.38803E-006	0.00000E+000	5.56204E-006	0.00000E+000	7.40557E-004	-3.27687E+002	7	...........
	412	413	4.00713E+000	1.38817E-006	0.00000E+000	5.56259E-006	0.00000E+000	7.39257E-004	-3.27687E+002	7	...........
	413	414	4.00713E+000	1.38881E-006	0.00000E+000	5.56514E-006	0.00000E+000	7.38040E-004	-3.27687E+002	7	...........
	414	415	4.00713E+000	1.38932E-006	0.00000E+000	5.56719E-006	0.00000E+000	7.36240E-004	-3.27687E+002	7	...........
	415	416	4.00712E+000	1.38847E-006	0.00000E+000	5.56376E-006	0.00000E+000	7.37607E-004	-3.27687E+002	7	...........
	416	417	4.00711E+000	1.38751E-006	0.00000E+000	5.55991E-006	0.00000E+000	7.41874E-004	-3.27687E+002	7	...........
	417	418	4.00711E+000	1.38794E-006	0.00000E+000	5.56162E-006	0.00000E+000	7.40374E-004	-3.27687E+002	7	...........
	418	419	4.00710E+000	1.38750E-006	0.00000E+000	5.55986E-006	0.00000E+000	7.38574E-004	-3.27687E+002	7	...........
	419	420	4.00709E+000	1.38723E-006	0.00000E+000	5.55875E-006	0.00000E+000	7.43040E-004	-3.27687E+002	7	...........
	420	421	4.00708E+000	1.38846E-006	0.00000E+000	5.56366E-006	0.00000E+000	7.38440E-004	-3.27687E+002	7	...........
	421	422	4.00708E+000	1.38800E-006	0.00000E+000	5.56181E-006	0.00000E+000	7.39190E-004	-3.27687E+002	7	...........
	422	423	4.00707E+000	1.38813E-006	0.00000E+000	5.56234E-006	0.00000E+000	7.40757E-004	-3.27687E+002	7	...........
	423	424	4.00707E+000	1.38880E-006	0.00000E+000	5.56503E-006	0.00000E+000	7.38957E-004	-3.27687E+002	7	...........
	424	425	4.00706E+000	1.38809E-006	0.00000E+000	5.56216E-006	0.00000E+000	7.39540E-004	-3.27687E+002	7	...........
	425	426	4.00705E+000	1.38801E-006	0.00000E+000	5.56183E-006	0.00000E+000	7.40640E-004	-3.27687E+002	7	...........
	426	427	4.00705E+000	1.38810E-006	0.00000E+000	5.56220E-006	0.00000E+000	7.41174E-004	-3.27687E+002	7	...........
	427	428	4.00704E+000	1.38826E-006	0.00000E+000	5.56280E-006	0.00000E+000	7.41490E-004	-3.27687E+002	7	...........
	428	429	4.00704E+000	1.38853E-006	0.00000E+000	5.56388E-006	0.00000E+000	7.42507E-004	-3.27687E+002	7	...........
	429	430	4.00702E+000	1.38935E-006	0.00000E+000	5.56717E-006	0.00000E+000	7.39490E-004	-3.27687E+002	7	...........
	430	431	4.00703E+000	1.38891E-006	0.00000E+000	5.56542E-006	0.00000E+000	7.41307E-004	-3.27687E+002	7	...........
	431	432	4.00702E+000	1.38812E-006	0.00000E+000	5.56221E-006	0.00000E+000	7.40824E-004	-3.27687E+002	7	...........
	432	433	4.00703E+000	1.38799E-006	0.00000E+000	5.56172E-006	0.00000E+000	7.41140E-004	-3.27687E+002	7	...........
	433	434	4.00701E+000	1.38788E-006	0.00000E+000	5.56124E-006	0.00000E+000	7.41407E-004	-3.27687E+002	7	...........
	434	435	4.00700E+000	1.38770E-006	0.00000E+000	5.56050E-006	0.00000E+000	7.42757E-004	-3.27687E+002	7	...........
	435	436	4.00699E+000	1.38821E-006	0.00000E+000	5.56253E-006	0.00000E+000	7.39440E-004	-3.27687E+002	7	...........
	436	437	4.00699E+000	1.38862E-006	0.00000E+000	5.56419E-006	0.00000E+000	7.38340E-004	-3.27687E+002	7	...........
	437	438	4.00699E+000	1.38763E-006	0.00000E+000	5.56021E-006	0.00000E+000	7.40040E-004	-3.27687E+002	7	...........
	438	439	4.00698E+000	1.38791E-006	0.00000E+000	5.56133E-006	0.00000E+000	7.40624E-004	-3.27687E+002	7	...........
	439	440	4.00697E+000	1.38720E-006	0.00000E+000	5.55846E-006	0.00000E+000	7.40807E-004	-3.27687E+002	7	...........
	440	441	4.00697E+000	1.38699E-006	0.00000E+000	5.55762E-006	0.00000E+000	7.40990E-004	-3.27687E+002	7	...........
	441	442	4.00696E+000	1.38676E-006	0.00000E+000	5.55670E-006	0.00000E+000	7.40607E-004	-3.27687E+002	7	...........
	442	443	4.00695E+000	1.38676E-006	0.00000E+000	5.55668E-006	0.00000E+000	7.42907E-004	-3.27687E+002	7	...........
	443	444	4.00694E+000	1.38761E-006	0.00000E+000	5.56008E-006	0.00000E+000	7.40474E-004	-3.27687E+002	7	...........
	444	445	4.00695E+000	1.38740E-006	0.00000E+000	5.55925E-006	0.00000E+000	7.41090E-004	-3.27687E+002	7	...........
	445	446	4.00695E+000	1.38839E-006	0.00000E+000	5.56319E-006	0.00000E+000	7.39240E-004	-3.27687E+002	7	...........
	446	447	4.00694E+000	1.38735E-006	0.00000E+000	5.55905E-006	0.00000E+000	7.41007E-004	-3.27687E+002	7	...........
	447	448	4.00693E+000	1.38702E-006	0.00000E+000	5.55769E-006	0.00000E+000	7.40524E-004	-3.27687E+002	7	...........
	448	449	4.00692E+000	1.38663E-006	0.00000E+000	5.55613E-006	0.00000E+000	7.39674E-004	-3.27687E+002	7	...........
	449	450	4.00692E+000	1.38703E-006	0.00000E+000	5.55773E-006	0.00000E+000	7.41757E-004	-3.27687E+002	7	...........
	450	451	4.00692E+000	1.38772E-006	0.00000E+000	5.56047E-006	0.00000E+000	7.40690E-004	-3.27687E+002	7	...........
	451	452	4.00690E+000	1.38782E-006	0.00000E+000	5.56084E-006	0.00000E+000	7.40874E-004	-3.27687E+002	7	...........
	452	453	4.00690E+000	1.38777E-006	0.00000E+000	5.56066E-006	0.00000E+000	7.42290E-004	-3.27687E+002	7	...........
	453	454	4.00690E+000	1.38817E-006	0.00000E+000	5.56223E-006	0.00000E+000	7.39374E-004	-3.27687E+002	7	...........
	454	455	4.00690E+000	1.38791E-006	0.00000E+000	5.56123E-006	0.00000E+000	7.39540E-004	-3.27687E+002	7	...........
	455	456	4.00690E+000	1.38750E-006	0.00000E+000	5.55958E-006	0.00000E+000	7.42357E-004	-3.27687E+002	7	...........
	456	457	4.00688E+000	1.38808E-006	0.00000E+000	5.56187E-006	0.00000E+000	7.42574E-004	-3.27687E+002	7	...........
	457	458	4.00687E+000	1.38744E-006	0.00000E+000	5.55929E-006	0.00000E+000	7.41024E-004	-3.27687E+002	7	...........
	458	459	4.00687E+000	1.38721E-006	0.00000E+000	5.55836E-006	0.00000E+000	7.39840E-004	-3.27687E+002	7	...........
	459	460	4.00686E+000	1.38734E-006	0.00000E+000	5.55889E-006	0.00000E+000	7.43824E-004	-3.27687E+002	7	...........
	460	461	4.00685E+000	1.38777E-006	0.00000E+000	5.56058E-006	0.00000E+000	7.43074E-004	-3.27687E+002	7	...........
	461	462	4.00685E+000	1.38789E-006	0.00000E+000	5.56105E-006	0.00000E+000	7.41224E-004	-3.27687E+002	7	...........
	462	463	4.00684E+000	1.38748E-006	0.00000E+000	5.55942E-006	0.00000E+000	7.40557E-004	-3.27687E+002	7	...........
	463	464	4.00684E+000	1.38653E-006	0.00000E+000	5.55561E-006	0.00000E+000	7.43074E-004	-3.27687E+002	7	...........
	464	465	4.00683E+000	1.38734E-006	0.00000E+000	5.55884E-006	0.00000E+000	7.39924E-004	-3.27687E+002	7	...........
	465	466	4.00683E+000	1.38743E-006	0.00000E+000	5.55921E-006	0.00000E+000	7.40640E-004	-3.27687E+002	7	...........
	466	467	4.00681E+000	1.38751E-006	0.00000E+000	5.55949E-006	0.00000E+000	7.41290E-004	-3.27687E+002	7	...........
	467	468	4.00681E+000	1.38744E-006	0.00000E+000	5.55921E-006	0.00000E+000	7.40324E-004	-3.27687E+002	7	...........
	468	469	4.00680E+000	1.38789E-006	0.00000E+000	5.56102E-006	0.00000E+000	7.43840E-004	-3.27687E+002	7	...........
	469	470	4.00680E+000	1.38785E-006	0.00000E+000	5.56086E-006	0.00000E+000	7.40157E-004	-3.27687E+002	7	...........
	470	471	4.00679E+000	1.38728E-006	0.00000E+000	5.55856E-006	0.00000E+000	7.44424E-004	-3.27687E+002	7	...........
	471	472	4.00679E+000	1.38746E-006	0.00000E+000	5.55927E-006	0.00000E+000	7.44040E-004	-3.27687E+002	7	...........
	472	473	4.00679E+000	1.38692E-006	0.00000E+000	5.55711E-006	0.00000E+000	7.43540E-004	-3.27687E+002	7	...........
	473	474	4.00679E+000	1.38694E-006	0.00000E+000	5.55718E-006	0.00000E+000	7.41507E-004	-3.27687E+002	7	...........
	474	475	4.00677E+000	1.38697E-006	0.00000E+000	5.55727E-006	0.00000E+000	7.42840E-004	-3.27687E+002	7	...........
	475	476	4.00677E+000	1.38626E-006	0.00000E+000	5.55442E-006	0.00000E+000	7.43924E-004	-3.27687E+002	7	...........
	476	477	4.00676E+000	1.38783E-006	0.00000E+000	5.56072E-006	0.00000E+000	7.43957E-004	-3.27687E+002	7	...........
	477	478	4.00675E+000	1.38730E-006	0.00000E+000	5.55856E-006	0.00000E+000	7.46224E-004	-3.27687E+002	7	...........
	478	479	4.00676E+000	1.38687E-006	0.00000E+000	5.55683E-006	0.00000E+000	7.44140E-004	-3.27687E+002	7	...........
	479	480	4.00675E+000	1.38743E-006	0.00000E+000	5.55907E-006	0.00000E+000	7.42907E-004	-3.27687E+002	7	...........
	480	481	4.00675E+000	1.38783E-006	0.00000E+000	5.56071E-006	0.00000E+000	7.44124E-004	-3.27687E+002	7	...........
	481	482	4.00674E+000	1.38782E-006	0.00000E+000	5.56061E-006	0.00000E+000	7.45274E-004	-3.27687E+002	7	...........
	482	483	4.00674E+000	1.38817E-006	0.00000E+000	5.56203E-006	0.00000E+000	7.44807E-004	-3.27687E+002	7	...........
	483	484	4.00673E+000	1.38798E-006	0.00000E+000	5.56127E-006	0.00000E+000	7.43107E-004	-3.27687E+002	7	...........
	484	485	4.00673E+000	1.38733E-006	0.00000E+000	5.55864E-006	0.00000E+000	7.43257E-004	-3.27687E+002	7	...........
	485	486	4.00672E+000	1.38756E-006	0.00000E+000	5.55956E-006	0.00000E+000	7.42290E-004	-3.27687E+002	7	...........
	486	487	4.00672E+000	1.38762E-006	0.00000E+000	5.55981E-006	0.00000E+000	7.41090E-004	-3.27687E+002	7	...........
	487	488	4.00670E+000	1.38715E-006	0.00000E+000	5.55789E-006	0.00000E+000	7.42607E-004	-3.27687E+002	7	...........
	488	489	4.00670E+000	1.38702E-006	0.00000E+000	5.55737E-006	0.00000E+000	7.43790E-004	-3.27687E+002	7	...........
	489	490	4.00669E+000	1.38730E-006	0.00000E+000	5.55847E-006	0.00000E+000	7.47507E-004	-3.27687E+002	7	...........
	490	491	4.00668E+000	1.38728E-006	0.00000E+000	5.55839E-006	0.00000E+000	7.43690E-004	-3.27687E+002	7	...........
	491	492	4.00668E+000	1.38688E-006	0.00000E+000	5.55680E-006	0.00000E+000	7.44190E-004	-3.27687E+002	7	...........
	492	493	4.00668E+000	1.38770E-006	0.00000E+000	5.56007E-006	0.00000E+000	7.46574E-004	-3.27687E+002	7	...........
	493	494	4.00667E+000	1.38780E-006	0.00000E+000	5.56045E-006	0.00000E+000	7.46790E-004	-3.27687E+002	7	...........
	494	495	4.00665E+000	1.38668E-006	0.00000E+000	5.55594E-006	0.00000E+000	7.45007E-004	-3.27687E+002	7	...........
	495	496	4.00665E+000	1.38638E-006	0.00000E+000	5.55475E-006	0.00000E+000	7.44874E-004	-3.27687E+002	7	...........
	496	497	4.00665E+000	1.38689E-006	0.00000E+000	5.55679E-006	0.00000E+000	7.45690E-004	-3.27687E+002	7	...........
	497	498	4.00664E+000	1.38712E-006	0.00000E+000	5.55768E-006	0.00000E+000	7.48074E-004	-3.27687E+002	7	...........
	498	499	4.00663E+000	1.38736E-006	0.00000E+000	5.55863E-006	0.00000E+000	7.45940E-004	-3.27687E+002	7	...........
	499	500	4.00662E+000	1.38690E-006	0.00000E+000	5.55676E-006	0.00000E+000	7.44674E-004	-3.27687E+002	7	...........
	500	501	4.00662E+000	1.38706E-006	0.00000E+000	5.55742E-006	0.00000E+000	7.46790E-004	-3.27687E+002	7	...........
	501	502	4.00661E+000	1.38651E-006	0.00000E+000	5.55520E-006	0.00000E+000	7.45190E-004	-3.27687E+002	7	...........
	502	503	4.00662E+000	1.38642E-006	0.00000E+000	5.55486E-006	0.00000E+000	7.45357E-004	-3.27687E+002	7	...........
	503	504	4.00660E+000	1.38648E-006	0.00000E+000	5.55506E-006	0.00000E+000	7.45907E-004	-3.27687E+002	7	...........
	504	505	4.00660E+000	1.38701E-006	0.00000E+000	5.55719E-006	0.00000E+000	7.46407E-004	-3.27687E+002	7	...........
	505	506	4.00659E+000	1.38699E-006	0.00000E+000	5.55711E-006	0.00000E+000	7.46407E-004	-3.27687E+002	7	...........
	506	507	4.00658E+000	1.38718E-006	0.00000E+000	5.55786E-006	0.00000E+000	7.46057E-004	-3.27687E+002	7	...........
	507	508	4.00657E+000	1.38735E-006	0.00000E+000	5.55852E-006	0.00000E+000	7.45474E-004	-3.27687E+002	7	...........
	508	509	4.00656E+000	1.38739E-006	0.00000E+000	5.55866E-006	0.00000E+000	7.46090E-004	-3.27687E+002	7	...........
	509	510	4.00656E+000	1.38670E-006	0.00000E+000	5.55592E-006	0.00000E+000	7.47190E-004	-3.27687E+002	7	...........
	510	511	4.00656E+000	1.38699E-006	0.00000E+000	5.55705E-006	0.00000E+000	7.48024E-004	-3.27687E+002	7	...........
	511	512	4.00656E+000	1.38738E-006	0.00000E+000	5.55863E-006	0.00000E+000	7.46190E-004	-3.27687E+002	7	...........
	512	513	4.00655E+000	1.38775E-006	0.00000E+000	5.56010E-006	0.00000E+000	7.47924E-004	-3.27687E+002	7	...........
	513	514	4.00655E+000	1.38757E-006	0.00000E+000	5.55937E-006	0.00000E+000	7.46790E-004	-3.27687E+002	7	...........
	514	515	4.00654E+000	1.38712E-006	0.00000E+000	5.55754E-006	0.00000E+000	7.47240E-004	-3.27687E+002	7	...........
	515	516	4.00653E+000	1.38727E-006	0.00000E+000	5.55813E-006	0.00000E+000	7.46657E-004	-3.27687E+002	7	...........
	516	517	4.00653E+000	1.38691E-006	0.00000E+000	5.55671E-006	0.00000E+000	7.48407E-004	-3.27687E+002	7	...........
	517	518	4.00652E+000	1.38670E-006	0.00000E+000	5.55586E-006	0.00000E+000	7.49257E-004	-3.27687E+002	7	...........
	518	519	4.00651E+000	1.38651E-006	0.00000E+000	5.55508E-006	0.00000E+000	7.43524E-004	-3.27687E+002	7	...........
	519	520	4.00651E+000	1.38707E-006	0.00000E+000	5.55731E-006	0.00000E+000	7.46407E-004	-3.27687E+002	7	...........
	520	521	4.00650E+000	1.38685E-006	0.00000E+000	5.55642E-006	0.00000E+000	7.48040E-004	-3.27687E+002	7	...........
	521	522	4.00650E+000	1.38727E-006	0.00000E+000	5.55810E-006	0.00000E+000	7.45924E-004	-3.27687E+002	7	...........
	522	523	4.00650E+000	1.38699E-006	0.00000E+000	5.55697E-006	0.00000E+000	7.46724E-004	-3.27687E+002	7	...........
	523	524	4.00650E+000	1.38732E-006	0.00000E+000	5.55829E-006	0.00000E+000	7.44607E-004	-3.27687E+002	7	...........
	524	525	4.00648E+000	1.38780E-006	0.00000E+000	5.56020E-006	0.00000E+000	7.49957E-004	-3.27687E+002	7	...........
	525	526	4.00649E+000	1.38604E-006	0.00000E+000	5.55315E-006	0.00000E+000	7.45857E-004	-3.27687E+002	7	...........
	526	527	4.00648E+000	1.38626E-006	0.00000E+000	5.55401E-006	0.00000E+000	7.50524E-004	-3.27687E+002	7	...........
	527	528	4.00647E+000	1.38634E-006	0.00000E+000	5.55434E-006	0.00000E+000	7.48924E-004	-3.27687E+002	7	...........
	528	529	4.00646E+000	1.38693E-006	0.00000E+000	5.55669E-006	0.00000E+000	7.49324E-004	-3.27687E+002	7	...........
	529	530	4.00647E+000	1.38724E-006	0.00000E+000	5.55792E-006	0.00000E+000	7.47074E-004	-3.27687E+002	7	...........
	530	531	4.00645E+000	1.38761E-006	0.00000E+000	5.55938E-006	0.00000E+000	7.47340E-004	-3.27687E+002	7	...........
	531	532	4.00644E+000	1.38777E-006	0.00000E+000	5.56002E-006	0.00000E+000	7.47540E-004	-3.27687E+002	7	...........
	532	533	4.00643E+000	1.38715E-006	0.00000E+000	5.55754E-006	0.00000E+000	7.50490E-004	-3.27687E+002	7	...........
	533	534	4.00643E+000	1.38685E-006	0.00000E+000	5.55633E-006	0.00000E+000	7.49457E-004	-3.27687E+002	7	...........
	534	535	4.00643E+000	1.38668E-006	0.00000E+000	5.55564E-006	0.00000E+000	7.49590E-004	-3.27687E+002	7	...........
	535	536	4.00642E+000	1.38678E-006	0.00000E+000	5.55603E-006	0.00000E+000	7.48840E-004	-3.27687E+002	7	...........
	536	537	4.00644E+000	1.38755E-006	0.00000E+000	5.55912E-006	0.00000E+000	7.50290E-004	-3.27687E+002	7	...........
	537	538	4.00642E+000	1.38740E-006	0.00000E+000	5.55850E-006	0.00000E+000	7.48557E-004	-3.27687E+002	7	...........
	538	539	4.00642E+000	1.38767E-006	0.00000E+000	5.55959E-006	0.00000E+000	7.50007E-004	-3.27687E+002	7	...........
	539	540	4.00640E+000	1.38825E-006	0.00000E+000	5.56186E-006	0.00000E+000	7.49657E-004	-3.27687E+002	7	...........
	540	541	4.00640E+000	1.38828E-006	0.00000E+000	5.56200E-006	0.00000E+000	7.49974E-004	-3.27687E+002	7	...........
	541	542	4.00641E+000	1.38717E-006	0.00000E+000	5.55757E-006	0.00000E+000	7.52524E-004	-3.27687E+002	7	...........
	542	543	4.00640E+000	1.38766E-006	0.00000E+000	5.55953E-006	0.00000E+000	7.48774E-004	-3.27687E+002	7	...........
	543	544	4.00640E+000	1.38844E-006	0.00000E+000	5.56265E-006	0.00000E+000	7.48490E-004	-3.27687E+002	7	...........
	544	545	4.00639E+000	1.38801E-006	0.00000E+000	5.56089E-006	0.00000E+000	7.50024E-004	-3.27687E+002	7	...........
	545	546	4.00638E+000	1.38800E-006	0.00000E+000	5.56087E-006	0.00000E+000	7.50557E-004	-3.27687E+002	7	...........
	546	547	4.00638E+000	1.38825E-006	0.00000E+000	5.56184E-006	0.00000E+000	7.51424E-004	-3.27687E+002	7	...........
	547	548	4.00636E+000	1.38787E-006	0.00000E+000	5.56029E-006	0.00000E+000	7.49140E-004	-3.27687E+002	7	...........
	548	549	4.00635E+000	1.38759E-006	0.00000E+000	5.55916E-006	0.00000E+000	7.53407E-004	-3.27687E+002	7	...........
	549	550	4.00634E+000	1.38727E-006	0.00000E+000	5.55786E-006	0.00000E+000	7.50640E-004	-3.27687E+002	7	...........
	550	551	4.00634E+000	1.38693E-006	0.00000E+000	5.55653E-006	0.00000E+000	7.50640E-004	-3.27687E+002	7	...........
	551	552	4.00633E+000	1.38671E-006	0.00000E+000	5.55560E-006	0.00000E+000	7.50774E-004	-3.27687E+002	7	...........
	552	553	4.00633E+000	1.38736E-006	0.00000E+000	5.55822E-006	0.00000E+000	7.49740E-004	-3.27687E+002	7	...........
	553	554	4.00633E+000	1.38656E-006	0.00000E+000	5.55503E-006	0.00000E+000	7.48524E-004	-3.27687E+002	7	...........
	554	555	4.00631E+000	1.38680E-006	0.00000E+000	5.55597E-006	0.00000E+000	7.49557E-004	-3.27687E+002	7	...........
	555	556	4.00630E+000	1.38723E-006	0.00000E+000	5.55765E-006	0.00000E+000	7.52924E-004	-3.27687E+002	7	...........
	556	557	4.00630E+000	1.38660E-006	0.00000E+000	5.55514E-006	0.00000E+000	7.50674E-004	-3.27687E+002	7	...........
	557	558	4.00630E+000	1.38620E-006	0.00000E+000	5.55353E-006	0.00000E+000	7.52124E-004	-3.27687E+002	7	...........
	558	559	4.00629E+000	1.38651E-006	0.00000E+000	5.55477E-006	0.00000E+000	7.50540E-004	-3.27687E+002	7	...........
	559	560	4.00630E+000	1.38633E-006	0.00000E+000	5.55404E-006	0.00000E+000	7.50990E-004	-3.27687E+002	7	...........
	560	561	4.00629E+000	1.38640E-006	0.00000E+000	5.55434E-006	0.00000E+000	7.50857E-004	-3.27687E+002	7	...........
	561	562	4.00627E+000	1.38642E-006	0.00000E+000	5.55436E-006	0.00000E+000	7.49040E-004	-3.27687E+002	7	...........
	562	563	4.00628E+000	1.38602E-006	0.00000E+000	5.55276E-006	0.00000E+000	7.49257E-004	-3.27687E+002	7	...........
	563	564	4.00627E+000	1.38688E-006	0.00000E+000	5.55622E-006	0.00000E+000	7.51207E-004	-3.27687E+002	7	...........
	564	565	4.00625E+000	1.38678E-006	0.00000E+000	5.55581E-006	0.00000E+000	7.48574E-004	-3.27687E+002	7	...........
	565	566	4.00624E+000	1.38656E-006	0.00000E+000	5.55487E-006	0.00000E+000	7.49757E-004	-3.27687E+002	7	...........
	566	567	4.00624E+000	1.38640E-006	0.00000E+000	5.55424E-006	0.00000E+000	7.50724E-004	-3.27687E+002	7	...........
	567	568	4.00624E+000	1.38597E-006	0.00000E+000	5.55254E-006	0.00000E+000	7.51057E-004	-3.27687E+002	7	...........
	568	569	4.00624E+000	1.38608E-006	0.00000E+000	5.55295E-006	0.00000E+000	7.50540E-004	-3.27687E+002	7	...........
	569	570	4.00624E+000	1.38598E-006	0.00000E+000	5.55256E-006	0.00000E+000	7.53524E-004	-3.27687E+002	7	...........
	570	571	4.00624E+000	1.38581E-006	0.00000E+000	5.55188E-006	0.00000E+000	7.49724E-004	-3.27687E+002	7	...........
	571	572	4.00623E+000	1.38671E-006	0.00000E+000	5.55547E-006	0.00000E+000	7.50774E-004	-3.27687E+002	7	...........
	572	573	4.00623E+000	1.38643E-006	0.00000E+000	5.55436E-006	0.00000E+000	7.51057E-004	-3.27687E+002	7	...........
	573	574	4.00622E+000	1.38539E-006	0.00000E+000	5.55018E-006	0.00000E+000	7.51557E-004	-3.27687E+002	7	...........
	574	575	4.00620E+000	1.38571E-006	0.00000E+000	5.55143E-006	0.00000E+000	7.49074E-004	-3.27687E+002	7	...........
	575	576	4.00620E+000	1.38625E-006	0.00000E+000	5.55358E-006	0.00000E+000	7.51990E-004	-3.27687E+002	7	...........
	576	577	4.00620E+000	1.38596E-006	0.00000E+000	5.55242E-006	0.00000E+000	7.49390E-004	-3.27687E+002	7	...........
	577	578	4.00619E+000	1.38661E-006	0.00000E+000	5.55501E-006	0.00000E+000	7.52024E-004	-3.27687E+002	7	...........
	578	579	4.00619E+000	1.38692E-006	0.00000E+000	5.55627E-006	0.00000E+000	7.50424E-004	-3.27687E+002	7	...........
	579	580	4.00618E+000	1.38671E-006	0.00000E+000	5.55540E-006	0.00000E+000	7.51690E-004	-3.27687E+002	7	...........
	580	581	4.00617E+000	1.38609E-006	0.00000E+000	5.55292E-006	0.00000E+000	7.49557E-004	-3.27687E+002	7	...........
	581	582	4.00618E+000	1.38604E-006	0.00000E+000	5.55273E-006	0.00000E+000	7.50490E-004	-3.27687E+002	7	...........
	582	583	4.00618E+000	1.38623E-006	0.00000E+000	5.55348E-006	0.00000E+000	7.48257E-004	-3.27687E+002	7	...........
	583	584	4.00617E+000	1.38615E-006	0.00000E+000	5.55314E-006	0.00000E+000	7.52507E-004	-3.27687E+002	7	...........
	584	585	4.00617E+000	1.38678E-006	0.00000E+000	5.55568E-006	0.00000E+000	7.49190E-004	-3.27687E+002	7	...........
	585	586	4.00616E+000	1.38641E-006	0.00000E+000	5.55417E-006	0.00000E+000	7.52440E-004	-3.27687E+002	7	...........
	586	587	4.00615E+000	1.38703E-006	0.00000E+000	5.55664E-006	0.00000E+000	7.50124E-004	-3.27687E+002	7	...........
	587	588	4.00615E+000	1.38723E-006	0.00000E+000	5.55743E-006	0.00000E+000	7.50274E-004	-3.27687E+002	7	...........
	588	589	4.00615E+000	1.38727E-006	0.00000E+000	5.55760E-006	0.00000E+000	7.48907E-004	-3.27687E+002	7	...........
	589	590	4.00612E+000	1.38672E-006	0.00000E+000	5.55538E-006	0.00000E+000	7.49540E-004	-3.27687E+002	7	...........
	590	591	4.00613E+000	1.38597E-006	0.00000E+000	5.55236E-006	0.00000E+000	7.50974E-004	-3.27687E+002	7	...........
	591	592	4.00612E+000	1.38545E-006	0.00000E+000	5.55030E-006	0.00000E+000	7.50157E-004	-3.27687E+002	7	...........
	592	593	4.00612E+000	1.38567E-006	0.00000E+000	5.55117E-006	0.00000E+000	7.50590E-004	-3.27687E+002	7	...........
	593	594	4.00611E+000	1.38567E-006	0.00000E+000	5.55116E-006	0.00000E+000	7.49057E-004	-3.27687E+002	7	...........
	594	595	4.00610E+000	1.38570E-006	0.00000E+000	5.55126E-006	0.00000E+000	7.50224E-004	-3.27687E+002	7	...........
	595	596	4.00611E+000	1.38633E-006	0.00000E+000	5.55377E-006	0.00000E+000	7.50257E-004	-3.27687E+002	7	...........
	596	597	4.00611E+000	1.38597E-006	0.00000E+000	5.55233E-006	0.00000E+000	7.50357E-004	-3.27687E+002	7	...........
	597	598	4.00610E+000	1.38635E-006	0.00000E+000	5.55384E-006	0.00000E+000	7.49740E-004	-3.27687E+002	7	...........
	598	599	4.00609E+000	1.38617E-006	0.00000E+000	5.55314E-006	0.00000E+000	7.46390E-004	-3.27687E+002	7	...........
	599	600	4.00608E+000	1.38571E-006	0.00000E+000	5.55126E-006	0.00000E+000	7.47007E-004	-3.27687E+002	7	...........
