EXPLAIN
TAG	PWR800_READVOLTAGE
TITLE	LABEL	PWR Read Voltage	Test Identifier
DATE	LABEL	22.4.2024	Date
TIME	LABEL	11:05:01	Time
NOTES	NOTES	1	Notes...
	
PSTAT	PSTAT	REF600-12055	Potentiostat
CAPACITY	QUANT	1.00000E+000	Capacity (A-hr)
CELLTYPE	SELECTOR	1	Cell Type
WORKINGCONNECTION	SELECTOR	0	Working Connection
MAXTIME	VARIABLEANDUNITS	6.00000E+002	s	6.00000E+002	second(s)	Max Time
SAMPLETIME	QUANT	1.00000E+000	Sample Period (s)
STOPAT1	MULTIPARAM	0	0.00000E+000	Stop At 1	None	N/A
STOPAT2	MULTIPARAM	0	0.00000E+000	Stop At 2	None	N/A
AESBHCSELECTOR	TOGGLE	F	Save Both Half Cells
EOC	QUANT	3.184592	Open Circuit (V)
SEQUENCER	TOGGLE	TRUE	Run as Sequence
PSTATMODEL	IQUANT	4	Pstat Model
PSTATSECTION	LABEL	REF600-12055	Pstat Section
PSTATSERIALNO	LABEL	12055	Pstat Serial Number
CTRLMODE	IQUANT	0	Control Mode
ELECTROMETER	IQUANT	0	RE=0 or CS=1
IESTAB	IQUANT	0	I/E Stability
CASPEED	IQUANT	4	Control Amp Speed
CONVENTION	IQUANT	1	Current Convention
ICHRANGE	IQUANT	2	Ich Range
ICHRANGEMODE	TOGGLE	T	Ich Auto Range
ICHOFFSETENABLE	TOGGLE	F	Ich Offset Enable
ICHOFFSET	QUANT	0	Ich Offset (V)
ICHFILTER	IQUANT	1	Ich Filter
VCHRANGE	IQUANT	3	Vch Range
VCHRANGEMODE	TOGGLE	T	Vch Auto Range
VCHOFFSETENABLE	TOGGLE	F	Vch Offset Enable
VCHOFFSET	QUANT	0	Vch Offset (V)
VCHFILTER	IQUANT	1	Vch Filter
ACHRANGE	IQUANT	2	Ach Range
ACHOFFSETENABLE	TOGGLE	F	Ach Offset Enable
ACHOFFSET	QUANT	0	Ach Offset (V)
ACHFILTER	IQUANT	1	Ach Filter
IERANGELOWERLIMIT	IQUANT	7	I/E Range Lower Limit
IERANGEMODE	TOGGLE	F	I/E AutoRange
IERANGE	IQUANT	11	I/E Range
POSFEEDENABLE	TOGGLE	F	Positive Feedback IR Comp
POSFEEDRESISTANCE	QUANT	0	Positive Feedback Resistance (ohm)
ACHSELECT	IQUANT	4	Ach Select
SENSECABLEID	IQUANT	14	Sense Cable ID
PWRCABLEID	IQUANT	14	Power Cable ID
DCCALDATE	LABEL	2/12/2024	DC Calibration Date
ACCALDATE	LABEL	2/12/2024	AC Calibration Date
THERMOSELECT	IQUANT	1	Thermo Select
FRAMEWORKVERSION	LABEL	7.10.3	Framework Version
INSTRUMENTVERSION	LABEL	4.91	Instrument Version
COMMVERSION	LABEL	2.24	Communications Version
CPUPLDVERSION	LABEL	0.00	CPU PLD Version
CTRLPLDVERSION	LABEL	0.00	CTRL PLD Version
PSTATPLDVERSION	LABEL	0.00	PSTAT PLD Version
CURVE	TABLE	600
	Pt	T	Vf	Im	Vu	Pwr	Sig	Ach	Temp	IERange	Over
	#	s	V	A	V	W	V	V	deg C	#	bits
	0	1	3.40974E+000	1.51898E-006	0.00000E+000	5.17932E-006	0.00000E+000	9.94207E-004	-3.27687E+002	7	...........
	1	2	3.40945E+000	1.51921E-006	0.00000E+000	5.17966E-006	0.00000E+000	9.95890E-004	-3.27687E+002	7	...........
	2	3	3.40927E+000	1.51899E-006	0.00000E+000	5.17863E-006	0.00000E+000	9.92657E-004	-3.27687E+002	7	...........
	3	4	3.40911E+000	1.51954E-006	0.00000E+000	5.18028E-006	0.00000E+000	9.91607E-004	-3.27687E+002	7	...........
	4	5	3.40897E+000	1.52006E-006	0.00000E+000	5.18184E-006	0.00000E+000	9.92540E-004	-3.27687E+002	7	...........
	5	6	3.40883E+000	1.51915E-006	0.00000E+000	5.17854E-006	0.00000E+000	9.87357E-004	-3.27687E+002	7	...........
	6	7	3.40870E+000	1.51935E-006	0.00000E+000	5.17902E-006	0.00000E+000	9.87107E-004	-3.27687E+002	7	...........
	7	8	3.40858E+000	1.51883E-006	0.00000E+000	5.17704E-006	0.00000E+000	9.92040E-004	-3.27687E+002	7	...........
	8	9	3.40846E+000	1.51882E-006	0.00000E+000	5.17683E-006	0.00000E+000	9.89490E-004	-3.27687E+002	7	...........
	9	10	3.40834E+000	1.51928E-006	0.00000E+000	5.17821E-006	0.00000E+000	9.93807E-004	-3.27687E+002	7	...........
	10	11	3.40822E+000	1.51927E-006	0.00000E+000	5.17800E-006	0.00000E+000	9.97757E-004	-3.27687E+002	7	...........
	11	12	3.40811E+000	1.51899E-006	0.00000E+000	5.17687E-006	0.00000E+000	9.98224E-004	-3.27687E+002	7	...........
	12	13	3.40799E+000	1.51875E-006	0.00000E+000	5.17588E-006	0.00000E+000	1.00176E-003	-3.27687E+002	7	...........
	13	14	3.40789E+000	1.51905E-006	0.00000E+000	5.17677E-006	0.00000E+000	1.00236E-003	-3.27687E+002	7	...........
	14	15	3.40779E+000	1.51868E-006	0.00000E+000	5.17536E-006	0.00000E+000	1.00517E-003	-3.27687E+002	7	...........
	15	16	3.40770E+000	1.51845E-006	0.00000E+000	5.17443E-006	0.00000E+000	1.00364E-003	-3.27687E+002	7	...........
	16	17	3.40761E+000	1.51850E-006	0.00000E+000	5.17447E-006	0.00000E+000	1.00082E-003	-3.27687E+002	7	...........
	17	18	3.40753E+000	1.51860E-006	0.00000E+000	5.17468E-006	0.00000E+000	1.00236E-003	-3.27687E+002	7	...........
	18	19	3.40744E+000	1.51857E-006	0.00000E+000	5.17442E-006	0.00000E+000	1.00189E-003	-3.27687E+002	7	...........
	19	20	3.40735E+000	1.51882E-006	0.00000E+000	5.17515E-006	0.00000E+000	1.00047E-003	-3.27687E+002	7	...........
	20	21	3.40728E+000	1.51929E-006	0.00000E+000	5.17664E-006	0.00000E+000	8.24324E-004	-3.27687E+002	7	...........
	21	22	3.40718E+000	1.51937E-006	0.00000E+000	5.17676E-006	0.00000E+000	7.41490E-004	-3.27687E+002	7	...........
	22	23	3.40711E+000	1.51886E-006	0.00000E+000	5.17493E-006	0.00000E+000	7.40440E-004	-3.27687E+002	7	...........
	23	24	3.40703E+000	1.51883E-006	0.00000E+000	5.17469E-006	0.00000E+000	7.39740E-004	-3.27687E+002	7	...........
	24	25	3.40695E+000	1.51821E-006	0.00000E+000	5.17248E-006	0.00000E+000	7.41107E-004	-3.27687E+002	7	...........
	25	26	3.40687E+000	1.51848E-006	0.00000E+000	5.17327E-006	0.00000E+000	7.40707E-004	-3.27687E+002	7	...........
	26	27	3.40680E+000	1.51872E-006	0.00000E+000	5.17397E-006	0.00000E+000	7.40790E-004	-3.27687E+002	7	...........
	27	28	3.40672E+000	1.51875E-006	0.00000E+000	5.17395E-006	0.00000E+000	7.40707E-004	-3.27687E+002	7	...........
	28	29	3.40664E+000	1.51945E-006	0.00000E+000	5.17621E-006	0.00000E+000	7.43124E-004	-3.27687E+002	7	...........
	29	30	3.40658E+000	1.51893E-006	0.00000E+000	5.17437E-006	0.00000E+000	7.43907E-004	-3.27687E+002	7	...........
	30	31	3.40652E+000	1.51904E-006	0.00000E+000	5.17464E-006	0.00000E+000	7.46924E-004	-3.27687E+002	7	...........
	31	32	3.40644E+000	1.51892E-006	0.00000E+000	5.17409E-006	0.00000E+000	7.47674E-004	-3.27687E+002	7	...........
	32	33	3.40637E+000	1.51883E-006	0.00000E+000	5.17369E-006	0.00000E+000	7.48457E-004	-3.27687E+002	7	...........
	33	34	3.40630E+000	1.51843E-006	0.00000E+000	5.17222E-006	0.00000E+000	7.47840E-004	-3.27687E+002	7	...........
	34	35	3.40624E+000	1.51854E-006	0.00000E+000	5.17252E-006	0.00000E+000	7.46557E-004	-3.27687E+002	7	...........
	35	36	3.40619E+000	1.51835E-006	0.00000E+000	5.17179E-006	0.00000E+000	7.45790E-004	-3.27687E+002	7	...........
	36	37	3.40614E+000	1.51902E-006	0.00000E+000	5.17401E-006	0.00000E+000	7.45507E-004	-3.27687E+002	7	...........
	37	38	3.40608E+000	1.51936E-006	0.00000E+000	5.17506E-006	0.00000E+000	7.46840E-004	-3.27687E+002	7	...........
	38	39	3.40603E+000	1.51900E-006	0.00000E+000	5.17375E-006	0.00000E+000	7.45490E-004	-3.27687E+002	7	...........
	39	40	3.40599E+000	1.51890E-006	0.00000E+000	5.17336E-006	0.00000E+000	7.45257E-004	-3.27687E+002	7	...........
	40	41	3.40593E+000	1.51855E-006	0.00000E+000	5.17206E-006	0.00000E+000	7.45174E-004	-3.27687E+002	7	...........
	41	42	3.40587E+000	1.51878E-006	0.00000E+000	5.17278E-006	0.00000E+000	7.44874E-004	-3.27687E+002	7	...........
	42	43	3.40581E+000	1.51905E-006	0.00000E+000	5.17360E-006	0.00000E+000	7.41907E-004	-3.27687E+002	7	...........
	43	44	3.40576E+000	1.51890E-006	0.00000E+000	5.17300E-006	0.00000E+000	7.42590E-004	-3.27687E+002	7	...........
	44	45	3.40569E+000	1.51896E-006	0.00000E+000	5.17312E-006	0.00000E+000	7.41240E-004	-3.27687E+002	7	...........
	45	46	3.40564E+000	1.51887E-006	0.00000E+000	5.17273E-006	0.00000E+000	7.41090E-004	-3.27687E+002	7	...........
	46	47	3.40558E+000	1.51855E-006	0.00000E+000	5.17154E-006	0.00000E+000	7.42090E-004	-3.27687E+002	7	...........
	47	48	3.40553E+000	1.51847E-006	0.00000E+000	5.17120E-006	0.00000E+000	7.40624E-004	-3.27687E+002	7	...........
	48	49	3.40548E+000	1.51858E-006	0.00000E+000	5.17150E-006	0.00000E+000	7.40124E-004	-3.27687E+002	7	...........
	49	50	3.40543E+000	1.51839E-006	0.00000E+000	5.17077E-006	0.00000E+000	7.40724E-004	-3.27687E+002	7	...........
	50	51	3.40538E+000	1.51879E-006	0.00000E+000	5.17207E-006	0.00000E+000	7.39924E-004	-3.27687E+002	7	...........
	51	52	3.40534E+000	1.51850E-006	0.00000E+000	5.17099E-006	0.00000E+000	7.41124E-004	-3.27687E+002	7	...........
	52	53	3.40529E+000	1.51896E-006	0.00000E+000	5.17251E-006	0.00000E+000	7.44307E-004	-3.27687E+002	7	...........
	53	54	3.40525E+000	1.51945E-006	0.00000E+000	5.17411E-006	0.00000E+000	7.42690E-004	-3.27687E+002	7	...........
	54	55	3.40520E+000	1.52034E-006	0.00000E+000	5.17704E-006	0.00000E+000	7.43690E-004	-3.27687E+002	7	...........
	55	56	3.40515E+000	1.51936E-006	0.00000E+000	5.17364E-006	0.00000E+000	7.41674E-004	-3.27687E+002	7	...........
	56	57	3.40509E+000	1.51880E-006	0.00000E+000	5.17165E-006	0.00000E+000	7.46157E-004	-3.27687E+002	7	...........
	57	58	3.40506E+000	1.51879E-006	0.00000E+000	5.17155E-006	0.00000E+000	7.45940E-004	-3.27687E+002	7	...........
	58	59	3.40501E+000	1.51910E-006	0.00000E+000	5.17256E-006	0.00000E+000	7.45207E-004	-3.27687E+002	7	...........
	59	60	3.40494E+000	1.51944E-006	0.00000E+000	5.17361E-006	0.00000E+000	7.45657E-004	-3.27687E+002	7	...........
	60	61	3.40489E+000	1.51958E-006	0.00000E+000	5.17399E-006	0.00000E+000	7.46624E-004	-3.27687E+002	7	...........
	61	62	3.40484E+000	1.51973E-006	0.00000E+000	5.17443E-006	0.00000E+000	7.46974E-004	-3.27687E+002	7	...........
	62	63	3.40479E+000	1.51985E-006	0.00000E+000	5.17475E-006	0.00000E+000	7.49540E-004	-3.27687E+002	7	...........
	63	64	3.40472E+000	1.51971E-006	0.00000E+000	5.17418E-006	0.00000E+000	7.47024E-004	-3.27687E+002	7	...........
	64	65	3.40468E+000	1.51984E-006	0.00000E+000	5.17457E-006	0.00000E+000	7.49240E-004	-3.27687E+002	7	...........
	65	66	3.40462E+000	1.51963E-006	0.00000E+000	5.17376E-006	0.00000E+000	7.49457E-004	-3.27687E+002	7	...........
	66	67	3.40456E+000	1.51948E-006	0.00000E+000	5.17314E-006	0.00000E+000	7.47607E-004	-3.27687E+002	7	...........
	67	68	3.40451E+000	1.51966E-006	0.00000E+000	5.17369E-006	0.00000E+000	7.51274E-004	-3.27687E+002	7	...........
	68	69	3.40447E+000	1.51943E-006	0.00000E+000	5.17284E-006	0.00000E+000	7.47940E-004	-3.27687E+002	7	...........
	69	70	3.40442E+000	1.51969E-006	0.00000E+000	5.17367E-006	0.00000E+000	7.49140E-004	-3.27687E+002	7	...........
	70	71	3.40438E+000	1.52013E-006	0.00000E+000	5.17509E-006	0.00000E+000	7.47974E-004	-3.27687E+002	7	...........
	71	72	3.40434E+000	1.52029E-006	0.00000E+000	5.17559E-006	0.00000E+000	7.48190E-004	-3.27687E+002	7	...........
	72	73	3.40430E+000	1.51990E-006	0.00000E+000	5.17421E-006	0.00000E+000	7.46840E-004	-3.27687E+002	7	...........
	73	74	3.40426E+000	1.51988E-006	0.00000E+000	5.17407E-006	0.00000E+000	7.46957E-004	-3.27687E+002	7	...........
	74	75	3.40423E+000	1.51978E-006	0.00000E+000	5.17368E-006	0.00000E+000	7.47190E-004	-3.27687E+002	7	...........
	75	76	3.40419E+000	1.51975E-006	0.00000E+000	5.17350E-006	0.00000E+000	7.46690E-004	-3.27687E+002	7	...........
	76	77	3.40415E+000	1.52007E-006	0.00000E+000	5.17455E-006	0.00000E+000	7.44690E-004	-3.27687E+002	7	...........
	77	78	3.40413E+000	1.51998E-006	0.00000E+000	5.17419E-006	0.00000E+000	7.43424E-004	-3.27687E+002	7	...........
	78	79	3.40409E+000	1.51957E-006	0.00000E+000	5.17277E-006	0.00000E+000	7.42574E-004	-3.27687E+002	7	...........
	79	80	3.40406E+000	1.52011E-006	0.00000E+000	5.17456E-006	0.00000E+000	7.44957E-004	-3.27687E+002	7	...........
	80	81	3.40403E+000	1.51976E-006	0.00000E+000	5.17330E-006	0.00000E+000	7.42124E-004	-3.27687E+002	7	...........
	81	82	3.40401E+000	1.51993E-006	0.00000E+000	5.17385E-006	0.00000E+000	7.40390E-004	-3.27687E+002	7	...........
	82	83	3.40399E+000	1.51949E-006	0.00000E+000	5.17234E-006	0.00000E+000	7.37990E-004	-3.27687E+002	7	...........
	83	84	3.40395E+000	1.51932E-006	0.00000E+000	5.17168E-006	0.00000E+000	7.39257E-004	-3.27687E+002	7	...........
	84	85	3.40393E+000	1.51989E-006	0.00000E+000	5.17360E-006	0.00000E+000	7.39957E-004	-3.27687E+002	7	...........
	85	86	3.40390E+000	1.51936E-006	0.00000E+000	5.17174E-006	0.00000E+000	7.35074E-004	-3.27687E+002	7	...........
	86	87	3.40388E+000	1.52021E-006	0.00000E+000	5.17462E-006	0.00000E+000	7.38224E-004	-3.27687E+002	7	...........
	87	88	3.40385E+000	1.52021E-006	0.00000E+000	5.17459E-006	0.00000E+000	7.37774E-004	-3.27687E+002	7	...........
	88	89	3.40383E+000	1.51963E-006	0.00000E+000	5.17256E-006	0.00000E+000	7.37040E-004	-3.27687E+002	7	...........
	89	90	3.40381E+000	1.51928E-006	0.00000E+000	5.17134E-006	0.00000E+000	7.36557E-004	-3.27687E+002	7	...........
	90	91	3.40379E+000	1.51950E-006	0.00000E+000	5.17207E-006	0.00000E+000	7.35207E-004	-3.27687E+002	7	...........
	91	92	3.40377E+000	1.51934E-006	0.00000E+000	5.17148E-006	0.00000E+000	7.33674E-004	-3.27687E+002	7	...........
	92	93	3.40375E+000	1.51964E-006	0.00000E+000	5.17247E-006	0.00000E+000	7.38374E-004	-3.27687E+002	7	...........
	93	94	3.40372E+000	1.51979E-006	0.00000E+000	5.17295E-006	0.00000E+000	7.36890E-004	-3.27687E+002	7	...........
	94	95	3.40370E+000	1.52033E-006	0.00000E+000	5.17476E-006	0.00000E+000	7.37040E-004	-3.27687E+002	7	...........
	95	96	3.40367E+000	1.51979E-006	0.00000E+000	5.17288E-006	0.00000E+000	7.36190E-004	-3.27687E+002	7	...........
	96	97	3.40365E+000	1.52014E-006	0.00000E+000	5.17404E-006	0.00000E+000	7.34924E-004	-3.27687E+002	7	...........
	97	98	3.40363E+000	1.51986E-006	0.00000E+000	5.17304E-006	0.00000E+000	7.37107E-004	-3.27687E+002	7	...........
	98	99	3.40360E+000	1.51985E-006	0.00000E+000	5.17296E-006	0.00000E+000	7.35240E-004	-3.27687E+002	7	...........
	99	100	3.40358E+000	1.51975E-006	0.00000E+000	5.17260E-006	0.00000E+000	7.36790E-004	-3.27687E+002	7	...........
	100	101	3.40356E+000	1.51952E-006	0.00000E+000	5.17179E-006	0.00000E+000	7.37390E-004	-3.27687E+002	7	...........
	101	102	3.40354E+000	1.51948E-006	0.00000E+000	5.17162E-006	0.00000E+000	7.36440E-004	-3.27687E+002	7	...........
	102	103	3.40351E+000	1.51999E-006	0.00000E+000	5.17329E-006	0.00000E+000	7.38340E-004	-3.27687E+002	7	...........
	103	104	3.40349E+000	1.52049E-006	0.00000E+000	5.17499E-006	0.00000E+000	7.37957E-004	-3.27687E+002	7	...........
	104	105	3.40347E+000	1.52126E-006	0.00000E+000	5.17754E-006	0.00000E+000	7.38774E-004	-3.27687E+002	7	...........
	105	106	3.40344E+000	1.52055E-006	0.00000E+000	5.17512E-006	0.00000E+000	7.39324E-004	-3.27687E+002	7	...........
	106	107	3.40342E+000	1.52007E-006	0.00000E+000	5.17341E-006	0.00000E+000	7.39974E-004	-3.27687E+002	7	...........
	107	108	3.40338E+000	1.51992E-006	0.00000E+000	5.17288E-006	0.00000E+000	7.41624E-004	-3.27687E+002	7	...........
	108	109	3.40335E+000	1.52064E-006	0.00000E+000	5.17528E-006	0.00000E+000	7.40407E-004	-3.27687E+002	7	...........
	109	110	3.40333E+000	1.52076E-006	0.00000E+000	5.17566E-006	0.00000E+000	7.40757E-004	-3.27687E+002	7	...........
	110	111	3.40331E+000	1.52065E-006	0.00000E+000	5.17525E-006	0.00000E+000	7.41024E-004	-3.27687E+002	7	...........
	111	112	3.40329E+000	1.52065E-006	0.00000E+000	5.17520E-006	0.00000E+000	7.43374E-004	-3.27687E+002	7	...........
	112	113	3.40326E+000	1.52031E-006	0.00000E+000	5.17401E-006	0.00000E+000	7.40474E-004	-3.27687E+002	7	...........
	113	114	3.40323E+000	1.52053E-006	0.00000E+000	5.17470E-006	0.00000E+000	7.40007E-004	-3.27687E+002	7	...........
	114	115	3.40322E+000	1.52068E-006	0.00000E+000	5.17520E-006	0.00000E+000	7.38074E-004	-3.27687E+002	7	...........
	115	116	3.40318E+000	1.52070E-006	0.00000E+000	5.17521E-006	0.00000E+000	7.38757E-004	-3.27687E+002	7	...........
	116	117	3.40315E+000	1.52056E-006	0.00000E+000	5.17468E-006	0.00000E+000	7.39057E-004	-3.27687E+002	7	...........
	117	118	3.40314E+000	1.52001E-006	0.00000E+000	5.17281E-006	0.00000E+000	7.39990E-004	-3.27687E+002	7	...........
	118	119	3.40311E+000	1.52012E-006	0.00000E+000	5.17313E-006	0.00000E+000	7.38357E-004	-3.27687E+002	7	...........
	119	120	3.40308E+000	1.52060E-006	0.00000E+000	5.17473E-006	0.00000E+000	7.39390E-004	-3.27687E+002	7	...........
	120	121	3.40306E+000	1.52123E-006	0.00000E+000	5.17683E-006	0.00000E+000	7.37757E-004	-3.27687E+002	7	...........
	121	122	3.40304E+000	1.52155E-006	0.00000E+000	5.17791E-006	0.00000E+000	7.37624E-004	-3.27687E+002	7	...........
	122	123	3.40301E+000	1.52059E-006	0.00000E+000	5.17460E-006	0.00000E+000	7.39257E-004	-3.27687E+002	7	...........
	123	124	3.40301E+000	1.52036E-006	0.00000E+000	5.17379E-006	0.00000E+000	7.36490E-004	-3.27687E+002	7	...........
	124	125	3.40299E+000	1.52031E-006	0.00000E+000	5.17360E-006	0.00000E+000	7.36274E-004	-3.27687E+002	7	...........
	125	126	3.40297E+000	1.52004E-006	0.00000E+000	5.17263E-006	0.00000E+000	7.36940E-004	-3.27687E+002	7	...........
	126	127	3.40294E+000	1.52067E-006	0.00000E+000	5.17475E-006	0.00000E+000	7.35990E-004	-3.27687E+002	7	...........
	127	128	3.40292E+000	1.52092E-006	0.00000E+000	5.17557E-006	0.00000E+000	7.37974E-004	-3.27687E+002	7	...........
	128	129	3.40289E+000	1.52138E-006	0.00000E+000	5.17707E-006	0.00000E+000	7.35890E-004	-3.27687E+002	7	...........
	129	130	3.40288E+000	1.52119E-006	0.00000E+000	5.17642E-006	0.00000E+000	7.38907E-004	-3.27687E+002	7	...........
	130	131	3.40285E+000	1.52164E-006	0.00000E+000	5.17792E-006	0.00000E+000	7.34624E-004	-3.27687E+002	7	...........
	131	132	3.40284E+000	1.52094E-006	0.00000E+000	5.17551E-006	0.00000E+000	7.36907E-004	-3.27687E+002	7	...........
	132	133	3.40281E+000	1.52093E-006	0.00000E+000	5.17543E-006	0.00000E+000	7.33157E-004	-3.27687E+002	7	...........
	133	134	3.40279E+000	1.52151E-006	0.00000E+000	5.17738E-006	0.00000E+000	7.33124E-004	-3.27687E+002	7	...........
	134	135	3.40277E+000	1.52154E-006	0.00000E+000	5.17744E-006	0.00000E+000	7.34857E-004	-3.27687E+002	7	...........
	135	136	3.40275E+000	1.52140E-006	0.00000E+000	5.17693E-006	0.00000E+000	7.34857E-004	-3.27687E+002	7	...........
	136	137	3.40273E+000	1.52106E-006	0.00000E+000	5.17577E-006	0.00000E+000	7.32190E-004	-3.27687E+002	7	...........
	137	138	3.40272E+000	1.52136E-006	0.00000E+000	5.17675E-006	0.00000E+000	7.32607E-004	-3.27687E+002	7	...........
	138	139	3.40270E+000	1.52145E-006	0.00000E+000	5.17702E-006	0.00000E+000	7.33257E-004	-3.27687E+002	7	...........
	139	140	3.40268E+000	1.52114E-006	0.00000E+000	5.17595E-006	0.00000E+000	7.31307E-004	-3.27687E+002	7	...........
	140	141	3.40266E+000	1.52114E-006	0.00000E+000	5.17590E-006	0.00000E+000	7.29140E-004	-3.27687E+002	7	...........
	141	142	3.40264E+000	1.52110E-006	0.00000E+000	5.17576E-006	0.00000E+000	7.28974E-004	-3.27687E+002	7	...........
	142	143	3.40262E+000	1.52133E-006	0.00000E+000	5.17652E-006	0.00000E+000	7.31740E-004	-3.27687E+002	7	...........
	143	144	3.40260E+000	1.52141E-006	0.00000E+000	5.17675E-006	0.00000E+000	7.28274E-004	-3.27687E+002	7	...........
	144	145	3.40256E+000	1.52156E-006	0.00000E+000	5.17719E-006	0.00000E+000	7.28424E-004	-3.27687E+002	7	...........
	145	146	3.40254E+000	1.52200E-006	0.00000E+000	5.17867E-006	0.00000E+000	7.28674E-004	-3.27687E+002	7	...........
	146	147	3.40253E+000	1.52150E-006	0.00000E+000	5.17694E-006	0.00000E+000	7.27040E-004	-3.27687E+002	7	...........
	147	148	3.40251E+000	1.52130E-006	0.00000E+000	5.17625E-006	0.00000E+000	7.26307E-004	-3.27687E+002	7	...........
	148	149	3.40249E+000	1.52140E-006	0.00000E+000	5.17654E-006	0.00000E+000	7.27157E-004	-3.27687E+002	7	...........
	149	150	3.40247E+000	1.52144E-006	0.00000E+000	5.17665E-006	0.00000E+000	7.26574E-004	-3.27687E+002	7	...........
	150	151	3.40244E+000	1.52078E-006	0.00000E+000	5.17436E-006	0.00000E+000	7.26024E-004	-3.27687E+002	7	...........
	151	152	3.40242E+000	1.52151E-006	0.00000E+000	5.17682E-006	0.00000E+000	7.27124E-004	-3.27687E+002	7	...........
	152	153	3.40240E+000	1.52163E-006	0.00000E+000	5.17719E-006	0.00000E+000	7.26490E-004	-3.27687E+002	7	...........
	153	154	3.40238E+000	1.52181E-006	0.00000E+000	5.17778E-006	0.00000E+000	7.28307E-004	-3.27687E+002	7	...........
	154	155	3.40236E+000	1.52281E-006	0.00000E+000	5.18116E-006	0.00000E+000	7.27340E-004	-3.27687E+002	7	...........
	155	156	3.40234E+000	1.52240E-006	0.00000E+000	5.17971E-006	0.00000E+000	7.28524E-004	-3.27687E+002	7	...........
	156	157	3.40232E+000	1.52179E-006	0.00000E+000	5.17761E-006	0.00000E+000	7.25374E-004	-3.27687E+002	7	...........
	157	158	3.40230E+000	1.52200E-006	0.00000E+000	5.17830E-006	0.00000E+000	7.28090E-004	-3.27687E+002	7	...........
	158	159	3.40229E+000	1.52191E-006	0.00000E+000	5.17800E-006	0.00000E+000	7.26324E-004	-3.27687E+002	7	...........
	159	160	3.40227E+000	1.52204E-006	0.00000E+000	5.17838E-006	0.00000E+000	7.30757E-004	-3.27687E+002	7	...........
	160	161	3.40225E+000	1.52195E-006	0.00000E+000	5.17805E-006	0.00000E+000	7.28024E-004	-3.27687E+002	7	...........
	161	162	3.40224E+000	1.52231E-006	0.00000E+000	5.17925E-006	0.00000E+000	7.28757E-004	-3.27687E+002	7	...........
	162	163	3.40221E+000	1.52239E-006	0.00000E+000	5.17950E-006	0.00000E+000	7.31724E-004	-3.27687E+002	7	...........
	163	164	3.40219E+000	1.52203E-006	0.00000E+000	5.17823E-006	0.00000E+000	7.31240E-004	-3.27687E+002	7	...........
	164	165	3.40218E+000	1.52210E-006	0.00000E+000	5.17846E-006	0.00000E+000	7.30240E-004	-3.27687E+002	7	...........
	165	166	3.40216E+000	1.52212E-006	0.00000E+000	5.17849E-006	0.00000E+000	7.32090E-004	-3.27687E+002	7	...........
	166	167	3.40215E+000	1.52193E-006	0.00000E+000	5.17783E-006	0.00000E+000	7.30040E-004	-3.27687E+002	7	...........
	167	168	3.40212E+000	1.52221E-006	0.00000E+000	5.17875E-006	0.00000E+000	7.32040E-004	-3.27687E+002	7	...........
	168	169	3.40211E+000	1.52157E-006	0.00000E+000	5.17657E-006	0.00000E+000	7.31607E-004	-3.27687E+002	7	...........
	169	170	3.40210E+000	1.52197E-006	0.00000E+000	5.17789E-006	0.00000E+000	7.31440E-004	-3.27687E+002	7	...........
	170	171	3.40207E+000	1.52228E-006	0.00000E+000	5.17888E-006	0.00000E+000	7.32490E-004	-3.27687E+002	7	...........
	171	172	3.40206E+000	1.52286E-006	0.00000E+000	5.18086E-006	0.00000E+000	7.34890E-004	-3.27687E+002	7	...........
	172	173	3.40204E+000	1.52209E-006	0.00000E+000	5.17821E-006	0.00000E+000	7.34490E-004	-3.27687E+002	7	...........
	173	174	3.40202E+000	1.52220E-006	0.00000E+000	5.17854E-006	0.00000E+000	7.34874E-004	-3.27687E+002	7	...........
	174	175	3.40200E+000	1.52164E-006	0.00000E+000	5.17661E-006	0.00000E+000	7.36707E-004	-3.27687E+002	7	...........
	175	176	3.40198E+000	1.52224E-006	0.00000E+000	5.17865E-006	0.00000E+000	7.37524E-004	-3.27687E+002	7	...........
	176	177	3.40198E+000	1.52279E-006	0.00000E+000	5.18051E-006	0.00000E+000	7.36940E-004	-3.27687E+002	7	...........
	177	178	3.40196E+000	1.52287E-006	0.00000E+000	5.18074E-006	0.00000E+000	7.39507E-004	-3.27687E+002	7	...........
	178	179	3.40193E+000	1.52213E-006	0.00000E+000	5.17818E-006	0.00000E+000	7.39524E-004	-3.27687E+002	7	...........
	179	180	3.40191E+000	1.52204E-006	0.00000E+000	5.17784E-006	0.00000E+000	7.36890E-004	-3.27687E+002	7	...........
	180	181	3.40190E+000	1.52175E-006	0.00000E+000	5.17685E-006	0.00000E+000	7.38690E-004	-3.27687E+002	7	...........
	181	182	3.40188E+000	1.52165E-006	0.00000E+000	5.17646E-006	0.00000E+000	7.40707E-004	-3.27687E+002	7	...........
	182	183	3.40187E+000	1.52150E-006	0.00000E+000	5.17594E-006	0.00000E+000	7.40090E-004	-3.27687E+002	7	...........
	183	184	3.40185E+000	1.52161E-006	0.00000E+000	5.17628E-006	0.00000E+000	7.40624E-004	-3.27687E+002	7	...........
	184	185	3.40183E+000	1.52153E-006	0.00000E+000	5.17598E-006	0.00000E+000	7.41624E-004	-3.27687E+002	7	...........
	185	186	3.40180E+000	1.52204E-006	0.00000E+000	5.17767E-006	0.00000E+000	7.39757E-004	-3.27687E+002	7	...........
	186	187	3.40180E+000	1.52153E-006	0.00000E+000	5.17595E-006	0.00000E+000	7.43607E-004	-3.27687E+002	7	...........
	187	188	3.40178E+000	1.52181E-006	0.00000E+000	5.17687E-006	0.00000E+000	7.41674E-004	-3.27687E+002	7	...........
	188	189	3.40176E+000	1.52253E-006	0.00000E+000	5.17927E-006	0.00000E+000	7.43324E-004	-3.27687E+002	7	...........
	189	190	3.40175E+000	1.52216E-006	0.00000E+000	5.17801E-006	0.00000E+000	7.44240E-004	-3.27687E+002	7	...........
	190	191	3.40173E+000	1.52228E-006	0.00000E+000	5.17840E-006	0.00000E+000	7.43590E-004	-3.27687E+002	7	...........
	191	192	3.40172E+000	1.52198E-006	0.00000E+000	5.17734E-006	0.00000E+000	7.45507E-004	-3.27687E+002	7	...........
	192	193	3.40170E+000	1.52169E-006	0.00000E+000	5.17634E-006	0.00000E+000	7.44957E-004	-3.27687E+002	7	...........
	193	194	3.40167E+000	1.52177E-006	0.00000E+000	5.17655E-006	0.00000E+000	7.44974E-004	-3.27687E+002	7	...........
	194	195	3.40166E+000	1.52221E-006	0.00000E+000	5.17803E-006	0.00000E+000	7.47690E-004	-3.27687E+002	7	...........
	195	196	3.40164E+000	1.52209E-006	0.00000E+000	5.17760E-006	0.00000E+000	7.45174E-004	-3.27687E+002	7	...........
	196	197	3.40162E+000	1.52283E-006	0.00000E+000	5.18010E-006	0.00000E+000	7.46440E-004	-3.27687E+002	7	...........
	197	198	3.40161E+000	1.52217E-006	0.00000E+000	5.17781E-006	0.00000E+000	7.47840E-004	-3.27687E+002	7	...........
	198	199	3.40159E+000	1.52189E-006	0.00000E+000	5.17684E-006	0.00000E+000	7.48407E-004	-3.27687E+002	7	...........
	199	200	3.40158E+000	1.52200E-006	0.00000E+000	5.17719E-006	0.00000E+000	7.45640E-004	-3.27687E+002	7	...........
	200	201	3.40156E+000	1.52190E-006	0.00000E+000	5.17683E-006	0.00000E+000	7.45607E-004	-3.27687E+002	7	...........
	201	202	3.40155E+000	1.52210E-006	0.00000E+000	5.17750E-006	0.00000E+000	7.44874E-004	-3.27687E+002	7	...........
	202	203	3.40154E+000	1.52168E-006	0.00000E+000	5.17606E-006	0.00000E+000	7.45207E-004	-3.27687E+002	7	...........
	203	204	3.40152E+000	1.52214E-006	0.00000E+000	5.17758E-006	0.00000E+000	7.48324E-004	-3.27687E+002	7	...........
	204	205	3.40151E+000	1.52224E-006	0.00000E+000	5.17790E-006	0.00000E+000	7.47907E-004	-3.27687E+002	7	...........
	205	206	3.40149E+000	1.52300E-006	0.00000E+000	5.18048E-006	0.00000E+000	7.47440E-004	-3.27687E+002	7	...........
	206	207	3.40147E+000	1.52264E-006	0.00000E+000	5.17921E-006	0.00000E+000	7.48024E-004	-3.27687E+002	7	...........
	207	208	3.40145E+000	1.52224E-006	0.00000E+000	5.17783E-006	0.00000E+000	7.48124E-004	-3.27687E+002	7	...........
	208	209	3.40143E+000	1.52197E-006	0.00000E+000	5.17689E-006	0.00000E+000	7.48507E-004	-3.27687E+002	7	...........
	209	210	3.40142E+000	1.52234E-006	0.00000E+000	5.17813E-006	0.00000E+000	7.50024E-004	-3.27687E+002	7	...........
	210	211	3.40141E+000	1.52247E-006	0.00000E+000	5.17855E-006	0.00000E+000	7.49540E-004	-3.27687E+002	7	...........
	211	212	3.40139E+000	1.52275E-006	0.00000E+000	5.17946E-006	0.00000E+000	7.48324E-004	-3.27687E+002	7	...........
	212	213	3.40138E+000	1.52296E-006	0.00000E+000	5.18016E-006	0.00000E+000	7.51724E-004	-3.27687E+002	7	...........
	213	214	3.40136E+000	1.52302E-006	0.00000E+000	5.18034E-006	0.00000E+000	7.48074E-004	-3.27687E+002	7	...........
	214	215	3.40136E+000	1.52229E-006	0.00000E+000	5.17784E-006	0.00000E+000	7.47757E-004	-3.27687E+002	7	...........
	215	216	3.40134E+000	1.52279E-006	0.00000E+000	5.17952E-006	0.00000E+000	7.49390E-004	-3.27687E+002	7	...........
	216	217	3.40132E+000	1.52266E-006	0.00000E+000	5.17906E-006	0.00000E+000	7.48540E-004	-3.27687E+002	7	...........
	217	218	3.40132E+000	1.52245E-006	0.00000E+000	5.17835E-006	0.00000E+000	7.48990E-004	-3.27687E+002	7	...........
	218	219	3.40131E+000	1.52245E-006	0.00000E+000	5.17831E-006	0.00000E+000	7.48524E-004	-3.27687E+002	7	...........
	219	220	3.40128E+000	1.52246E-006	0.00000E+000	5.17832E-006	0.00000E+000	7.49774E-004	-3.27687E+002	7	...........
	220	221	3.40127E+000	1.52286E-006	0.00000E+000	5.17965E-006	0.00000E+000	7.48124E-004	-3.27687E+002	7	...........
	221	222	3.40126E+000	1.52374E-006	0.00000E+000	5.18264E-006	0.00000E+000	7.50590E-004	-3.27687E+002	7	...........
	222	223	3.40126E+000	1.52389E-006	0.00000E+000	5.18313E-006	0.00000E+000	7.48990E-004	-3.27687E+002	7	...........
	223	224	3.40123E+000	1.52297E-006	0.00000E+000	5.17997E-006	0.00000E+000	7.46790E-004	-3.27687E+002	7	...........
	224	225	3.40122E+000	1.52285E-006	0.00000E+000	5.17954E-006	0.00000E+000	7.47224E-004	-3.27687E+002	7	...........
	225	226	3.40121E+000	1.52217E-006	0.00000E+000	5.17723E-006	0.00000E+000	7.50324E-004	-3.27687E+002	7	...........
	226	227	3.40120E+000	1.52216E-006	0.00000E+000	5.17716E-006	0.00000E+000	7.48424E-004	-3.27687E+002	7	...........
	227	228	3.40120E+000	1.52249E-006	0.00000E+000	5.17827E-006	0.00000E+000	7.48090E-004	-3.27687E+002	7	...........
	228	229	3.40117E+000	1.52257E-006	0.00000E+000	5.17852E-006	0.00000E+000	7.48124E-004	-3.27687E+002	7	...........
	229	230	3.40116E+000	1.52263E-006	0.00000E+000	5.17873E-006	0.00000E+000	7.46540E-004	-3.27687E+002	7	...........
	230	231	3.40115E+000	1.52255E-006	0.00000E+000	5.17844E-006	0.00000E+000	7.46157E-004	-3.27687E+002	7	...........
	231	232	3.40113E+000	1.52210E-006	0.00000E+000	5.17685E-006	0.00000E+000	7.45157E-004	-3.27687E+002	7	...........
	232	233	3.40111E+000	1.52214E-006	0.00000E+000	5.17696E-006	0.00000E+000	7.45940E-004	-3.27687E+002	7	...........
	233	234	3.40110E+000	1.52217E-006	0.00000E+000	5.17704E-006	0.00000E+000	7.44307E-004	-3.27687E+002	7	...........
	234	235	3.40109E+000	1.52215E-006	0.00000E+000	5.17698E-006	0.00000E+000	7.44624E-004	-3.27687E+002	7	...........
	235	236	3.40108E+000	1.52195E-006	0.00000E+000	5.17627E-006	0.00000E+000	7.45640E-004	-3.27687E+002	7	...........
	236	237	3.40106E+000	1.52221E-006	0.00000E+000	5.17714E-006	0.00000E+000	7.45374E-004	-3.27687E+002	7	...........
	237	238	3.40104E+000	1.52233E-006	0.00000E+000	5.17751E-006	0.00000E+000	7.43840E-004	-3.27687E+002	7	...........
	238	239	3.40104E+000	1.52267E-006	0.00000E+000	5.17868E-006	0.00000E+000	7.44540E-004	-3.27687E+002	7	...........
	239	240	3.40102E+000	1.52261E-006	0.00000E+000	5.17844E-006	0.00000E+000	7.43757E-004	-3.27687E+002	7	...........
	240	241	3.40101E+000	1.52257E-006	0.00000E+000	5.17828E-006	0.00000E+000	7.43707E-004	-3.27687E+002	7	...........
	241	242	3.40099E+000	1.52233E-006	0.00000E+000	5.17742E-006	0.00000E+000	7.40574E-004	-3.27687E+002	7	...........
	242	243	3.40097E+000	1.52179E-006	0.00000E+000	5.17556E-006	0.00000E+000	7.44157E-004	-3.27687E+002	7	...........
	243	244	3.40096E+000	1.52236E-006	0.00000E+000	5.17751E-006	0.00000E+000	7.41424E-004	-3.27687E+002	7	...........
	244	245	3.40095E+000	1.52236E-006	0.00000E+000	5.17749E-006	0.00000E+000	7.43740E-004	-3.27687E+002	7	...........
	245	246	3.40094E+000	1.52230E-006	0.00000E+000	5.17725E-006	0.00000E+000	7.42874E-004	-3.27687E+002	7	...........
	246	247	3.40093E+000	1.52228E-006	0.00000E+000	5.17716E-006	0.00000E+000	7.41607E-004	-3.27687E+002	7	...........
	247	248	3.40091E+000	1.52212E-006	0.00000E+000	5.17658E-006	0.00000E+000	7.43374E-004	-3.27687E+002	7	...........
	248	249	3.40090E+000	1.52170E-006	0.00000E+000	5.17516E-006	0.00000E+000	7.43157E-004	-3.27687E+002	7	...........
	249	250	3.40089E+000	1.52204E-006	0.00000E+000	5.17628E-006	0.00000E+000	7.43840E-004	-3.27687E+002	7	...........
	250	251	3.40087E+000	1.52176E-006	0.00000E+000	5.17531E-006	0.00000E+000	7.42174E-004	-3.27687E+002	7	...........
	251	252	3.40086E+000	1.52166E-006	0.00000E+000	5.17496E-006	0.00000E+000	7.43307E-004	-3.27687E+002	7	...........
	252	253	3.40084E+000	1.52193E-006	0.00000E+000	5.17584E-006	0.00000E+000	7.45790E-004	-3.27687E+002	7	...........
	253	254	3.40083E+000	1.52174E-006	0.00000E+000	5.17517E-006	0.00000E+000	7.41240E-004	-3.27687E+002	7	...........
	254	255	3.40082E+000	1.52281E-006	0.00000E+000	5.17880E-006	0.00000E+000	7.43307E-004	-3.27687E+002	7	...........
	255	256	3.40080E+000	1.52294E-006	0.00000E+000	5.17923E-006	0.00000E+000	7.44924E-004	-3.27687E+002	7	...........
	256	257	3.40079E+000	1.52291E-006	0.00000E+000	5.17908E-006	0.00000E+000	7.41740E-004	-3.27687E+002	7	...........
	257	258	3.40077E+000	1.52262E-006	0.00000E+000	5.17810E-006	0.00000E+000	7.40590E-004	-3.27687E+002	7	...........
	258	259	3.40076E+000	1.52211E-006	0.00000E+000	5.17633E-006	0.00000E+000	7.42124E-004	-3.27687E+002	7	...........
	259	260	3.40075E+000	1.52199E-006	0.00000E+000	5.17592E-006	0.00000E+000	7.42240E-004	-3.27687E+002	7	...........
	260	261	3.40074E+000	1.52180E-006	0.00000E+000	5.17524E-006	0.00000E+000	7.42174E-004	-3.27687E+002	7	...........
	261	262	3.40072E+000	1.52189E-006	0.00000E+000	5.17552E-006	0.00000E+000	7.40740E-004	-3.27687E+002	7	...........
	262	263	3.40071E+000	1.52180E-006	0.00000E+000	5.17521E-006	0.00000E+000	7.42407E-004	-3.27687E+002	7	...........
	263	264	3.40069E+000	1.52239E-006	0.00000E+000	5.17718E-006	0.00000E+000	7.40607E-004	-3.27687E+002	7	...........
	264	265	3.40068E+000	1.52237E-006	0.00000E+000	5.17709E-006	0.00000E+000	7.44224E-004	-3.27687E+002	7	...........
	265	266	3.40068E+000	1.52216E-006	0.00000E+000	5.17636E-006	0.00000E+000	7.44840E-004	-3.27687E+002	7	...........
	266	267	3.40066E+000	1.52166E-006	0.00000E+000	5.17464E-006	0.00000E+000	7.42007E-004	-3.27687E+002	7	...........
	267	268	3.40064E+000	1.52171E-006	0.00000E+000	5.17478E-006	0.00000E+000	7.43024E-004	-3.27687E+002	7	...........
	268	269	3.40063E+000	1.52161E-006	0.00000E+000	5.17442E-006	0.00000E+000	7.42490E-004	-3.27687E+002	7	...........
	269	270	3.40062E+000	1.52170E-006	0.00000E+000	5.17473E-006	0.00000E+000	7.41757E-004	-3.27687E+002	7	...........
	270	271	3.40060E+000	1.52209E-006	0.00000E+000	5.17602E-006	0.00000E+000	7.42974E-004	-3.27687E+002	7	...........
	271	272	3.40058E+000	1.52261E-006	0.00000E+000	5.17777E-006	0.00000E+000	7.40240E-004	-3.27687E+002	7	...........
	272	273	3.40058E+000	1.52323E-006	0.00000E+000	5.17986E-006	0.00000E+000	7.41807E-004	-3.27687E+002	7	...........
	273	274	3.40056E+000	1.52247E-006	0.00000E+000	5.17725E-006	0.00000E+000	7.42140E-004	-3.27687E+002	7	...........
	274	275	3.40055E+000	1.52178E-006	0.00000E+000	5.17488E-006	0.00000E+000	7.42507E-004	-3.27687E+002	7	...........
	275	276	3.40054E+000	1.52203E-006	0.00000E+000	5.17571E-006	0.00000E+000	7.42324E-004	-3.27687E+002	7	...........
	276	277	3.40052E+000	1.52238E-006	0.00000E+000	5.17689E-006	0.00000E+000	7.43024E-004	-3.27687E+002	7	...........
	277	278	3.40051E+000	1.52241E-006	0.00000E+000	5.17696E-006	0.00000E+000	7.42874E-004	-3.27687E+002	7	...........
	278	279	3.40050E+000	1.52259E-006	0.00000E+000	5.17758E-006	0.00000E+000	7.41440E-004	-3.27687E+002	7	...........
	279	280	3.40048E+000	1.52222E-006	0.00000E+000	5.17628E-006	0.00000E+000	7.44107E-004	-3.27687E+002	7	...........
	280	281	3.40047E+000	1.52195E-006	0.00000E+000	5.17535E-006	0.00000E+000	7.43407E-004	-3.27687E+002	7	...........
	281	282	3.40048E+000	1.52197E-006	0.00000E+000	5.17543E-006	0.00000E+000	7.41124E-004	-3.27687E+002	7	...........
	282	283	3.40046E+000	1.52138E-006	0.00000E+000	5.17340E-006	0.00000E+000	7.43057E-004	-3.27687E+002	7	...........
	283	284	3.40043E+000	1.52164E-006	0.00000E+000	5.17425E-006	0.00000E+000	7.44107E-004	-3.27687E+002	7	...........
	284	285	3.40042E+000	1.52113E-006	0.00000E+000	5.17247E-006	0.00000E+000	7.42924E-004	-3.27687E+002	7	...........
	285	286	3.40042E+000	1.52150E-006	0.00000E+000	5.17373E-006	0.00000E+000	7.43024E-004	-3.27687E+002	7	...........
	286	287	3.40040E+000	1.52223E-006	0.00000E+000	5.17619E-006	0.00000E+000	7.43424E-004	-3.27687E+002	7	...........
	287	288	3.40038E+000	1.52241E-006	0.00000E+000	5.17676E-006	0.00000E+000	7.43157E-004	-3.27687E+002	7	...........
	288	289	3.40037E+000	1.52227E-006	0.00000E+000	5.17627E-006	0.00000E+000	7.43957E-004	-3.27687E+002	7	...........
	289	290	3.40036E+000	1.52295E-006	0.00000E+000	5.17858E-006	0.00000E+000	7.46140E-004	-3.27687E+002	7	...........
	290	291	3.40036E+000	1.52243E-006	0.00000E+000	5.17682E-006	0.00000E+000	7.45574E-004	-3.27687E+002	7	...........
	291	292	3.40034E+000	1.52243E-006	0.00000E+000	5.17679E-006	0.00000E+000	7.46290E-004	-3.27687E+002	7	...........
	292	293	3.40032E+000	1.52186E-006	0.00000E+000	5.17480E-006	0.00000E+000	7.46474E-004	-3.27687E+002	7	...........
	293	294	3.40031E+000	1.52160E-006	0.00000E+000	5.17392E-006	0.00000E+000	7.44590E-004	-3.27687E+002	7	...........
	294	295	3.40030E+000	1.52195E-006	0.00000E+000	5.17508E-006	0.00000E+000	7.47690E-004	-3.27687E+002	7	...........
	295	296	3.40029E+000	1.52230E-006	0.00000E+000	5.17625E-006	0.00000E+000	7.46390E-004	-3.27687E+002	7	...........
	296	297	3.40027E+000	1.52226E-006	0.00000E+000	5.17611E-006	0.00000E+000	7.47590E-004	-3.27687E+002	7	...........
	297	298	3.40026E+000	1.52210E-006	0.00000E+000	5.17554E-006	0.00000E+000	7.47207E-004	-3.27687E+002	7	...........
	298	299	3.40025E+000	1.52210E-006	0.00000E+000	5.17552E-006	0.00000E+000	7.47924E-004	-3.27687E+002	7	...........
	299	300	3.40025E+000	1.52193E-006	0.00000E+000	5.17495E-006	0.00000E+000	7.46374E-004	-3.27687E+002	7	...........
	300	301	3.40023E+000	1.52181E-006	0.00000E+000	5.17449E-006	0.00000E+000	7.46624E-004	-3.27687E+002	7	...........
	301	302	3.40023E+000	1.52146E-006	0.00000E+000	5.17331E-006	0.00000E+000	7.47707E-004	-3.27687E+002	7	...........
	302	303	3.40022E+000	1.52104E-006	0.00000E+000	5.17187E-006	0.00000E+000	7.46224E-004	-3.27687E+002	7	...........
	303	304	3.40020E+000	1.52160E-006	0.00000E+000	5.17373E-006	0.00000E+000	7.48640E-004	-3.27687E+002	7	...........
	304	305	3.40018E+000	1.52176E-006	0.00000E+000	5.17426E-006	0.00000E+000	7.49657E-004	-3.27687E+002	7	...........
	305	306	3.40018E+000	1.52186E-006	0.00000E+000	5.17461E-006	0.00000E+000	7.50790E-004	-3.27687E+002	7	...........
	306	307	3.40017E+000	1.52194E-006	0.00000E+000	5.17485E-006	0.00000E+000	7.49640E-004	-3.27687E+002	7	...........
	307	308	3.40015E+000	1.52148E-006	0.00000E+000	5.17327E-006	0.00000E+000	7.50790E-004	-3.27687E+002	7	...........
	308	309	3.40015E+000	1.52110E-006	0.00000E+000	5.17196E-006	0.00000E+000	7.49457E-004	-3.27687E+002	7	...........
	309	310	3.40013E+000	1.52119E-006	0.00000E+000	5.17224E-006	0.00000E+000	7.49957E-004	-3.27687E+002	7	...........
	310	311	3.40012E+000	1.52188E-006	0.00000E+000	5.17456E-006	0.00000E+000	7.50374E-004	-3.27687E+002	7	...........
	311	312	3.40010E+000	1.52195E-006	0.00000E+000	5.17478E-006	0.00000E+000	7.51624E-004	-3.27687E+002	7	...........
	312	313	3.40009E+000	1.52190E-006	0.00000E+000	5.17461E-006	0.00000E+000	7.49907E-004	-3.27687E+002	7	...........
	313	314	3.40008E+000	1.52205E-006	0.00000E+000	5.17510E-006	0.00000E+000	7.52457E-004	-3.27687E+002	7	...........
	314	315	3.40008E+000	1.52168E-006	0.00000E+000	5.17383E-006	0.00000E+000	7.51540E-004	-3.27687E+002	7	...........
	315	316	3.40006E+000	1.52216E-006	0.00000E+000	5.17543E-006	0.00000E+000	7.51057E-004	-3.27687E+002	7	...........
	316	317	3.40005E+000	1.52177E-006	0.00000E+000	5.17409E-006	0.00000E+000	7.49440E-004	-3.27687E+002	7	...........
	317	318	3.40004E+000	1.52160E-006	0.00000E+000	5.17349E-006	0.00000E+000	7.49207E-004	-3.27687E+002	7	...........
	318	319	3.40002E+000	1.52112E-006	0.00000E+000	5.17184E-006	0.00000E+000	7.51957E-004	-3.27687E+002	7	...........
	319	320	3.40002E+000	1.52088E-006	0.00000E+000	5.17103E-006	0.00000E+000	7.52140E-004	-3.27687E+002	7	...........
	320	321	3.40001E+000	1.52127E-006	0.00000E+000	5.17235E-006	0.00000E+000	7.52357E-004	-3.27687E+002	7	...........
	321	322	3.40000E+000	1.52151E-006	0.00000E+000	5.17312E-006	0.00000E+000	7.51674E-004	-3.27687E+002	7	...........
	322	323	3.39999E+000	1.52140E-006	0.00000E+000	5.17275E-006	0.00000E+000	7.52090E-004	-3.27687E+002	7	...........
	323	324	3.39997E+000	1.52187E-006	0.00000E+000	5.17431E-006	0.00000E+000	7.50274E-004	-3.27687E+002	7	...........
	324	325	3.39997E+000	1.52185E-006	0.00000E+000	5.17423E-006	0.00000E+000	7.52590E-004	-3.27687E+002	7	...........
	325	326	3.39995E+000	1.52098E-006	0.00000E+000	5.17127E-006	0.00000E+000	7.52707E-004	-3.27687E+002	7	...........
	326	327	3.39994E+000	1.52149E-006	0.00000E+000	5.17297E-006	0.00000E+000	7.52924E-004	-3.27687E+002	7	...........
	327	328	3.39993E+000	1.52132E-006	0.00000E+000	5.17237E-006	0.00000E+000	7.53924E-004	-3.27687E+002	7	...........
	328	329	3.39993E+000	1.52132E-006	0.00000E+000	5.17239E-006	0.00000E+000	7.50990E-004	-3.27687E+002	7	...........
	329	330	3.39991E+000	1.52162E-006	0.00000E+000	5.17338E-006	0.00000E+000	7.50140E-004	-3.27687E+002	7	...........
	330	331	3.39991E+000	1.52116E-006	0.00000E+000	5.17182E-006	0.00000E+000	7.52807E-004	-3.27687E+002	7	...........
	331	332	3.39990E+000	1.52099E-006	0.00000E+000	5.17121E-006	0.00000E+000	7.49240E-004	-3.27687E+002	7	...........
	332	333	3.39988E+000	1.52116E-006	0.00000E+000	5.17177E-006	0.00000E+000	7.52407E-004	-3.27687E+002	7	...........
	333	334	3.39988E+000	1.52068E-006	0.00000E+000	5.17013E-006	0.00000E+000	7.50324E-004	-3.27687E+002	7	...........
	334	335	3.39987E+000	1.52071E-006	0.00000E+000	5.17023E-006	0.00000E+000	7.51307E-004	-3.27687E+002	7	...........
	335	336	3.39985E+000	1.52085E-006	0.00000E+000	5.17068E-006	0.00000E+000	7.49274E-004	-3.27687E+002	7	...........
	336	337	3.39985E+000	1.52154E-006	0.00000E+000	5.17300E-006	0.00000E+000	7.51024E-004	-3.27687E+002	7	...........
	337	338	3.39984E+000	1.52157E-006	0.00000E+000	5.17308E-006	0.00000E+000	7.48307E-004	-3.27687E+002	7	...........
	338	339	3.39983E+000	1.52159E-006	0.00000E+000	5.17316E-006	0.00000E+000	7.52940E-004	-3.27687E+002	7	...........
	339	340	3.39982E+000	1.52216E-006	0.00000E+000	5.17508E-006	0.00000E+000	7.50557E-004	-3.27687E+002	7	...........
	340	341	3.39981E+000	1.52166E-006	0.00000E+000	5.17336E-006	0.00000E+000	7.53224E-004	-3.27687E+002	7	...........
	341	342	3.39981E+000	1.52154E-006	0.00000E+000	5.17295E-006	0.00000E+000	7.51674E-004	-3.27687E+002	7	...........
	342	343	3.39979E+000	1.52166E-006	0.00000E+000	5.17332E-006	0.00000E+000	7.52207E-004	-3.27687E+002	7	...........
	343	344	3.39979E+000	1.52134E-006	0.00000E+000	5.17223E-006	0.00000E+000	7.51874E-004	-3.27687E+002	7	...........
	344	345	3.39979E+000	1.52183E-006	0.00000E+000	5.17388E-006	0.00000E+000	7.50840E-004	-3.27687E+002	7	...........
	345	346	3.39977E+000	1.52261E-006	0.00000E+000	5.17654E-006	0.00000E+000	7.50190E-004	-3.27687E+002	7	...........
	346	347	3.39977E+000	1.52211E-006	0.00000E+000	5.17481E-006	0.00000E+000	7.49674E-004	-3.27687E+002	7	...........
	347	348	3.39976E+000	1.52214E-006	0.00000E+000	5.17491E-006	0.00000E+000	7.50990E-004	-3.27687E+002	7	...........
	348	349	3.39975E+000	1.52187E-006	0.00000E+000	5.17399E-006	0.00000E+000	7.49957E-004	-3.27687E+002	7	...........
	349	350	3.39974E+000	1.52177E-006	0.00000E+000	5.17364E-006	0.00000E+000	7.50090E-004	-3.27687E+002	7	...........
	350	351	3.39973E+000	1.52139E-006	0.00000E+000	5.17231E-006	0.00000E+000	7.50174E-004	-3.27687E+002	7	...........
	351	352	3.39972E+000	1.52090E-006	0.00000E+000	5.17062E-006	0.00000E+000	7.51507E-004	-3.27687E+002	7	...........
	352	353	3.39972E+000	1.52079E-006	0.00000E+000	5.17026E-006	0.00000E+000	7.51007E-004	-3.27687E+002	7	...........
	353	354	3.39970E+000	1.52083E-006	0.00000E+000	5.17035E-006	0.00000E+000	7.51107E-004	-3.27687E+002	7	...........
	354	355	3.39970E+000	1.52136E-006	0.00000E+000	5.17217E-006	0.00000E+000	7.50540E-004	-3.27687E+002	7	...........
	355	356	3.39969E+000	1.52198E-006	0.00000E+000	5.17426E-006	0.00000E+000	7.50440E-004	-3.27687E+002	7	...........
	356	357	3.39968E+000	1.52230E-006	0.00000E+000	5.17533E-006	0.00000E+000	7.48074E-004	-3.27687E+002	7	...........
	357	358	3.39967E+000	1.52221E-006	0.00000E+000	5.17503E-006	0.00000E+000	7.50290E-004	-3.27687E+002	7	...........
	358	359	3.39967E+000	1.52135E-006	0.00000E+000	5.17211E-006	0.00000E+000	7.48790E-004	-3.27687E+002	7	...........
	359	360	3.39966E+000	1.52163E-006	0.00000E+000	5.17304E-006	0.00000E+000	7.48090E-004	-3.27687E+002	7	...........
	360	361	3.39965E+000	1.52170E-006	0.00000E+000	5.17326E-006	0.00000E+000	7.48307E-004	-3.27687E+002	7	...........
	361	362	3.39965E+000	1.52190E-006	0.00000E+000	5.17392E-006	0.00000E+000	7.48257E-004	-3.27687E+002	7	...........
	362	363	3.39964E+000	1.52184E-006	0.00000E+000	5.17371E-006	0.00000E+000	7.50607E-004	-3.27687E+002	7	...........
	363	364	3.39963E+000	1.52157E-006	0.00000E+000	5.17278E-006	0.00000E+000	7.49924E-004	-3.27687E+002	7	...........
	364	365	3.39963E+000	1.52179E-006	0.00000E+000	5.17352E-006	0.00000E+000	7.48174E-004	-3.27687E+002	7	...........
	365	366	3.39961E+000	1.52132E-006	0.00000E+000	5.17191E-006	0.00000E+000	7.47607E-004	-3.27687E+002	7	...........
	366	367	3.39961E+000	1.52089E-006	0.00000E+000	5.17042E-006	0.00000E+000	7.46240E-004	-3.27687E+002	7	...........
	367	368	3.39960E+000	1.52099E-006	0.00000E+000	5.17076E-006	0.00000E+000	7.49907E-004	-3.27687E+002	7	...........
	368	369	3.39959E+000	1.52050E-006	0.00000E+000	5.16909E-006	0.00000E+000	7.46574E-004	-3.27687E+002	7	...........
	369	370	3.39959E+000	1.52145E-006	0.00000E+000	5.17231E-006	0.00000E+000	7.46907E-004	-3.27687E+002	7	...........
	370	371	3.39957E+000	1.52138E-006	0.00000E+000	5.17204E-006	0.00000E+000	7.49724E-004	-3.27687E+002	7	...........
	371	372	3.39956E+000	1.52139E-006	0.00000E+000	5.17205E-006	0.00000E+000	7.46007E-004	-3.27687E+002	7	...........
	372	373	3.39955E+000	1.52218E-006	0.00000E+000	5.17472E-006	0.00000E+000	7.46624E-004	-3.27687E+002	7	...........
	373	374	3.39954E+000	1.52230E-006	0.00000E+000	5.17511E-006	0.00000E+000	7.49590E-004	-3.27687E+002	7	...........
	374	375	3.39954E+000	1.52249E-006	0.00000E+000	5.17578E-006	0.00000E+000	7.48390E-004	-3.27687E+002	7	...........
	375	376	3.39953E+000	1.52160E-006	0.00000E+000	5.17274E-006	0.00000E+000	7.47674E-004	-3.27687E+002	7	...........
	376	377	3.39953E+000	1.52159E-006	0.00000E+000	5.17270E-006	0.00000E+000	7.49374E-004	-3.27687E+002	7	...........
	377	378	3.39952E+000	1.52152E-006	0.00000E+000	5.17242E-006	0.00000E+000	7.48140E-004	-3.27687E+002	7	...........
	378	379	3.39951E+000	1.52161E-006	0.00000E+000	5.17272E-006	0.00000E+000	7.45724E-004	-3.27687E+002	7	...........
	379	380	3.39950E+000	1.52192E-006	0.00000E+000	5.17376E-006	0.00000E+000	7.46707E-004	-3.27687E+002	7	...........
	380	381	3.39949E+000	1.52195E-006	0.00000E+000	5.17385E-006	0.00000E+000	7.49740E-004	-3.27687E+002	7	...........
	381	382	3.39948E+000	1.52188E-006	0.00000E+000	5.17361E-006	0.00000E+000	7.50790E-004	-3.27687E+002	7	...........
	382	383	3.39947E+000	1.52163E-006	0.00000E+000	5.17275E-006	0.00000E+000	7.49074E-004	-3.27687E+002	7	...........
	383	384	3.39946E+000	1.52123E-006	0.00000E+000	5.17135E-006	0.00000E+000	7.47907E-004	-3.27687E+002	7	...........
	384	385	3.39945E+000	1.52098E-006	0.00000E+000	5.17049E-006	0.00000E+000	7.48557E-004	-3.27687E+002	7	...........
	385	386	3.39943E+000	1.52127E-006	0.00000E+000	5.17147E-006	0.00000E+000	7.47590E-004	-3.27687E+002	7	...........
	386	387	3.39943E+000	1.52113E-006	0.00000E+000	5.17097E-006	0.00000E+000	7.49490E-004	-3.27687E+002	7	...........
	387	388	3.39942E+000	1.52089E-006	0.00000E+000	5.17014E-006	0.00000E+000	7.49457E-004	-3.27687E+002	7	...........
	388	389	3.39941E+000	1.52064E-006	0.00000E+000	5.16927E-006	0.00000E+000	7.47490E-004	-3.27687E+002	7	...........
	389	390	3.39940E+000	1.52163E-006	0.00000E+000	5.17262E-006	0.00000E+000	7.47190E-004	-3.27687E+002	7	...........
	390	391	3.39941E+000	1.52168E-006	0.00000E+000	5.17282E-006	0.00000E+000	7.48907E-004	-3.27687E+002	7	...........
	391	392	3.39938E+000	1.52103E-006	0.00000E+000	5.17056E-006	0.00000E+000	7.45657E-004	-3.27687E+002	7	...........
	392	393	3.39937E+000	1.52117E-006	0.00000E+000	5.17102E-006	0.00000E+000	7.47424E-004	-3.27687E+002	7	...........
	393	394	3.39937E+000	1.52197E-006	0.00000E+000	5.17375E-006	0.00000E+000	7.47740E-004	-3.27687E+002	7	...........
	394	395	3.39936E+000	1.52155E-006	0.00000E+000	5.17231E-006	0.00000E+000	7.46174E-004	-3.27687E+002	7	...........
	395	396	3.39935E+000	1.52194E-006	0.00000E+000	5.17361E-006	0.00000E+000	7.48507E-004	-3.27687E+002	7	...........
	396	397	3.39933E+000	1.52215E-006	0.00000E+000	5.17429E-006	0.00000E+000	7.45524E-004	-3.27687E+002	7	...........
	397	398	3.39932E+000	1.52215E-006	0.00000E+000	5.17428E-006	0.00000E+000	7.47824E-004	-3.27687E+002	7	...........
	398	399	3.39931E+000	1.52170E-006	0.00000E+000	5.17271E-006	0.00000E+000	7.47707E-004	-3.27687E+002	7	...........
	399	400	3.39930E+000	1.52119E-006	0.00000E+000	5.17100E-006	0.00000E+000	7.47024E-004	-3.27687E+002	7	...........
	400	401	3.39929E+000	1.52167E-006	0.00000E+000	5.17262E-006	0.00000E+000	7.45324E-004	-3.27687E+002	7	...........
	401	402	3.39929E+000	1.52157E-006	0.00000E+000	5.17226E-006	0.00000E+000	7.45940E-004	-3.27687E+002	7	...........
	402	403	3.39928E+000	1.52133E-006	0.00000E+000	5.17141E-006	0.00000E+000	7.46040E-004	-3.27687E+002	7	...........
	403	404	3.39927E+000	1.52142E-006	0.00000E+000	5.17172E-006	0.00000E+000	7.47140E-004	-3.27687E+002	7	...........
	404	405	3.39926E+000	1.52101E-006	0.00000E+000	5.17030E-006	0.00000E+000	7.46124E-004	-3.27687E+002	7	...........
	405	406	3.39924E+000	1.52095E-006	0.00000E+000	5.17008E-006	0.00000E+000	7.44824E-004	-3.27687E+002	7	...........
	406	407	3.39923E+000	1.52177E-006	0.00000E+000	5.17286E-006	0.00000E+000	7.43407E-004	-3.27687E+002	7	...........
	407	408	3.39922E+000	1.52167E-006	0.00000E+000	5.17250E-006	0.00000E+000	7.46124E-004	-3.27687E+002	7	...........
	408	409	3.39922E+000	1.52144E-006	0.00000E+000	5.17170E-006	0.00000E+000	7.43290E-004	-3.27687E+002	7	...........
	409	410	3.39921E+000	1.52145E-006	0.00000E+000	5.17173E-006	0.00000E+000	7.44924E-004	-3.27687E+002	7	...........
	410	411	3.39919E+000	1.52171E-006	0.00000E+000	5.17260E-006	0.00000E+000	7.44057E-004	-3.27687E+002	7	...........
	411	412	3.39919E+000	1.52183E-006	0.00000E+000	5.17299E-006	0.00000E+000	7.45240E-004	-3.27687E+002	7	...........
	412	413	3.39918E+000	1.52125E-006	0.00000E+000	5.17099E-006	0.00000E+000	7.43274E-004	-3.27687E+002	7	...........
	413	414	3.39918E+000	1.52148E-006	0.00000E+000	5.17180E-006	0.00000E+000	7.44957E-004	-3.27687E+002	7	...........
	414	415	3.39917E+000	1.52174E-006	0.00000E+000	5.17263E-006	0.00000E+000	7.45057E-004	-3.27687E+002	7	...........
	415	416	3.39915E+000	1.52154E-006	0.00000E+000	5.17194E-006	0.00000E+000	7.43524E-004	-3.27687E+002	7	...........
	416	417	3.39915E+000	1.52115E-006	0.00000E+000	5.17061E-006	0.00000E+000	7.45107E-004	-3.27687E+002	7	...........
	417	418	3.39914E+000	1.52080E-006	0.00000E+000	5.16940E-006	0.00000E+000	7.45007E-004	-3.27687E+002	7	...........
	418	419	3.39914E+000	1.52051E-006	0.00000E+000	5.16844E-006	0.00000E+000	7.44874E-004	-3.27687E+002	7	...........
	419	420	3.39912E+000	1.52024E-006	0.00000E+000	5.16749E-006	0.00000E+000	7.45640E-004	-3.27687E+002	7	...........
	420	421	3.39911E+000	1.51988E-006	0.00000E+000	5.16625E-006	0.00000E+000	7.43857E-004	-3.27687E+002	7	...........
	421	422	3.39910E+000	1.52040E-006	0.00000E+000	5.16799E-006	0.00000E+000	7.43190E-004	-3.27687E+002	7	...........
	422	423	3.39909E+000	1.52082E-006	0.00000E+000	5.16941E-006	0.00000E+000	7.43440E-004	-3.27687E+002	7	...........
	423	424	3.39908E+000	1.52147E-006	0.00000E+000	5.17162E-006	0.00000E+000	7.44474E-004	-3.27687E+002	7	...........
	424	425	3.39907E+000	1.52179E-006	0.00000E+000	5.17265E-006	0.00000E+000	7.45474E-004	-3.27687E+002	7	...........
	425	426	3.39907E+000	1.52075E-006	0.00000E+000	5.16915E-006	0.00000E+000	7.44807E-004	-3.27687E+002	7	...........
	426	427	3.39906E+000	1.52097E-006	0.00000E+000	5.16988E-006	0.00000E+000	7.43074E-004	-3.27687E+002	7	...........
	427	428	3.39905E+000	1.52107E-006	0.00000E+000	5.17020E-006	0.00000E+000	7.45024E-004	-3.27687E+002	7	...........
	428	429	3.39904E+000	1.52109E-006	0.00000E+000	5.17024E-006	0.00000E+000	7.43357E-004	-3.27687E+002	7	...........
	429	430	3.39903E+000	1.52146E-006	0.00000E+000	5.17149E-006	0.00000E+000	7.45007E-004	-3.27687E+002	7	...........
	430	431	3.39902E+000	1.52162E-006	0.00000E+000	5.17199E-006	0.00000E+000	7.42674E-004	-3.27687E+002	7	...........
	431	432	3.39901E+000	1.52164E-006	0.00000E+000	5.17207E-006	0.00000E+000	7.44707E-004	-3.27687E+002	7	...........
	432	433	3.39900E+000	1.52141E-006	0.00000E+000	5.17128E-006	0.00000E+000	7.44407E-004	-3.27687E+002	7	...........
	433	434	3.39900E+000	1.52119E-006	0.00000E+000	5.17052E-006	0.00000E+000	7.44074E-004	-3.27687E+002	7	...........
	434	435	3.39899E+000	1.52094E-006	0.00000E+000	5.16964E-006	0.00000E+000	7.43707E-004	-3.27687E+002	7	...........
	435	436	3.39898E+000	1.52044E-006	0.00000E+000	5.16795E-006	0.00000E+000	7.43890E-004	-3.27687E+002	7	...........
	436	437	3.39898E+000	1.52030E-006	0.00000E+000	5.16748E-006	0.00000E+000	7.42924E-004	-3.27687E+002	7	...........
	437	438	3.39897E+000	1.52039E-006	0.00000E+000	5.16774E-006	0.00000E+000	7.46090E-004	-3.27687E+002	7	...........
	438	439	3.39896E+000	1.52060E-006	0.00000E+000	5.16847E-006	0.00000E+000	7.46324E-004	-3.27687E+002	7	...........
	439	440	3.39894E+000	1.52087E-006	0.00000E+000	5.16935E-006	0.00000E+000	7.45124E-004	-3.27687E+002	7	...........
	440	441	3.39893E+000	1.52129E-006	0.00000E+000	5.17076E-006	0.00000E+000	7.44607E-004	-3.27687E+002	7	...........
	441	442	3.39893E+000	1.52143E-006	0.00000E+000	5.17123E-006	0.00000E+000	7.45507E-004	-3.27687E+002	7	...........
	442	443	3.39892E+000	1.52099E-006	0.00000E+000	5.16974E-006	0.00000E+000	7.47540E-004	-3.27687E+002	7	...........
	443	444	3.39892E+000	1.52120E-006	0.00000E+000	5.17043E-006	0.00000E+000	7.45657E-004	-3.27687E+002	7	...........
	444	445	3.39890E+000	1.52040E-006	0.00000E+000	5.16769E-006	0.00000E+000	7.46940E-004	-3.27687E+002	7	...........
	445	446	3.39889E+000	1.52078E-006	0.00000E+000	5.16896E-006	0.00000E+000	7.48207E-004	-3.27687E+002	7	...........
	446	447	3.39889E+000	1.52075E-006	0.00000E+000	5.16886E-006	0.00000E+000	7.46674E-004	-3.27687E+002	7	...........
	447	448	3.39888E+000	1.52128E-006	0.00000E+000	5.17066E-006	0.00000E+000	7.44990E-004	-3.27687E+002	7	...........
	448	449	3.39886E+000	1.52137E-006	0.00000E+000	5.17092E-006	0.00000E+000	7.47840E-004	-3.27687E+002	7	...........
	449	450	3.39886E+000	1.52098E-006	0.00000E+000	5.16962E-006	0.00000E+000	7.47524E-004	-3.27687E+002	7	...........
	450	451	3.39885E+000	1.52112E-006	0.00000E+000	5.17006E-006	0.00000E+000	7.49324E-004	-3.27687E+002	7	...........
	451	452	3.39884E+000	1.52067E-006	0.00000E+000	5.16852E-006	0.00000E+000	7.47507E-004	-3.27687E+002	7	...........
	452	453	3.39884E+000	1.52097E-006	0.00000E+000	5.16952E-006	0.00000E+000	7.47207E-004	-3.27687E+002	7	...........
	453	454	3.39883E+000	1.52058E-006	0.00000E+000	5.16820E-006	0.00000E+000	7.47207E-004	-3.27687E+002	7	...........
	454	455	3.39882E+000	1.52078E-006	0.00000E+000	5.16885E-006	0.00000E+000	7.46607E-004	-3.27687E+002	7	...........
	455	456	3.39881E+000	1.52060E-006	0.00000E+000	5.16822E-006	0.00000E+000	7.48907E-004	-3.27687E+002	7	...........
	456	457	3.39880E+000	1.52099E-006	0.00000E+000	5.16955E-006	0.00000E+000	7.44840E-004	-3.27687E+002	7	...........
	457	458	3.39879E+000	1.52194E-006	0.00000E+000	5.17277E-006	0.00000E+000	7.46307E-004	-3.27687E+002	7	...........
	458	459	3.39879E+000	1.52158E-006	0.00000E+000	5.17151E-006	0.00000E+000	7.44757E-004	-3.27687E+002	7	...........
	459	460	3.39878E+000	1.52083E-006	0.00000E+000	5.16896E-006	0.00000E+000	7.44607E-004	-3.27687E+002	7	...........
	460	461	3.39877E+000	1.52083E-006	0.00000E+000	5.16897E-006	0.00000E+000	7.46290E-004	-3.27687E+002	7	...........
	461	462	3.39877E+000	1.52064E-006	0.00000E+000	5.16832E-006	0.00000E+000	7.43890E-004	-3.27687E+002	7	...........
	462	463	3.39876E+000	1.52081E-006	0.00000E+000	5.16887E-006	0.00000E+000	7.45840E-004	-3.27687E+002	7	...........
	463	464	3.39875E+000	1.52119E-006	0.00000E+000	5.17014E-006	0.00000E+000	7.47407E-004	-3.27687E+002	7	...........
	464	465	3.39874E+000	1.52155E-006	0.00000E+000	5.17134E-006	0.00000E+000	7.47924E-004	-3.27687E+002	7	...........
	465	466	3.39874E+000	1.52180E-006	0.00000E+000	5.17220E-006	0.00000E+000	7.48490E-004	-3.27687E+002	7	...........
	466	467	3.39872E+000	1.52153E-006	0.00000E+000	5.17125E-006	0.00000E+000	7.47974E-004	-3.27687E+002	7	...........
	467	468	3.39870E+000	1.52129E-006	0.00000E+000	5.17041E-006	0.00000E+000	7.48757E-004	-3.27687E+002	7	...........
	468	469	3.39870E+000	1.52099E-006	0.00000E+000	5.16938E-006	0.00000E+000	7.47524E-004	-3.27687E+002	7	...........
	469	470	3.39871E+000	1.52112E-006	0.00000E+000	5.16983E-006	0.00000E+000	7.46374E-004	-3.27687E+002	7	...........
	470	471	3.39868E+000	1.52079E-006	0.00000E+000	5.16869E-006	0.00000E+000	7.51407E-004	-3.27687E+002	7	...........
	471	472	3.39867E+000	1.52073E-006	0.00000E+000	5.16847E-006	0.00000E+000	7.48307E-004	-3.27687E+002	7	...........
	472	473	3.39867E+000	1.52093E-006	0.00000E+000	5.16915E-006	0.00000E+000	7.48924E-004	-3.27687E+002	7	...........
	473	474	3.39866E+000	1.52160E-006	0.00000E+000	5.17138E-006	0.00000E+000	7.50757E-004	-3.27687E+002	7	...........
	474	475	3.39865E+000	1.52181E-006	0.00000E+000	5.17211E-006	0.00000E+000	7.48207E-004	-3.27687E+002	7	...........
	475	476	3.39864E+000	1.52100E-006	0.00000E+000	5.16935E-006	0.00000E+000	7.50007E-004	-3.27687E+002	7	...........
	476	477	3.39864E+000	1.52099E-006	0.00000E+000	5.16929E-006	0.00000E+000	7.48324E-004	-3.27687E+002	7	...........
	477	478	3.39863E+000	1.52070E-006	0.00000E+000	5.16829E-006	0.00000E+000	7.49174E-004	-3.27687E+002	7	...........
	478	479	3.39862E+000	1.52078E-006	0.00000E+000	5.16854E-006	0.00000E+000	7.50524E-004	-3.27687E+002	7	...........
	479	480	3.39861E+000	1.52094E-006	0.00000E+000	5.16909E-006	0.00000E+000	7.47674E-004	-3.27687E+002	7	...........
	480	481	3.39860E+000	1.52084E-006	0.00000E+000	5.16873E-006	0.00000E+000	7.50207E-004	-3.27687E+002	7	...........
	481	482	3.39859E+000	1.52122E-006	0.00000E+000	5.16999E-006	0.00000E+000	7.52174E-004	-3.27687E+002	7	...........
	482	483	3.39858E+000	1.52140E-006	0.00000E+000	5.17059E-006	0.00000E+000	7.50740E-004	-3.27687E+002	7	...........
	483	484	3.39858E+000	1.52145E-006	0.00000E+000	5.17077E-006	0.00000E+000	7.49190E-004	-3.27687E+002	7	...........
	484	485	3.39857E+000	1.52106E-006	0.00000E+000	5.16942E-006	0.00000E+000	7.51457E-004	-3.27687E+002	7	...........
	485	486	3.39855E+000	1.52083E-006	0.00000E+000	5.16863E-006	0.00000E+000	7.51890E-004	-3.27687E+002	7	...........
	486	487	3.39854E+000	1.52072E-006	0.00000E+000	5.16824E-006	0.00000E+000	7.48657E-004	-3.27687E+002	7	...........
	487	488	3.39854E+000	1.52037E-006	0.00000E+000	5.16705E-006	0.00000E+000	7.50674E-004	-3.27687E+002	7	...........
	488	489	3.39853E+000	1.52098E-006	0.00000E+000	5.16912E-006	0.00000E+000	7.49324E-004	-3.27687E+002	7	...........
	489	490	3.39852E+000	1.52125E-006	0.00000E+000	5.17000E-006	0.00000E+000	7.50007E-004	-3.27687E+002	7	...........
	490	491	3.39852E+000	1.52169E-006	0.00000E+000	5.17150E-006	0.00000E+000	7.50840E-004	-3.27687E+002	7	...........
	491	492	3.39851E+000	1.52201E-006	0.00000E+000	5.17256E-006	0.00000E+000	7.50457E-004	-3.27687E+002	7	...........
	492	493	3.39850E+000	1.52131E-006	0.00000E+000	5.17018E-006	0.00000E+000	7.51407E-004	-3.27687E+002	7	...........
	493	494	3.39848E+000	1.52112E-006	0.00000E+000	5.16950E-006	0.00000E+000	7.52324E-004	-3.27687E+002	7	...........
	494	495	3.39847E+000	1.52103E-006	0.00000E+000	5.16917E-006	0.00000E+000	7.50024E-004	-3.27687E+002	7	...........
	495	496	3.39846E+000	1.52085E-006	0.00000E+000	5.16854E-006	0.00000E+000	7.51574E-004	-3.27687E+002	7	...........
	496	497	3.39846E+000	1.52128E-006	0.00000E+000	5.17000E-006	0.00000E+000	7.53807E-004	-3.27687E+002	7	...........
	497	498	3.39845E+000	1.52120E-006	0.00000E+000	5.16972E-006	0.00000E+000	7.51940E-004	-3.27687E+002	7	...........
	498	499	3.39844E+000	1.52139E-006	0.00000E+000	5.17033E-006	0.00000E+000	7.53824E-004	-3.27687E+002	7	...........
	499	500	3.39843E+000	1.52160E-006	0.00000E+000	5.17104E-006	0.00000E+000	7.51457E-004	-3.27687E+002	7	...........
	500	501	3.39843E+000	1.52081E-006	0.00000E+000	5.16835E-006	0.00000E+000	7.52157E-004	-3.27687E+002	7	...........
	501	502	3.39843E+000	1.52109E-006	0.00000E+000	5.16933E-006	0.00000E+000	7.51907E-004	-3.27687E+002	7	...........
	502	503	3.39841E+000	1.52110E-006	0.00000E+000	5.16932E-006	0.00000E+000	7.52224E-004	-3.27687E+002	7	...........
	503	504	3.39840E+000	1.52080E-006	0.00000E+000	5.16829E-006	0.00000E+000	7.54074E-004	-3.27687E+002	7	...........
	504	505	3.39839E+000	1.52063E-006	0.00000E+000	5.16769E-006	0.00000E+000	7.51624E-004	-3.27687E+002	7	...........
	505	506	3.39837E+000	1.52069E-006	0.00000E+000	5.16786E-006	0.00000E+000	7.53557E-004	-3.27687E+002	7	...........
	506	507	3.39836E+000	1.52122E-006	0.00000E+000	5.16967E-006	0.00000E+000	7.53274E-004	-3.27687E+002	7	...........
	507	508	3.39836E+000	1.52186E-006	0.00000E+000	5.17181E-006	0.00000E+000	7.54190E-004	-3.27687E+002	7	...........
	508	509	3.39835E+000	1.52186E-006	0.00000E+000	5.17183E-006	0.00000E+000	7.49757E-004	-3.27687E+002	7	...........
	509	510	3.39833E+000	1.52178E-006	0.00000E+000	5.17149E-006	0.00000E+000	7.51107E-004	-3.27687E+002	7	...........
	510	511	3.39832E+000	1.52133E-006	0.00000E+000	5.16995E-006	0.00000E+000	7.53107E-004	-3.27687E+002	7	...........
	511	512	3.39831E+000	1.52118E-006	0.00000E+000	5.16944E-006	0.00000E+000	7.53957E-004	-3.27687E+002	7	...........
	512	513	3.39831E+000	1.52119E-006	0.00000E+000	5.16947E-006	0.00000E+000	7.53290E-004	-3.27687E+002	7	...........
	513	514	3.39829E+000	1.52142E-006	0.00000E+000	5.17023E-006	0.00000E+000	7.53190E-004	-3.27687E+002	7	...........
	514	515	3.39829E+000	1.52091E-006	0.00000E+000	5.16849E-006	0.00000E+000	7.51507E-004	-3.27687E+002	7	...........
	515	516	3.39828E+000	1.52118E-006	0.00000E+000	5.16940E-006	0.00000E+000	7.51440E-004	-3.27687E+002	7	...........
	516	517	3.39828E+000	1.52049E-006	0.00000E+000	5.16704E-006	0.00000E+000	7.52174E-004	-3.27687E+002	7	...........
	517	518	3.39827E+000	1.52082E-006	0.00000E+000	5.16817E-006	0.00000E+000	7.51757E-004	-3.27687E+002	7	...........
	518	519	3.39825E+000	1.52095E-006	0.00000E+000	5.16857E-006	0.00000E+000	7.50940E-004	-3.27687E+002	7	...........
	519	520	3.39824E+000	1.52050E-006	0.00000E+000	5.16701E-006	0.00000E+000	7.52207E-004	-3.27687E+002	7	...........
	520	521	3.39823E+000	1.52011E-006	0.00000E+000	5.16567E-006	0.00000E+000	7.53990E-004	-3.27687E+002	7	...........
	521	522	3.39822E+000	1.52066E-006	0.00000E+000	5.16753E-006	0.00000E+000	7.50274E-004	-3.27687E+002	7	...........
	522	523	3.39821E+000	1.52068E-006	0.00000E+000	5.16760E-006	0.00000E+000	7.54074E-004	-3.27687E+002	7	...........
	523	524	3.39820E+000	1.52065E-006	0.00000E+000	5.16749E-006	0.00000E+000	7.54824E-004	-3.27687E+002	7	...........
	524	525	3.39819E+000	1.52122E-006	0.00000E+000	5.16941E-006	0.00000E+000	7.53224E-004	-3.27687E+002	7	...........
	525	526	3.39819E+000	1.52161E-006	0.00000E+000	5.17073E-006	0.00000E+000	7.53090E-004	-3.27687E+002	7	...........
	526	527	3.39818E+000	1.52129E-006	0.00000E+000	5.16964E-006	0.00000E+000	7.54274E-004	-3.27687E+002	7	...........
	527	528	3.39817E+000	1.52072E-006	0.00000E+000	5.16767E-006	0.00000E+000	7.52557E-004	-3.27687E+002	7	...........
	528	529	3.39816E+000	1.52021E-006	0.00000E+000	5.16592E-006	0.00000E+000	7.52457E-004	-3.27687E+002	7	...........
	529	530	3.39815E+000	1.52012E-006	0.00000E+000	5.16562E-006	0.00000E+000	7.53290E-004	-3.27687E+002	7	...........
	530	531	3.39813E+000	1.52038E-006	0.00000E+000	5.16644E-006	0.00000E+000	7.51274E-004	-3.27687E+002	7	...........
	531	532	3.39813E+000	1.52057E-006	0.00000E+000	5.16710E-006	0.00000E+000	7.52840E-004	-3.27687E+002	7	...........
	532	533	3.39813E+000	1.52090E-006	0.00000E+000	5.16821E-006	0.00000E+000	7.52107E-004	-3.27687E+002	7	...........
	533	534	3.39812E+000	1.52055E-006	0.00000E+000	5.16699E-006	0.00000E+000	7.52657E-004	-3.27687E+002	7	...........
	534	535	3.39810E+000	1.52061E-006	0.00000E+000	5.16720E-006	0.00000E+000	7.50990E-004	-3.27687E+002	7	...........
	535	536	3.39811E+000	1.52063E-006	0.00000E+000	5.16726E-006	0.00000E+000	7.52124E-004	-3.27687E+002	7	...........
	536	537	3.39809E+000	1.52066E-006	0.00000E+000	5.16736E-006	0.00000E+000	7.54407E-004	-3.27687E+002	7	...........
	537	538	3.39809E+000	1.52033E-006	0.00000E+000	5.16622E-006	0.00000E+000	7.52524E-004	-3.27687E+002	7	...........
	538	539	3.39809E+000	1.52017E-006	0.00000E+000	5.16567E-006	0.00000E+000	7.51740E-004	-3.27687E+002	7	...........
	539	540	3.39808E+000	1.52002E-006	0.00000E+000	5.16514E-006	0.00000E+000	7.55607E-004	-3.27687E+002	7	...........
	540	541	3.39807E+000	1.52015E-006	0.00000E+000	5.16557E-006	0.00000E+000	7.53390E-004	-3.27687E+002	7	...........
	541	542	3.39807E+000	1.52088E-006	0.00000E+000	5.16806E-006	0.00000E+000	7.52540E-004	-3.27687E+002	7	...........
	542	543	3.39806E+000	1.52166E-006	0.00000E+000	5.17068E-006	0.00000E+000	7.51774E-004	-3.27687E+002	7	...........
	543	544	3.39805E+000	1.52044E-006	0.00000E+000	5.16651E-006	0.00000E+000	7.51474E-004	-3.27687E+002	7	...........
	544	545	3.39804E+000	1.52032E-006	0.00000E+000	5.16610E-006	0.00000E+000	7.51774E-004	-3.27687E+002	7	...........
	545	546	3.39803E+000	1.52022E-006	0.00000E+000	5.16577E-006	0.00000E+000	7.51507E-004	-3.27687E+002	7	...........
	546	547	3.39802E+000	1.52051E-006	0.00000E+000	5.16673E-006	0.00000E+000	7.50907E-004	-3.27687E+002	7	...........
	547	548	3.39802E+000	1.52037E-006	0.00000E+000	5.16625E-006	0.00000E+000	7.53490E-004	-3.27687E+002	7	...........
	548	549	3.39801E+000	1.52071E-006	0.00000E+000	5.16739E-006	0.00000E+000	7.51007E-004	-3.27687E+002	7	...........
	549	550	3.39799E+000	1.52081E-006	0.00000E+000	5.16772E-006	0.00000E+000	7.52240E-004	-3.27687E+002	7	...........
	550	551	3.39800E+000	1.52092E-006	0.00000E+000	5.16808E-006	0.00000E+000	7.51790E-004	-3.27687E+002	7	...........
	551	552	3.39799E+000	1.52097E-006	0.00000E+000	5.16824E-006	0.00000E+000	7.51740E-004	-3.27687E+002	7	...........
	552	553	3.39798E+000	1.52046E-006	0.00000E+000	5.16648E-006	0.00000E+000	7.55040E-004	-3.27687E+002	7	...........
	553	554	3.39797E+000	1.52066E-006	0.00000E+000	5.16715E-006	0.00000E+000	7.52257E-004	-3.27687E+002	7	...........
	554	555	3.39797E+000	1.52014E-006	0.00000E+000	5.16540E-006	0.00000E+000	7.53657E-004	-3.27687E+002	7	...........
	555	556	3.39796E+000	1.51999E-006	0.00000E+000	5.16486E-006	0.00000E+000	7.52107E-004	-3.27687E+002	7	...........
	556	557	3.39795E+000	1.52032E-006	0.00000E+000	5.16596E-006	0.00000E+000	7.52690E-004	-3.27687E+002	7	...........
	557	558	3.39795E+000	1.52006E-006	0.00000E+000	5.16509E-006	0.00000E+000	7.54307E-004	-3.27687E+002	7	...........
	558	559	3.39794E+000	1.52032E-006	0.00000E+000	5.16595E-006	0.00000E+000	7.50840E-004	-3.27687E+002	7	...........
	559	560	3.39794E+000	1.52079E-006	0.00000E+000	5.16756E-006	0.00000E+000	7.49690E-004	-3.27687E+002	7	...........
	560	561	3.39793E+000	1.51996E-006	0.00000E+000	5.16470E-006	0.00000E+000	7.51857E-004	-3.27687E+002	7	...........
	561	562	3.39791E+000	1.51984E-006	0.00000E+000	5.16427E-006	0.00000E+000	7.51490E-004	-3.27687E+002	7	...........
	562	563	3.39791E+000	1.51942E-006	0.00000E+000	5.16287E-006	0.00000E+000	7.51374E-004	-3.27687E+002	7	...........
	563	564	3.39791E+000	1.51946E-006	0.00000E+000	5.16299E-006	0.00000E+000	7.53857E-004	-3.27687E+002	7	...........
	564	565	3.39790E+000	1.51939E-006	0.00000E+000	5.16272E-006	0.00000E+000	7.51307E-004	-3.27687E+002	7	...........
	565	566	3.39790E+000	1.52011E-006	0.00000E+000	5.16520E-006	0.00000E+000	7.53090E-004	-3.27687E+002	7	...........
	566	567	3.39789E+000	1.52020E-006	0.00000E+000	5.16548E-006	0.00000E+000	7.49057E-004	-3.27687E+002	7	...........
	567	568	3.39788E+000	1.52037E-006	0.00000E+000	5.16605E-006	0.00000E+000	7.52024E-004	-3.27687E+002	7	...........
	568	569	3.39787E+000	1.52007E-006	0.00000E+000	5.16501E-006	0.00000E+000	7.53374E-004	-3.27687E+002	7	...........
	569	570	3.39787E+000	1.51998E-006	0.00000E+000	5.16469E-006	0.00000E+000	7.47474E-004	-3.27687E+002	7	...........
	570	571	3.39787E+000	1.51971E-006	0.00000E+000	5.16378E-006	0.00000E+000	7.51524E-004	-3.27687E+002	7	...........
	571	572	3.39785E+000	1.51977E-006	0.00000E+000	5.16395E-006	0.00000E+000	7.49357E-004	-3.27687E+002	7	...........
	572	573	3.39785E+000	1.51991E-006	0.00000E+000	5.16445E-006	0.00000E+000	7.50824E-004	-3.27687E+002	7	...........
	573	574	3.39784E+000	1.52060E-006	0.00000E+000	5.16676E-006	0.00000E+000	7.49090E-004	-3.27687E+002	7	...........
	574	575	3.39783E+000	1.52059E-006	0.00000E+000	5.16672E-006	0.00000E+000	7.49057E-004	-3.27687E+002	7	...........
	575	576	3.39783E+000	1.52092E-006	0.00000E+000	5.16784E-006	0.00000E+000	7.48307E-004	-3.27687E+002	7	...........
	576	577	3.39782E+000	1.52140E-006	0.00000E+000	5.16943E-006	0.00000E+000	7.49607E-004	-3.27687E+002	7	...........
	577	578	3.39781E+000	1.51996E-006	0.00000E+000	5.16453E-006	0.00000E+000	7.48124E-004	-3.27687E+002	7	...........
	578	579	3.39781E+000	1.51964E-006	0.00000E+000	5.16345E-006	0.00000E+000	7.49790E-004	-3.27687E+002	7	...........
	579	580	3.39780E+000	1.52003E-006	0.00000E+000	5.16477E-006	0.00000E+000	7.49974E-004	-3.27687E+002	7	...........
	580	581	3.39778E+000	1.52027E-006	0.00000E+000	5.16553E-006	0.00000E+000	7.50274E-004	-3.27687E+002	7	...........
	581	582	3.39778E+000	1.52015E-006	0.00000E+000	5.16513E-006	0.00000E+000	7.50274E-004	-3.27687E+002	7	...........
	582	583	3.39778E+000	1.51991E-006	0.00000E+000	5.16432E-006	0.00000E+000	7.48124E-004	-3.27687E+002	7	...........
	583	584	3.39776E+000	1.51994E-006	0.00000E+000	5.16439E-006	0.00000E+000	7.47657E-004	-3.27687E+002	7	...........
	584	585	3.39776E+000	1.51999E-006	0.00000E+000	5.16455E-006	0.00000E+000	7.46807E-004	-3.27687E+002	7	...........
	585	586	3.39776E+000	1.52004E-006	0.00000E+000	5.16472E-006	0.00000E+000	7.48274E-004	-3.27687E+002	7	...........
	586	587	3.39775E+000	1.51978E-006	0.00000E+000	5.16384E-006	0.00000E+000	7.49357E-004	-3.27687E+002	7	...........
	587	588	3.39774E+000	1.51979E-006	0.00000E+000	5.16385E-006	0.00000E+000	7.49040E-004	-3.27687E+002	7	...........
	588	589	3.39773E+000	1.52015E-006	0.00000E+000	5.16506E-006	0.00000E+000	7.49124E-004	-3.27687E+002	7	...........
	589	590	3.39773E+000	1.52020E-006	0.00000E+000	5.16524E-006	0.00000E+000	7.49924E-004	-3.27687E+002	7	...........
	590	591	3.39773E+000	1.51997E-006	0.00000E+000	5.16445E-006	0.00000E+000	7.48840E-004	-3.27687E+002	7	...........
	591	592	3.39773E+000	1.52017E-006	0.00000E+000	5.16512E-006	0.00000E+000	7.46957E-004	-3.27687E+002	7	...........
	592	593	3.39772E+000	1.52079E-006	0.00000E+000	5.16720E-006	0.00000E+000	7.46824E-004	-3.27687E+002	7	...........
	593	594	3.39772E+000	1.52089E-006	0.00000E+000	5.16755E-006	0.00000E+000	7.49424E-004	-3.27687E+002	7	...........
	594	595	3.39772E+000	1.52015E-006	0.00000E+000	5.16504E-006	0.00000E+000	7.50407E-004	-3.27687E+002	7	...........
	595	596	3.39771E+000	1.52064E-006	0.00000E+000	5.16670E-006	0.00000E+000	7.48557E-004	-3.27687E+002	7	...........
	596	597	3.39771E+000	1.52081E-006	0.00000E+000	5.16726E-006	0.00000E+000	7.49807E-004	-3.27687E+002	7	...........
	597	598	3.39770E+000	1.52052E-006	0.00000E+000	5.16627E-006	0.00000E+000	7.48124E-004	-3.27687E+002	7	...........
	598	599	3.39769E+000	1.52072E-006	0.00000E+000	5.16693E-006	0.00000E+000	7.47090E-004	-3.27687E+002	7	...........
	599	600	3.39769E+000	1.52030E-006	0.00000E+000	5.16552E-006	0.00000E+000	7.48340E-004	-3.27687E+002	7	...........
