EXPLAIN
TAG	PWR800_READVOLTAGE
TITLE	LABEL	PWR Read Voltage	Test Identifier
DATE	LABEL	22.4.2024	Date
TIME	LABEL	15:03:55	Time
NOTES	NOTES	1	Notes...
	
PSTAT	PSTAT	REF600-12055	Potentiostat
CAPACITY	QUANT	1.00000E+000	Capacity (A-hr)
CELLTYPE	SELECTOR	1	Cell Type
WORKINGCONNECTION	SELECTOR	0	Working Connection
MAXTIME	VARIABLEANDUNITS	6.00000E+002	s	6.00000E+002	second(s)	Max Time
SAMPLETIME	QUANT	1.00000E+000	Sample Period (s)
STOPAT1	MULTIPARAM	0	0.00000E+000	Stop At 1	None	N/A
STOPAT2	MULTIPARAM	0	0.00000E+000	Stop At 2	None	N/A
AESBHCSELECTOR	TOGGLE	F	Save Both Half Cells
EOC	QUANT	3.573321	Open Circuit (V)
SEQUENCER	TOGGLE	TRUE	Run as Sequence
PSTATMODEL	IQUANT	4	Pstat Model
PSTATSECTION	LABEL	REF600-12055	Pstat Section
PSTATSERIALNO	LABEL	12055	Pstat Serial Number
CTRLMODE	IQUANT	0	Control Mode
ELECTROMETER	IQUANT	0	RE=0 or CS=1
IESTAB	IQUANT	0	I/E Stability
CASPEED	IQUANT	4	Control Amp Speed
CONVENTION	IQUANT	1	Current Convention
ICHRANGE	IQUANT	2	Ich Range
ICHRANGEMODE	TOGGLE	T	Ich Auto Range
ICHOFFSETENABLE	TOGGLE	F	Ich Offset Enable
ICHOFFSET	QUANT	0	Ich Offset (V)
ICHFILTER	IQUANT	1	Ich Filter
VCHRANGE	IQUANT	3	Vch Range
VCHRANGEMODE	TOGGLE	T	Vch Auto Range
VCHOFFSETENABLE	TOGGLE	F	Vch Offset Enable
VCHOFFSET	QUANT	0	Vch Offset (V)
VCHFILTER	IQUANT	1	Vch Filter
ACHRANGE	IQUANT	2	Ach Range
ACHOFFSETENABLE	TOGGLE	F	Ach Offset Enable
ACHOFFSET	QUANT	0	Ach Offset (V)
ACHFILTER	IQUANT	1	Ach Filter
IERANGELOWERLIMIT	IQUANT	7	I/E Range Lower Limit
IERANGEMODE	TOGGLE	F	I/E AutoRange
IERANGE	IQUANT	11	I/E Range
POSFEEDENABLE	TOGGLE	F	Positive Feedback IR Comp
POSFEEDRESISTANCE	QUANT	0	Positive Feedback Resistance (ohm)
ACHSELECT	IQUANT	4	Ach Select
SENSECABLEID	IQUANT	14	Sense Cable ID
PWRCABLEID	IQUANT	14	Power Cable ID
DCCALDATE	LABEL	2/12/2024	DC Calibration Date
ACCALDATE	LABEL	2/12/2024	AC Calibration Date
THERMOSELECT	IQUANT	1	Thermo Select
FRAMEWORKVERSION	LABEL	7.10.3	Framework Version
INSTRUMENTVERSION	LABEL	4.91	Instrument Version
COMMVERSION	LABEL	2.24	Communications Version
CPUPLDVERSION	LABEL	0.00	CPU PLD Version
CTRLPLDVERSION	LABEL	0.00	CTRL PLD Version
PSTATPLDVERSION	LABEL	0.00	PSTAT PLD Version
CURVE	TABLE	600
	Pt	T	Vf	Im	Vu	Pwr	Sig	Ach	Temp	IERange	Over
	#	s	V	A	V	W	V	V	deg C	#	bits
	0	1	3.64275E+000	1.13349E-006	0.00000E+000	4.12903E-006	0.00000E+000	1.00822E-003	-3.27687E+002	7	...........
	1	2	3.64252E+000	1.13486E-006	0.00000E+000	4.13374E-006	0.00000E+000	1.00511E-003	-3.27687E+002	7	...........
	2	3	3.64231E+000	1.13424E-006	0.00000E+000	4.13126E-006	0.00000E+000	1.00072E-003	-3.27687E+002	7	...........
	3	4	3.64211E+000	1.13454E-006	0.00000E+000	4.13213E-006	0.00000E+000	1.00312E-003	-3.27687E+002	7	...........
	4	5	3.64191E+000	1.13439E-006	0.00000E+000	4.13133E-006	0.00000E+000	1.00282E-003	-3.27687E+002	7	...........
	5	6	3.64172E+000	1.13429E-006	0.00000E+000	4.13076E-006	0.00000E+000	1.00424E-003	-3.27687E+002	7	...........
	6	7	3.64155E+000	1.13420E-006	0.00000E+000	4.13023E-006	0.00000E+000	1.00384E-003	-3.27687E+002	7	...........
	7	8	3.64141E+000	1.13439E-006	0.00000E+000	4.13077E-006	0.00000E+000	1.00407E-003	-3.27687E+002	7	...........
	8	9	3.64128E+000	1.13451E-006	0.00000E+000	4.13107E-006	0.00000E+000	1.00672E-003	-3.27687E+002	7	...........
	9	10	3.64117E+000	1.13541E-006	0.00000E+000	4.13422E-006	0.00000E+000	1.00456E-003	-3.27687E+002	7	...........
	10	11	3.64109E+000	1.13572E-006	0.00000E+000	4.13525E-006	0.00000E+000	1.00102E-003	-3.27687E+002	7	...........
	11	12	3.64102E+000	1.13559E-006	0.00000E+000	4.13470E-006	0.00000E+000	1.00437E-003	-3.27687E+002	7	...........
	12	13	3.64096E+000	1.13485E-006	0.00000E+000	4.13195E-006	0.00000E+000	1.00301E-003	-3.27687E+002	7	...........
	13	14	3.64090E+000	1.13561E-006	0.00000E+000	4.13464E-006	0.00000E+000	1.00206E-003	-3.27687E+002	7	...........
	14	15	3.64086E+000	1.13537E-006	0.00000E+000	4.13372E-006	0.00000E+000	1.00317E-003	-3.27687E+002	7	...........
	15	16	3.64082E+000	1.13524E-006	0.00000E+000	4.13322E-006	0.00000E+000	1.00152E-003	-3.27687E+002	7	...........
	16	17	3.64078E+000	1.13542E-006	0.00000E+000	4.13380E-006	0.00000E+000	9.98357E-004	-3.27687E+002	7	...........
	17	18	3.64074E+000	1.13546E-006	0.00000E+000	4.13390E-006	0.00000E+000	9.98624E-004	-3.27687E+002	7	...........
	18	19	3.64071E+000	1.13578E-006	0.00000E+000	4.13503E-006	0.00000E+000	9.99840E-004	-3.27687E+002	7	...........
	19	20	3.64067E+000	1.13623E-006	0.00000E+000	4.13663E-006	0.00000E+000	1.00056E-003	-3.27687E+002	7	...........
	20	21	3.64063E+000	1.13582E-006	0.00000E+000	4.13508E-006	0.00000E+000	8.02007E-004	-3.27687E+002	7	...........
	21	22	3.64058E+000	1.13563E-006	0.00000E+000	4.13437E-006	0.00000E+000	7.12957E-004	-3.27687E+002	7	...........
	22	23	3.64054E+000	1.13573E-006	0.00000E+000	4.13467E-006	0.00000E+000	7.09757E-004	-3.27687E+002	7	...........
	23	24	3.64049E+000	1.13508E-006	0.00000E+000	4.13226E-006	0.00000E+000	7.08457E-004	-3.27687E+002	7	...........
	24	25	3.64044E+000	1.13517E-006	0.00000E+000	4.13250E-006	0.00000E+000	7.08090E-004	-3.27687E+002	7	...........
	25	26	3.64038E+000	1.13544E-006	0.00000E+000	4.13341E-006	0.00000E+000	7.07824E-004	-3.27687E+002	7	...........
	26	27	3.64032E+000	1.13598E-006	0.00000E+000	4.13533E-006	0.00000E+000	7.07057E-004	-3.27687E+002	7	...........
	27	28	3.64026E+000	1.13690E-006	0.00000E+000	4.13860E-006	0.00000E+000	7.09674E-004	-3.27687E+002	7	...........
	28	29	3.64021E+000	1.13668E-006	0.00000E+000	4.13776E-006	0.00000E+000	7.08324E-004	-3.27687E+002	7	...........
	29	30	3.64013E+000	1.13626E-006	0.00000E+000	4.13615E-006	0.00000E+000	7.04857E-004	-3.27687E+002	7	...........
	30	31	3.64009E+000	1.13684E-006	0.00000E+000	4.13820E-006	0.00000E+000	7.06040E-004	-3.27687E+002	7	...........
	31	32	3.64004E+000	1.13633E-006	0.00000E+000	4.13629E-006	0.00000E+000	7.05657E-004	-3.27687E+002	7	...........
	32	33	3.63998E+000	1.13664E-006	0.00000E+000	4.13735E-006	0.00000E+000	7.07090E-004	-3.27687E+002	7	...........
	33	34	3.63992E+000	1.13707E-006	0.00000E+000	4.13886E-006	0.00000E+000	7.06707E-004	-3.27687E+002	7	...........
	34	35	3.63988E+000	1.13678E-006	0.00000E+000	4.13772E-006	0.00000E+000	7.05224E-004	-3.27687E+002	7	...........
	35	36	3.63983E+000	1.13697E-006	0.00000E+000	4.13837E-006	0.00000E+000	7.06240E-004	-3.27687E+002	7	...........
	36	37	3.63978E+000	1.13657E-006	0.00000E+000	4.13686E-006	0.00000E+000	7.08457E-004	-3.27687E+002	7	...........
	37	38	3.63974E+000	1.13657E-006	0.00000E+000	4.13683E-006	0.00000E+000	7.06290E-004	-3.27687E+002	7	...........
	38	39	3.63970E+000	1.13643E-006	0.00000E+000	4.13628E-006	0.00000E+000	7.06490E-004	-3.27687E+002	7	...........
	39	40	3.63966E+000	1.13636E-006	0.00000E+000	4.13598E-006	0.00000E+000	7.08640E-004	-3.27687E+002	7	...........
	40	41	3.63964E+000	1.13649E-006	0.00000E+000	4.13640E-006	0.00000E+000	7.08407E-004	-3.27687E+002	7	...........
	41	42	3.63960E+000	1.13588E-006	0.00000E+000	4.13414E-006	0.00000E+000	7.07757E-004	-3.27687E+002	7	...........
	42	43	3.63958E+000	1.13672E-006	0.00000E+000	4.13716E-006	0.00000E+000	7.07224E-004	-3.27687E+002	7	...........
	43	44	3.63955E+000	1.13678E-006	0.00000E+000	4.13738E-006	0.00000E+000	7.07774E-004	-3.27687E+002	7	...........
	44	45	3.63952E+000	1.13734E-006	0.00000E+000	4.13936E-006	0.00000E+000	7.06024E-004	-3.27687E+002	7	...........
	45	46	3.63949E+000	1.13793E-006	0.00000E+000	4.14148E-006	0.00000E+000	7.06590E-004	-3.27687E+002	7	...........
	46	47	3.63947E+000	1.13675E-006	0.00000E+000	4.13718E-006	0.00000E+000	7.07024E-004	-3.27687E+002	7	...........
	47	48	3.63944E+000	1.13724E-006	0.00000E+000	4.13892E-006	0.00000E+000	7.05957E-004	-3.27687E+002	7	...........
	48	49	3.63941E+000	1.13712E-006	0.00000E+000	4.13846E-006	0.00000E+000	7.07124E-004	-3.27687E+002	7	...........
	49	50	3.63938E+000	1.13764E-006	0.00000E+000	4.14030E-006	0.00000E+000	7.04840E-004	-3.27687E+002	7	...........
	50	51	3.63936E+000	1.13792E-006	0.00000E+000	4.14129E-006	0.00000E+000	7.04007E-004	-3.27687E+002	7	...........
	51	52	3.63933E+000	1.13802E-006	0.00000E+000	4.14162E-006	0.00000E+000	7.02174E-004	-3.27687E+002	7	...........
	52	53	3.63930E+000	1.13778E-006	0.00000E+000	4.14071E-006	0.00000E+000	7.02524E-004	-3.27687E+002	7	...........
	53	54	3.63927E+000	1.13800E-006	0.00000E+000	4.14147E-006	0.00000E+000	7.05007E-004	-3.27687E+002	7	...........
	54	55	3.63923E+000	1.13776E-006	0.00000E+000	4.14056E-006	0.00000E+000	7.01840E-004	-3.27687E+002	7	...........
	55	56	3.63920E+000	1.13720E-006	0.00000E+000	4.13849E-006	0.00000E+000	7.04674E-004	-3.27687E+002	7	...........
	56	57	3.63917E+000	1.13798E-006	0.00000E+000	4.14131E-006	0.00000E+000	7.05524E-004	-3.27687E+002	7	...........
	57	58	3.63914E+000	1.13790E-006	0.00000E+000	4.14096E-006	0.00000E+000	7.00890E-004	-3.27687E+002	7	...........
	58	59	3.63910E+000	1.13791E-006	0.00000E+000	4.14099E-006	0.00000E+000	7.01557E-004	-3.27687E+002	7	...........
	59	60	3.63906E+000	1.13811E-006	0.00000E+000	4.14164E-006	0.00000E+000	6.99924E-004	-3.27687E+002	7	...........
	60	61	3.63903E+000	1.13839E-006	0.00000E+000	4.14262E-006	0.00000E+000	7.03924E-004	-3.27687E+002	7	...........
	61	62	3.63900E+000	1.13884E-006	0.00000E+000	4.14425E-006	0.00000E+000	7.02090E-004	-3.27687E+002	7	...........
	62	63	3.63897E+000	1.13905E-006	0.00000E+000	4.14495E-006	0.00000E+000	7.03990E-004	-3.27687E+002	7	...........
	63	64	3.63893E+000	1.13900E-006	0.00000E+000	4.14475E-006	0.00000E+000	7.03674E-004	-3.27687E+002	7	...........
	64	65	3.63891E+000	1.13863E-006	0.00000E+000	4.14338E-006	0.00000E+000	7.03174E-004	-3.27687E+002	7	...........
	65	66	3.63886E+000	1.13892E-006	0.00000E+000	4.14436E-006	0.00000E+000	7.04440E-004	-3.27687E+002	7	...........
	66	67	3.63883E+000	1.13881E-006	0.00000E+000	4.14394E-006	0.00000E+000	7.04074E-004	-3.27687E+002	7	...........
	67	68	3.63879E+000	1.13936E-006	0.00000E+000	4.14590E-006	0.00000E+000	7.05990E-004	-3.27687E+002	7	...........
	68	69	3.63876E+000	1.13921E-006	0.00000E+000	4.14531E-006	0.00000E+000	7.06924E-004	-3.27687E+002	7	...........
	69	70	3.63872E+000	1.13911E-006	0.00000E+000	4.14489E-006	0.00000E+000	7.05524E-004	-3.27687E+002	7	...........
	70	71	3.63868E+000	1.13923E-006	0.00000E+000	4.14528E-006	0.00000E+000	7.07907E-004	-3.27687E+002	7	...........
	71	72	3.63864E+000	1.13907E-006	0.00000E+000	4.14465E-006	0.00000E+000	7.10440E-004	-3.27687E+002	7	...........
	72	73	3.63860E+000	1.13893E-006	0.00000E+000	4.14411E-006	0.00000E+000	7.06590E-004	-3.27687E+002	7	...........
	73	74	3.63857E+000	1.13933E-006	0.00000E+000	4.14552E-006	0.00000E+000	7.10107E-004	-3.27687E+002	7	...........
	74	75	3.63853E+000	1.13863E-006	0.00000E+000	4.14294E-006	0.00000E+000	7.10424E-004	-3.27687E+002	7	...........
	75	76	3.63850E+000	1.13889E-006	0.00000E+000	4.14386E-006	0.00000E+000	7.10407E-004	-3.27687E+002	7	...........
	76	77	3.63847E+000	1.13964E-006	0.00000E+000	4.14655E-006	0.00000E+000	7.11507E-004	-3.27687E+002	7	...........
	77	78	3.63844E+000	1.13968E-006	0.00000E+000	4.14665E-006	0.00000E+000	7.12440E-004	-3.27687E+002	7	...........
	78	79	3.63840E+000	1.13997E-006	0.00000E+000	4.14766E-006	0.00000E+000	7.12390E-004	-3.27687E+002	7	...........
	79	80	3.63838E+000	1.14054E-006	0.00000E+000	4.14971E-006	0.00000E+000	7.11757E-004	-3.27687E+002	7	...........
	80	81	3.63835E+000	1.14018E-006	0.00000E+000	4.14836E-006	0.00000E+000	7.14790E-004	-3.27687E+002	7	...........
	81	82	3.63834E+000	1.14008E-006	0.00000E+000	4.14799E-006	0.00000E+000	7.13774E-004	-3.27687E+002	7	...........
	82	83	3.63830E+000	1.14060E-006	0.00000E+000	4.14986E-006	0.00000E+000	7.15157E-004	-3.27687E+002	7	...........
	83	84	3.63828E+000	1.14067E-006	0.00000E+000	4.15006E-006	0.00000E+000	7.15207E-004	-3.27687E+002	7	...........
	84	85	3.63825E+000	1.14092E-006	0.00000E+000	4.15093E-006	0.00000E+000	7.15524E-004	-3.27687E+002	7	...........
	85	86	3.63823E+000	1.14107E-006	0.00000E+000	4.15148E-006	0.00000E+000	7.13874E-004	-3.27687E+002	7	...........
	86	87	3.63821E+000	1.14057E-006	0.00000E+000	4.14963E-006	0.00000E+000	7.12440E-004	-3.27687E+002	7	...........
	87	88	3.63818E+000	1.14089E-006	0.00000E+000	4.15078E-006	0.00000E+000	7.16690E-004	-3.27687E+002	7	...........
	88	89	3.63816E+000	1.14092E-006	0.00000E+000	4.15083E-006	0.00000E+000	7.17640E-004	-3.27687E+002	7	...........
	89	90	3.63813E+000	1.14144E-006	0.00000E+000	4.15270E-006	0.00000E+000	7.19007E-004	-3.27687E+002	7	...........
	90	91	3.63812E+000	1.14128E-006	0.00000E+000	4.15212E-006	0.00000E+000	7.18940E-004	-3.27687E+002	7	...........
	91	92	3.63810E+000	1.14123E-006	0.00000E+000	4.15192E-006	0.00000E+000	7.16790E-004	-3.27687E+002	7	...........
	92	93	3.63808E+000	1.14111E-006	0.00000E+000	4.15144E-006	0.00000E+000	7.17307E-004	-3.27687E+002	7	...........
	93	94	3.63806E+000	1.14115E-006	0.00000E+000	4.15157E-006	0.00000E+000	7.17024E-004	-3.27687E+002	7	...........
	94	95	3.63805E+000	1.14155E-006	0.00000E+000	4.15303E-006	0.00000E+000	7.19790E-004	-3.27687E+002	7	...........
	95	96	3.63804E+000	1.14199E-006	0.00000E+000	4.15461E-006	0.00000E+000	7.16040E-004	-3.27687E+002	7	...........
	96	97	3.63803E+000	1.14245E-006	0.00000E+000	4.15625E-006	0.00000E+000	7.18640E-004	-3.27687E+002	7	...........
	97	98	3.63801E+000	1.14238E-006	0.00000E+000	4.15597E-006	0.00000E+000	7.15824E-004	-3.27687E+002	7	...........
	98	99	3.63800E+000	1.14190E-006	0.00000E+000	4.15423E-006	0.00000E+000	7.17024E-004	-3.27687E+002	7	...........
	99	100	3.63798E+000	1.14193E-006	0.00000E+000	4.15431E-006	0.00000E+000	7.15890E-004	-3.27687E+002	7	...........
	100	101	3.63797E+000	1.14193E-006	0.00000E+000	4.15430E-006	0.00000E+000	7.14524E-004	-3.27687E+002	7	...........
	101	102	3.63796E+000	1.14165E-006	0.00000E+000	4.15328E-006	0.00000E+000	7.18124E-004	-3.27687E+002	7	...........
	102	103	3.63795E+000	1.14270E-006	0.00000E+000	4.15709E-006	0.00000E+000	7.14974E-004	-3.27687E+002	7	...........
	103	104	3.63794E+000	1.14235E-006	0.00000E+000	4.15579E-006	0.00000E+000	7.17940E-004	-3.27687E+002	7	...........
	104	105	3.63793E+000	1.14264E-006	0.00000E+000	4.15685E-006	0.00000E+000	7.16990E-004	-3.27687E+002	7	...........
	105	106	3.63792E+000	1.14211E-006	0.00000E+000	4.15489E-006	0.00000E+000	7.19407E-004	-3.27687E+002	7	...........
	106	107	3.63790E+000	1.14247E-006	0.00000E+000	4.15618E-006	0.00000E+000	7.15940E-004	-3.27687E+002	7	...........
	107	108	3.63789E+000	1.14259E-006	0.00000E+000	4.15661E-006	0.00000E+000	7.14990E-004	-3.27687E+002	7	...........
	108	109	3.63788E+000	1.14235E-006	0.00000E+000	4.15571E-006	0.00000E+000	7.16024E-004	-3.27687E+002	7	...........
	109	110	3.63787E+000	1.14265E-006	0.00000E+000	4.15681E-006	0.00000E+000	7.16007E-004	-3.27687E+002	7	...........
	110	111	3.63785E+000	1.14231E-006	0.00000E+000	4.15556E-006	0.00000E+000	7.15974E-004	-3.27687E+002	7	...........
	111	112	3.63785E+000	1.14299E-006	0.00000E+000	4.15803E-006	0.00000E+000	7.14157E-004	-3.27687E+002	7	...........
	112	113	3.63783E+000	1.14297E-006	0.00000E+000	4.15792E-006	0.00000E+000	7.16307E-004	-3.27687E+002	7	...........
	113	114	3.63783E+000	1.14308E-006	0.00000E+000	4.15834E-006	0.00000E+000	7.14024E-004	-3.27687E+002	7	...........
	114	115	3.63781E+000	1.14336E-006	0.00000E+000	4.15934E-006	0.00000E+000	7.12907E-004	-3.27687E+002	7	...........
	115	116	3.63780E+000	1.14248E-006	0.00000E+000	4.15612E-006	0.00000E+000	7.11090E-004	-3.27687E+002	7	...........
	116	117	3.63779E+000	1.14290E-006	0.00000E+000	4.15762E-006	0.00000E+000	7.12757E-004	-3.27687E+002	7	...........
	117	118	3.63778E+000	1.14281E-006	0.00000E+000	4.15728E-006	0.00000E+000	7.10824E-004	-3.27687E+002	7	...........
	118	119	3.63776E+000	1.14310E-006	0.00000E+000	4.15831E-006	0.00000E+000	7.11407E-004	-3.27687E+002	7	...........
	119	120	3.63775E+000	1.14277E-006	0.00000E+000	4.15712E-006	0.00000E+000	7.10057E-004	-3.27687E+002	7	...........
	120	121	3.63774E+000	1.14291E-006	0.00000E+000	4.15762E-006	0.00000E+000	7.12174E-004	-3.27687E+002	7	...........
	121	122	3.63773E+000	1.14296E-006	0.00000E+000	4.15777E-006	0.00000E+000	7.13324E-004	-3.27687E+002	7	...........
	122	123	3.63772E+000	1.14280E-006	0.00000E+000	4.15719E-006	0.00000E+000	7.08990E-004	-3.27687E+002	7	...........
	123	124	3.63770E+000	1.14359E-006	0.00000E+000	4.16005E-006	0.00000E+000	7.10240E-004	-3.27687E+002	7	...........
	124	125	3.63769E+000	1.14355E-006	0.00000E+000	4.15989E-006	0.00000E+000	7.08374E-004	-3.27687E+002	7	...........
	125	126	3.63767E+000	1.14354E-006	0.00000E+000	4.15982E-006	0.00000E+000	7.10107E-004	-3.27687E+002	7	...........
	126	127	3.63766E+000	1.14285E-006	0.00000E+000	4.15729E-006	0.00000E+000	7.11940E-004	-3.27687E+002	7	...........
	127	128	3.63765E+000	1.14271E-006	0.00000E+000	4.15678E-006	0.00000E+000	7.11840E-004	-3.27687E+002	7	...........
	128	129	3.63765E+000	1.14262E-006	0.00000E+000	4.15646E-006	0.00000E+000	7.08357E-004	-3.27687E+002	7	...........
	129	130	3.63763E+000	1.14295E-006	0.00000E+000	4.15761E-006	0.00000E+000	7.05574E-004	-3.27687E+002	7	...........
	130	131	3.63762E+000	1.14375E-006	0.00000E+000	4.16052E-006	0.00000E+000	7.06640E-004	-3.27687E+002	7	...........
	131	132	3.63760E+000	1.14407E-006	0.00000E+000	4.16166E-006	0.00000E+000	7.10140E-004	-3.27687E+002	7	...........
	132	133	3.63759E+000	1.14350E-006	0.00000E+000	4.15959E-006	0.00000E+000	7.07690E-004	-3.27687E+002	7	...........
	133	134	3.63758E+000	1.14366E-006	0.00000E+000	4.16017E-006	0.00000E+000	7.04990E-004	-3.27687E+002	7	...........
	134	135	3.63755E+000	1.14357E-006	0.00000E+000	4.15980E-006	0.00000E+000	7.05940E-004	-3.27687E+002	7	...........
	135	136	3.63756E+000	1.14370E-006	0.00000E+000	4.16028E-006	0.00000E+000	7.07974E-004	-3.27687E+002	7	...........
	136	137	3.63754E+000	1.14412E-006	0.00000E+000	4.16179E-006	0.00000E+000	7.05007E-004	-3.27687E+002	7	...........
	137	138	3.63752E+000	1.14388E-006	0.00000E+000	4.16089E-006	0.00000E+000	7.05290E-004	-3.27687E+002	7	...........
	138	139	3.63751E+000	1.14467E-006	0.00000E+000	4.16373E-006	0.00000E+000	7.05974E-004	-3.27687E+002	7	...........
	139	140	3.63749E+000	1.14418E-006	0.00000E+000	4.16196E-006	0.00000E+000	7.03990E-004	-3.27687E+002	7	...........
	140	141	3.63747E+000	1.14399E-006	0.00000E+000	4.16123E-006	0.00000E+000	7.04090E-004	-3.27687E+002	7	...........
	141	142	3.63746E+000	1.14342E-006	0.00000E+000	4.15915E-006	0.00000E+000	7.03674E-004	-3.27687E+002	7	...........
	142	143	3.63745E+000	1.14363E-006	0.00000E+000	4.15990E-006	0.00000E+000	7.04640E-004	-3.27687E+002	7	...........
	143	144	3.63743E+000	1.14356E-006	0.00000E+000	4.15961E-006	0.00000E+000	7.05924E-004	-3.27687E+002	7	...........
	144	145	3.63741E+000	1.14358E-006	0.00000E+000	4.15968E-006	0.00000E+000	7.02857E-004	-3.27687E+002	7	...........
	145	146	3.63740E+000	1.14385E-006	0.00000E+000	4.16063E-006	0.00000E+000	7.04174E-004	-3.27687E+002	7	...........
	146	147	3.63740E+000	1.14378E-006	0.00000E+000	4.16039E-006	0.00000E+000	7.02990E-004	-3.27687E+002	7	...........
	147	148	3.63738E+000	1.14394E-006	0.00000E+000	4.16094E-006	0.00000E+000	7.00407E-004	-3.27687E+002	7	...........
	148	149	3.63737E+000	1.14479E-006	0.00000E+000	4.16404E-006	0.00000E+000	7.02557E-004	-3.27687E+002	7	...........
	149	150	3.63735E+000	1.14437E-006	0.00000E+000	4.16247E-006	0.00000E+000	7.01924E-004	-3.27687E+002	7	...........
	150	151	3.63734E+000	1.14438E-006	0.00000E+000	4.16250E-006	0.00000E+000	7.05374E-004	-3.27687E+002	7	...........
	151	152	3.63731E+000	1.14415E-006	0.00000E+000	4.16165E-006	0.00000E+000	7.03174E-004	-3.27687E+002	7	...........
	152	153	3.63731E+000	1.14434E-006	0.00000E+000	4.16232E-006	0.00000E+000	7.02457E-004	-3.27687E+002	7	...........
	153	154	3.63730E+000	1.14459E-006	0.00000E+000	4.16322E-006	0.00000E+000	7.02407E-004	-3.27687E+002	7	...........
	154	155	3.63728E+000	1.14461E-006	0.00000E+000	4.16329E-006	0.00000E+000	7.05874E-004	-3.27687E+002	7	...........
	155	156	3.63726E+000	1.14500E-006	0.00000E+000	4.16465E-006	0.00000E+000	7.07024E-004	-3.27687E+002	7	...........
	156	157	3.63725E+000	1.14482E-006	0.00000E+000	4.16400E-006	0.00000E+000	7.03157E-004	-3.27687E+002	7	...........
	157	158	3.63724E+000	1.14434E-006	0.00000E+000	4.16223E-006	0.00000E+000	7.01890E-004	-3.27687E+002	7	...........
	158	159	3.63721E+000	1.14428E-006	0.00000E+000	4.16199E-006	0.00000E+000	7.02124E-004	-3.27687E+002	7	...........
	159	160	3.63721E+000	1.14440E-006	0.00000E+000	4.16244E-006	0.00000E+000	7.05190E-004	-3.27687E+002	7	...........
	160	161	3.63719E+000	1.14398E-006	0.00000E+000	4.16088E-006	0.00000E+000	7.05840E-004	-3.27687E+002	7	...........
	161	162	3.63718E+000	1.14414E-006	0.00000E+000	4.16143E-006	0.00000E+000	7.06240E-004	-3.27687E+002	7	...........
	162	163	3.63718E+000	1.14388E-006	0.00000E+000	4.16050E-006	0.00000E+000	7.05990E-004	-3.27687E+002	7	...........
	163	164	3.63716E+000	1.14460E-006	0.00000E+000	4.16310E-006	0.00000E+000	7.06840E-004	-3.27687E+002	7	...........
	164	165	3.63715E+000	1.14510E-006	0.00000E+000	4.16490E-006	0.00000E+000	7.05190E-004	-3.27687E+002	7	...........
	165	166	3.63712E+000	1.14534E-006	0.00000E+000	4.16576E-006	0.00000E+000	7.07557E-004	-3.27687E+002	7	...........
	166	167	3.63713E+000	1.14561E-006	0.00000E+000	4.16672E-006	0.00000E+000	7.06490E-004	-3.27687E+002	7	...........
	167	168	3.63712E+000	1.14502E-006	0.00000E+000	4.16458E-006	0.00000E+000	7.08740E-004	-3.27687E+002	7	...........
	168	169	3.63710E+000	1.14480E-006	0.00000E+000	4.16377E-006	0.00000E+000	7.08957E-004	-3.27687E+002	7	...........
	169	170	3.63708E+000	1.14453E-006	0.00000E+000	4.16276E-006	0.00000E+000	7.07174E-004	-3.27687E+002	7	...........
	170	171	3.63706E+000	1.14487E-006	0.00000E+000	4.16396E-006	0.00000E+000	7.03024E-004	-3.27687E+002	7	...........
	171	172	3.63707E+000	1.14460E-006	0.00000E+000	4.16299E-006	0.00000E+000	7.05690E-004	-3.27687E+002	7	...........
	172	173	3.63705E+000	1.14534E-006	0.00000E+000	4.16567E-006	0.00000E+000	7.08157E-004	-3.27687E+002	7	...........
	173	174	3.63704E+000	1.14521E-006	0.00000E+000	4.16516E-006	0.00000E+000	7.11124E-004	-3.27687E+002	7	...........
	174	175	3.63702E+000	1.14530E-006	0.00000E+000	4.16547E-006	0.00000E+000	7.08840E-004	-3.27687E+002	7	...........
	175	176	3.63700E+000	1.14570E-006	0.00000E+000	4.16693E-006	0.00000E+000	7.11524E-004	-3.27687E+002	7	...........
	176	177	3.63700E+000	1.14509E-006	0.00000E+000	4.16467E-006	0.00000E+000	7.08807E-004	-3.27687E+002	7	...........
	177	178	3.63697E+000	1.14520E-006	0.00000E+000	4.16507E-006	0.00000E+000	7.10507E-004	-3.27687E+002	7	...........
	178	179	3.63697E+000	1.14532E-006	0.00000E+000	4.16550E-006	0.00000E+000	7.10307E-004	-3.27687E+002	7	...........
	179	180	3.63696E+000	1.14472E-006	0.00000E+000	4.16328E-006	0.00000E+000	7.09874E-004	-3.27687E+002	7	...........
	180	181	3.63694E+000	1.14530E-006	0.00000E+000	4.16538E-006	0.00000E+000	7.11624E-004	-3.27687E+002	7	...........
	181	182	3.63694E+000	1.14550E-006	0.00000E+000	4.16612E-006	0.00000E+000	7.11824E-004	-3.27687E+002	7	...........
	182	183	3.63692E+000	1.14573E-006	0.00000E+000	4.16695E-006	0.00000E+000	7.13190E-004	-3.27687E+002	7	...........
	183	184	3.63690E+000	1.14632E-006	0.00000E+000	4.16905E-006	0.00000E+000	7.12740E-004	-3.27687E+002	7	...........
	184	185	3.63690E+000	1.14521E-006	0.00000E+000	4.16500E-006	0.00000E+000	7.16190E-004	-3.27687E+002	7	...........
	185	186	3.63690E+000	1.14552E-006	0.00000E+000	4.16613E-006	0.00000E+000	7.10440E-004	-3.27687E+002	7	...........
	186	187	3.63689E+000	1.14546E-006	0.00000E+000	4.16590E-006	0.00000E+000	7.14290E-004	-3.27687E+002	7	...........
	187	188	3.63688E+000	1.14576E-006	0.00000E+000	4.16700E-006	0.00000E+000	7.12357E-004	-3.27687E+002	7	...........
	188	189	3.63687E+000	1.14609E-006	0.00000E+000	4.16817E-006	0.00000E+000	7.12940E-004	-3.27687E+002	7	...........
	189	190	3.63685E+000	1.14603E-006	0.00000E+000	4.16793E-006	0.00000E+000	7.13790E-004	-3.27687E+002	7	...........
	190	191	3.63684E+000	1.14646E-006	0.00000E+000	4.16948E-006	0.00000E+000	7.14457E-004	-3.27687E+002	7	...........
	191	192	3.63684E+000	1.14607E-006	0.00000E+000	4.16805E-006	0.00000E+000	7.16290E-004	-3.27687E+002	7	...........
	192	193	3.63683E+000	1.14615E-006	0.00000E+000	4.16833E-006	0.00000E+000	7.13774E-004	-3.27687E+002	7	...........
	193	194	3.63682E+000	1.14611E-006	0.00000E+000	4.16820E-006	0.00000E+000	7.13724E-004	-3.27687E+002	7	...........
	194	195	3.63680E+000	1.14597E-006	0.00000E+000	4.16766E-006	0.00000E+000	7.15390E-004	-3.27687E+002	7	...........
	195	196	3.63679E+000	1.14623E-006	0.00000E+000	4.16861E-006	0.00000E+000	7.16040E-004	-3.27687E+002	7	...........
	196	197	3.63679E+000	1.14569E-006	0.00000E+000	4.16661E-006	0.00000E+000	7.16340E-004	-3.27687E+002	7	...........
	197	198	3.63678E+000	1.14602E-006	0.00000E+000	4.16782E-006	0.00000E+000	7.13990E-004	-3.27687E+002	7	...........
	198	199	3.63677E+000	1.14648E-006	0.00000E+000	4.16949E-006	0.00000E+000	7.16990E-004	-3.27687E+002	7	...........
	199	200	3.63677E+000	1.14659E-006	0.00000E+000	4.16990E-006	0.00000E+000	7.13207E-004	-3.27687E+002	7	...........
	200	201	3.63676E+000	1.14675E-006	0.00000E+000	4.17044E-006	0.00000E+000	7.15390E-004	-3.27687E+002	7	...........
	201	202	3.63674E+000	1.14684E-006	0.00000E+000	4.17077E-006	0.00000E+000	7.15774E-004	-3.27687E+002	7	...........
	202	203	3.63673E+000	1.14656E-006	0.00000E+000	4.16973E-006	0.00000E+000	7.15807E-004	-3.27687E+002	7	...........
	203	204	3.63671E+000	1.14667E-006	0.00000E+000	4.17010E-006	0.00000E+000	7.16240E-004	-3.27687E+002	7	...........
	204	205	3.63671E+000	1.14677E-006	0.00000E+000	4.17045E-006	0.00000E+000	7.19390E-004	-3.27687E+002	7	...........
	205	206	3.63670E+000	1.14675E-006	0.00000E+000	4.17040E-006	0.00000E+000	7.21240E-004	-3.27687E+002	7	...........
	206	207	3.63669E+000	1.14702E-006	0.00000E+000	4.17136E-006	0.00000E+000	7.20374E-004	-3.27687E+002	7	...........
	207	208	3.63669E+000	1.14687E-006	0.00000E+000	4.17083E-006	0.00000E+000	7.18824E-004	-3.27687E+002	7	...........
	208	209	3.63668E+000	1.14731E-006	0.00000E+000	4.17242E-006	0.00000E+000	7.21507E-004	-3.27687E+002	7	...........
	209	210	3.63667E+000	1.14719E-006	0.00000E+000	4.17195E-006	0.00000E+000	7.18507E-004	-3.27687E+002	7	...........
	210	211	3.63666E+000	1.14709E-006	0.00000E+000	4.17159E-006	0.00000E+000	7.18457E-004	-3.27687E+002	7	...........
	211	212	3.63665E+000	1.14671E-006	0.00000E+000	4.17018E-006	0.00000E+000	7.19107E-004	-3.27687E+002	7	...........
	212	213	3.63664E+000	1.14615E-006	0.00000E+000	4.16814E-006	0.00000E+000	7.20607E-004	-3.27687E+002	7	...........
	213	214	3.63663E+000	1.14642E-006	0.00000E+000	4.16910E-006	0.00000E+000	7.17407E-004	-3.27687E+002	7	...........
	214	215	3.63662E+000	1.14624E-006	0.00000E+000	4.16842E-006	0.00000E+000	7.19407E-004	-3.27687E+002	7	...........
	215	216	3.63662E+000	1.14681E-006	0.00000E+000	4.17053E-006	0.00000E+000	7.21107E-004	-3.27687E+002	7	...........
	216	217	3.63662E+000	1.14677E-006	0.00000E+000	4.17037E-006	0.00000E+000	7.18924E-004	-3.27687E+002	7	...........
	217	218	3.63661E+000	1.14746E-006	0.00000E+000	4.17286E-006	0.00000E+000	7.18607E-004	-3.27687E+002	7	...........
	218	219	3.63660E+000	1.14761E-006	0.00000E+000	4.17339E-006	0.00000E+000	7.21840E-004	-3.27687E+002	7	...........
	219	220	3.63660E+000	1.14711E-006	0.00000E+000	4.17159E-006	0.00000E+000	7.20274E-004	-3.27687E+002	7	...........
	220	221	3.63659E+000	1.14684E-006	0.00000E+000	4.17059E-006	0.00000E+000	7.20990E-004	-3.27687E+002	7	...........
	221	222	3.63658E+000	1.14694E-006	0.00000E+000	4.17094E-006	0.00000E+000	7.22624E-004	-3.27687E+002	7	...........
	222	223	3.63658E+000	1.14712E-006	0.00000E+000	4.17161E-006	0.00000E+000	7.21074E-004	-3.27687E+002	7	...........
	223	224	3.63657E+000	1.14733E-006	0.00000E+000	4.17235E-006	0.00000E+000	7.19057E-004	-3.27687E+002	7	...........
	224	225	3.63656E+000	1.14789E-006	0.00000E+000	4.17436E-006	0.00000E+000	7.18190E-004	-3.27687E+002	7	...........
	225	226	3.63656E+000	1.14779E-006	0.00000E+000	4.17402E-006	0.00000E+000	7.20124E-004	-3.27687E+002	7	...........
	226	227	3.63654E+000	1.14803E-006	0.00000E+000	4.17486E-006	0.00000E+000	7.22890E-004	-3.27687E+002	7	...........
	227	228	3.63654E+000	1.14788E-006	0.00000E+000	4.17433E-006	0.00000E+000	7.22707E-004	-3.27687E+002	7	...........
	228	229	3.63654E+000	1.14731E-006	0.00000E+000	4.17224E-006	0.00000E+000	7.18940E-004	-3.27687E+002	7	...........
	229	230	3.63654E+000	1.14722E-006	0.00000E+000	4.17191E-006	0.00000E+000	7.20640E-004	-3.27687E+002	7	...........
	230	231	3.63653E+000	1.14743E-006	0.00000E+000	4.17265E-006	0.00000E+000	7.21924E-004	-3.27687E+002	7	...........
	231	232	3.63652E+000	1.14757E-006	0.00000E+000	4.17317E-006	0.00000E+000	7.21324E-004	-3.27687E+002	7	...........
	232	233	3.63651E+000	1.14784E-006	0.00000E+000	4.17412E-006	0.00000E+000	7.21124E-004	-3.27687E+002	7	...........
	233	234	3.63650E+000	1.14778E-006	0.00000E+000	4.17391E-006	0.00000E+000	7.22157E-004	-3.27687E+002	7	...........
	234	235	3.63651E+000	1.14890E-006	0.00000E+000	4.17798E-006	0.00000E+000	7.20774E-004	-3.27687E+002	7	...........
	235	236	3.63649E+000	1.14893E-006	0.00000E+000	4.17808E-006	0.00000E+000	7.19374E-004	-3.27687E+002	7	...........
	236	237	3.63649E+000	1.14824E-006	0.00000E+000	4.17557E-006	0.00000E+000	7.21407E-004	-3.27687E+002	7	...........
	237	238	3.63648E+000	1.14827E-006	0.00000E+000	4.17568E-006	0.00000E+000	7.20657E-004	-3.27687E+002	7	...........
	238	239	3.63647E+000	1.14827E-006	0.00000E+000	4.17564E-006	0.00000E+000	7.18890E-004	-3.27687E+002	7	...........
	239	240	3.63647E+000	1.14808E-006	0.00000E+000	4.17494E-006	0.00000E+000	7.21407E-004	-3.27687E+002	7	...........
	240	241	3.63645E+000	1.14845E-006	0.00000E+000	4.17628E-006	0.00000E+000	7.20440E-004	-3.27687E+002	7	...........
	241	242	3.63645E+000	1.14832E-006	0.00000E+000	4.17581E-006	0.00000E+000	7.17090E-004	-3.27687E+002	7	...........
	242	243	3.63645E+000	1.14813E-006	0.00000E+000	4.17510E-006	0.00000E+000	7.17990E-004	-3.27687E+002	7	...........
	243	244	3.63646E+000	1.14823E-006	0.00000E+000	4.17549E-006	0.00000E+000	7.22574E-004	-3.27687E+002	7	...........
	244	245	3.63643E+000	1.14786E-006	0.00000E+000	4.17410E-006	0.00000E+000	7.22007E-004	-3.27687E+002	7	...........
	245	246	3.63643E+000	1.14784E-006	0.00000E+000	4.17405E-006	0.00000E+000	7.23474E-004	-3.27687E+002	7	...........
	246	247	3.63643E+000	1.14762E-006	0.00000E+000	4.17325E-006	0.00000E+000	7.18857E-004	-3.27687E+002	7	...........
	247	248	3.63642E+000	1.14756E-006	0.00000E+000	4.17300E-006	0.00000E+000	7.24007E-004	-3.27687E+002	7	...........
	248	249	3.63642E+000	1.14761E-006	0.00000E+000	4.17319E-006	0.00000E+000	7.24907E-004	-3.27687E+002	7	...........
	249	250	3.63641E+000	1.14808E-006	0.00000E+000	4.17488E-006	0.00000E+000	7.24940E-004	-3.27687E+002	7	...........
	250	251	3.63641E+000	1.14861E-006	0.00000E+000	4.17682E-006	0.00000E+000	7.21274E-004	-3.27687E+002	7	...........
	251	252	3.63641E+000	1.14867E-006	0.00000E+000	4.17702E-006	0.00000E+000	7.22940E-004	-3.27687E+002	7	...........
	252	253	3.63640E+000	1.14911E-006	0.00000E+000	4.17864E-006	0.00000E+000	7.21424E-004	-3.27687E+002	7	...........
	253	254	3.63639E+000	1.14856E-006	0.00000E+000	4.17660E-006	0.00000E+000	7.22157E-004	-3.27687E+002	7	...........
	254	255	3.63638E+000	1.14849E-006	0.00000E+000	4.17635E-006	0.00000E+000	7.21240E-004	-3.27687E+002	7	...........
	255	256	3.63638E+000	1.14810E-006	0.00000E+000	4.17492E-006	0.00000E+000	7.17240E-004	-3.27687E+002	7	...........
	256	257	3.63637E+000	1.14808E-006	0.00000E+000	4.17484E-006	0.00000E+000	7.20574E-004	-3.27687E+002	7	...........
	257	258	3.63636E+000	1.14810E-006	0.00000E+000	4.17492E-006	0.00000E+000	7.18907E-004	-3.27687E+002	7	...........
	258	259	3.63636E+000	1.14842E-006	0.00000E+000	4.17606E-006	0.00000E+000	7.21357E-004	-3.27687E+002	7	...........
	259	260	3.63635E+000	1.14854E-006	0.00000E+000	4.17648E-006	0.00000E+000	7.19057E-004	-3.27687E+002	7	...........
	260	261	3.63635E+000	1.14832E-006	0.00000E+000	4.17568E-006	0.00000E+000	7.20657E-004	-3.27687E+002	7	...........
	261	262	3.63635E+000	1.14847E-006	0.00000E+000	4.17623E-006	0.00000E+000	7.21990E-004	-3.27687E+002	7	...........
	262	263	3.63634E+000	1.14864E-006	0.00000E+000	4.17683E-006	0.00000E+000	7.19857E-004	-3.27687E+002	7	...........
	263	264	3.63633E+000	1.14853E-006	0.00000E+000	4.17644E-006	0.00000E+000	7.21224E-004	-3.27687E+002	7	...........
	264	265	3.63633E+000	1.14820E-006	0.00000E+000	4.17523E-006	0.00000E+000	7.19640E-004	-3.27687E+002	7	...........
	265	266	3.63633E+000	1.14782E-006	0.00000E+000	4.17385E-006	0.00000E+000	7.23274E-004	-3.27687E+002	7	...........
	266	267	3.63632E+000	1.14804E-006	0.00000E+000	4.17462E-006	0.00000E+000	7.22574E-004	-3.27687E+002	7	...........
	267	268	3.63632E+000	1.14866E-006	0.00000E+000	4.17691E-006	0.00000E+000	7.17124E-004	-3.27687E+002	7	...........
	268	269	3.63631E+000	1.14923E-006	0.00000E+000	4.17897E-006	0.00000E+000	7.19040E-004	-3.27687E+002	7	...........
	269	270	3.63631E+000	1.14976E-006	0.00000E+000	4.18089E-006	0.00000E+000	7.17107E-004	-3.27687E+002	7	...........
	270	271	3.63630E+000	1.14872E-006	0.00000E+000	4.17710E-006	0.00000E+000	7.18740E-004	-3.27687E+002	7	...........
	271	272	3.63629E+000	1.14834E-006	0.00000E+000	4.17569E-006	0.00000E+000	7.19107E-004	-3.27687E+002	7	...........
	272	273	3.63629E+000	1.14838E-006	0.00000E+000	4.17584E-006	0.00000E+000	7.19257E-004	-3.27687E+002	7	...........
	273	274	3.63628E+000	1.14850E-006	0.00000E+000	4.17627E-006	0.00000E+000	7.17757E-004	-3.27687E+002	7	...........
	274	275	3.63628E+000	1.14860E-006	0.00000E+000	4.17665E-006	0.00000E+000	7.18090E-004	-3.27687E+002	7	...........
	275	276	3.63628E+000	1.14871E-006	0.00000E+000	4.17703E-006	0.00000E+000	7.15657E-004	-3.27687E+002	7	...........
	276	277	3.63628E+000	1.14848E-006	0.00000E+000	4.17620E-006	0.00000E+000	7.20624E-004	-3.27687E+002	7	...........
	277	278	3.63628E+000	1.14877E-006	0.00000E+000	4.17727E-006	0.00000E+000	7.19307E-004	-3.27687E+002	7	...........
	278	279	3.63626E+000	1.14844E-006	0.00000E+000	4.17603E-006	0.00000E+000	7.17374E-004	-3.27687E+002	7	...........
	279	280	3.63626E+000	1.14820E-006	0.00000E+000	4.17516E-006	0.00000E+000	7.14940E-004	-3.27687E+002	7	...........
	280	281	3.63626E+000	1.14857E-006	0.00000E+000	4.17650E-006	0.00000E+000	7.18924E-004	-3.27687E+002	7	...........
	281	282	3.63626E+000	1.14842E-006	0.00000E+000	4.17594E-006	0.00000E+000	7.16157E-004	-3.27687E+002	7	...........
	282	283	3.63625E+000	1.14806E-006	0.00000E+000	4.17462E-006	0.00000E+000	7.19707E-004	-3.27687E+002	7	...........
	283	284	3.63624E+000	1.14825E-006	0.00000E+000	4.17533E-006	0.00000E+000	7.20140E-004	-3.27687E+002	7	...........
	284	285	3.63624E+000	1.14870E-006	0.00000E+000	4.17694E-006	0.00000E+000	7.18890E-004	-3.27687E+002	7	...........
	285	286	3.63623E+000	1.14922E-006	0.00000E+000	4.17881E-006	0.00000E+000	7.17324E-004	-3.27687E+002	7	...........
	286	287	3.63623E+000	1.14932E-006	0.00000E+000	4.17918E-006	0.00000E+000	7.16624E-004	-3.27687E+002	7	...........
	287	288	3.63622E+000	1.14849E-006	0.00000E+000	4.17616E-006	0.00000E+000	7.16757E-004	-3.27687E+002	7	...........
	288	289	3.63622E+000	1.14810E-006	0.00000E+000	4.17474E-006	0.00000E+000	7.17107E-004	-3.27687E+002	7	...........
	289	290	3.63621E+000	1.14809E-006	0.00000E+000	4.17469E-006	0.00000E+000	7.17974E-004	-3.27687E+002	7	...........
	290	291	3.63621E+000	1.14809E-006	0.00000E+000	4.17471E-006	0.00000E+000	7.20007E-004	-3.27687E+002	7	...........
	291	292	3.63620E+000	1.14856E-006	0.00000E+000	4.17638E-006	0.00000E+000	7.16840E-004	-3.27687E+002	7	...........
	292	293	3.63620E+000	1.14886E-006	0.00000E+000	4.17750E-006	0.00000E+000	7.17807E-004	-3.27687E+002	7	...........
	293	294	3.63619E+000	1.14879E-006	0.00000E+000	4.17721E-006	0.00000E+000	7.16890E-004	-3.27687E+002	7	...........
	294	295	3.63619E+000	1.14891E-006	0.00000E+000	4.17765E-006	0.00000E+000	7.16057E-004	-3.27687E+002	7	...........
	295	296	3.63618E+000	1.14854E-006	0.00000E+000	4.17630E-006	0.00000E+000	7.18124E-004	-3.27687E+002	7	...........
	296	297	3.63618E+000	1.14834E-006	0.00000E+000	4.17558E-006	0.00000E+000	7.15607E-004	-3.27687E+002	7	...........
	297	298	3.63616E+000	1.14832E-006	0.00000E+000	4.17546E-006	0.00000E+000	7.18124E-004	-3.27687E+002	7	...........
	298	299	3.63616E+000	1.14823E-006	0.00000E+000	4.17514E-006	0.00000E+000	7.16174E-004	-3.27687E+002	7	...........
	299	300	3.63616E+000	1.14810E-006	0.00000E+000	4.17469E-006	0.00000E+000	7.15074E-004	-3.27687E+002	7	...........
	300	301	3.63616E+000	1.14810E-006	0.00000E+000	4.17467E-006	0.00000E+000	7.17874E-004	-3.27687E+002	7	...........
	301	302	3.63616E+000	1.14844E-006	0.00000E+000	4.17590E-006	0.00000E+000	7.17390E-004	-3.27687E+002	7	...........
	302	303	3.63615E+000	1.14845E-006	0.00000E+000	4.17595E-006	0.00000E+000	7.12224E-004	-3.27687E+002	7	...........
	303	304	3.63614E+000	1.14956E-006	0.00000E+000	4.17997E-006	0.00000E+000	7.15207E-004	-3.27687E+002	7	...........
	304	305	3.63613E+000	1.14955E-006	0.00000E+000	4.17992E-006	0.00000E+000	7.18790E-004	-3.27687E+002	7	...........
	305	306	3.63613E+000	1.14875E-006	0.00000E+000	4.17700E-006	0.00000E+000	7.18040E-004	-3.27687E+002	7	...........
	306	307	3.63613E+000	1.14901E-006	0.00000E+000	4.17794E-006	0.00000E+000	7.16407E-004	-3.27687E+002	7	...........
	307	308	3.63612E+000	1.14913E-006	0.00000E+000	4.17837E-006	0.00000E+000	7.14874E-004	-3.27687E+002	7	...........
	308	309	3.63611E+000	1.14916E-006	0.00000E+000	4.17849E-006	0.00000E+000	7.14357E-004	-3.27687E+002	7	...........
	309	310	3.63612E+000	1.14891E-006	0.00000E+000	4.17755E-006	0.00000E+000	7.17474E-004	-3.27687E+002	7	...........
	310	311	3.63611E+000	1.14900E-006	0.00000E+000	4.17787E-006	0.00000E+000	7.15507E-004	-3.27687E+002	7	...........
	311	312	3.63611E+000	1.14879E-006	0.00000E+000	4.17711E-006	0.00000E+000	7.15840E-004	-3.27687E+002	7	...........
	312	313	3.63610E+000	1.14859E-006	0.00000E+000	4.17640E-006	0.00000E+000	7.15307E-004	-3.27687E+002	7	...........
	313	314	3.63610E+000	1.14835E-006	0.00000E+000	4.17551E-006	0.00000E+000	7.15057E-004	-3.27687E+002	7	...........
	314	315	3.63609E+000	1.14852E-006	0.00000E+000	4.17613E-006	0.00000E+000	7.14257E-004	-3.27687E+002	7	...........
	315	316	3.63609E+000	1.14875E-006	0.00000E+000	4.17695E-006	0.00000E+000	7.15657E-004	-3.27687E+002	7	...........
	316	317	3.63609E+000	1.14848E-006	0.00000E+000	4.17599E-006	0.00000E+000	7.16074E-004	-3.27687E+002	7	...........
	317	318	3.63607E+000	1.14824E-006	0.00000E+000	4.17509E-006	0.00000E+000	7.17124E-004	-3.27687E+002	7	...........
	318	319	3.63607E+000	1.14836E-006	0.00000E+000	4.17552E-006	0.00000E+000	7.13607E-004	-3.27687E+002	7	...........
	319	320	3.63607E+000	1.14897E-006	0.00000E+000	4.17772E-006	0.00000E+000	7.15490E-004	-3.27687E+002	7	...........
	320	321	3.63606E+000	1.14893E-006	0.00000E+000	4.17756E-006	0.00000E+000	7.11357E-004	-3.27687E+002	7	...........
	321	322	3.63604E+000	1.14934E-006	0.00000E+000	4.17905E-006	0.00000E+000	7.16090E-004	-3.27687E+002	7	...........
	322	323	3.63605E+000	1.14883E-006	0.00000E+000	4.17721E-006	0.00000E+000	7.15440E-004	-3.27687E+002	7	...........
	323	324	3.63605E+000	1.14947E-006	0.00000E+000	4.17954E-006	0.00000E+000	7.13907E-004	-3.27687E+002	7	...........
	324	325	3.63604E+000	1.14908E-006	0.00000E+000	4.17809E-006	0.00000E+000	7.14574E-004	-3.27687E+002	7	...........
	325	326	3.63603E+000	1.14920E-006	0.00000E+000	4.17853E-006	0.00000E+000	7.15307E-004	-3.27687E+002	7	...........
	326	327	3.63603E+000	1.14904E-006	0.00000E+000	4.17793E-006	0.00000E+000	7.12407E-004	-3.27687E+002	7	...........
	327	328	3.63603E+000	1.14906E-006	0.00000E+000	4.17800E-006	0.00000E+000	7.14440E-004	-3.27687E+002	7	...........
	328	329	3.63603E+000	1.14915E-006	0.00000E+000	4.17836E-006	0.00000E+000	7.14140E-004	-3.27687E+002	7	...........
	329	330	3.63602E+000	1.14916E-006	0.00000E+000	4.17836E-006	0.00000E+000	7.13857E-004	-3.27687E+002	7	...........
	330	331	3.63601E+000	1.14882E-006	0.00000E+000	4.17712E-006	0.00000E+000	7.14574E-004	-3.27687E+002	7	...........
	331	332	3.63601E+000	1.14905E-006	0.00000E+000	4.17796E-006	0.00000E+000	7.14057E-004	-3.27687E+002	7	...........
	332	333	3.63600E+000	1.14899E-006	0.00000E+000	4.17772E-006	0.00000E+000	7.16024E-004	-3.27687E+002	7	...........
	333	334	3.63600E+000	1.14892E-006	0.00000E+000	4.17746E-006	0.00000E+000	7.13607E-004	-3.27687E+002	7	...........
	334	335	3.63600E+000	1.14912E-006	0.00000E+000	4.17820E-006	0.00000E+000	7.12074E-004	-3.27687E+002	7	...........
	335	336	3.63600E+000	1.14903E-006	0.00000E+000	4.17787E-006	0.00000E+000	7.13957E-004	-3.27687E+002	7	...........
	336	337	3.63598E+000	1.14954E-006	0.00000E+000	4.17970E-006	0.00000E+000	7.13240E-004	-3.27687E+002	7	...........
	337	338	3.63598E+000	1.14986E-006	0.00000E+000	4.18087E-006	0.00000E+000	7.11574E-004	-3.27687E+002	7	...........
	338	339	3.63597E+000	1.15030E-006	0.00000E+000	4.18244E-006	0.00000E+000	7.12774E-004	-3.27687E+002	7	...........
	339	340	3.63596E+000	1.14976E-006	0.00000E+000	4.18048E-006	0.00000E+000	7.10724E-004	-3.27687E+002	7	...........
	340	341	3.63596E+000	1.14897E-006	0.00000E+000	4.17762E-006	0.00000E+000	7.14624E-004	-3.27687E+002	7	...........
	341	342	3.63596E+000	1.14970E-006	0.00000E+000	4.18027E-006	0.00000E+000	7.13807E-004	-3.27687E+002	7	...........
	342	343	3.63595E+000	1.14951E-006	0.00000E+000	4.17956E-006	0.00000E+000	7.15757E-004	-3.27687E+002	7	...........
	343	344	3.63595E+000	1.14935E-006	0.00000E+000	4.17896E-006	0.00000E+000	7.15224E-004	-3.27687E+002	7	...........
	344	345	3.63594E+000	1.14968E-006	0.00000E+000	4.18019E-006	0.00000E+000	7.14957E-004	-3.27687E+002	7	...........
	345	346	3.63594E+000	1.14994E-006	0.00000E+000	4.18112E-006	0.00000E+000	7.12407E-004	-3.27687E+002	7	...........
	346	347	3.63594E+000	1.14980E-006	0.00000E+000	4.18061E-006	0.00000E+000	7.13307E-004	-3.27687E+002	7	...........
	347	348	3.63593E+000	1.14989E-006	0.00000E+000	4.18093E-006	0.00000E+000	7.14107E-004	-3.27687E+002	7	...........
	348	349	3.63594E+000	1.14975E-006	0.00000E+000	4.18043E-006	0.00000E+000	7.12090E-004	-3.27687E+002	7	...........
	349	350	3.63593E+000	1.14966E-006	0.00000E+000	4.18011E-006	0.00000E+000	7.14174E-004	-3.27687E+002	7	...........
	350	351	3.63592E+000	1.14983E-006	0.00000E+000	4.18069E-006	0.00000E+000	7.11140E-004	-3.27687E+002	7	...........
	351	352	3.63592E+000	1.14946E-006	0.00000E+000	4.17935E-006	0.00000E+000	7.13507E-004	-3.27687E+002	7	...........
	352	353	3.63590E+000	1.14977E-006	0.00000E+000	4.18045E-006	0.00000E+000	7.13224E-004	-3.27687E+002	7	...........
	353	354	3.63591E+000	1.14985E-006	0.00000E+000	4.18073E-006	0.00000E+000	7.13874E-004	-3.27687E+002	7	...........
	354	355	3.63590E+000	1.15008E-006	0.00000E+000	4.18156E-006	0.00000E+000	7.11774E-004	-3.27687E+002	7	...........
	355	356	3.63589E+000	1.15109E-006	0.00000E+000	4.18525E-006	0.00000E+000	7.13724E-004	-3.27687E+002	7	...........
	356	357	3.63589E+000	1.15020E-006	0.00000E+000	4.18200E-006	0.00000E+000	7.14624E-004	-3.27687E+002	7	...........
	357	358	3.63587E+000	1.15001E-006	0.00000E+000	4.18130E-006	0.00000E+000	7.13490E-004	-3.27687E+002	7	...........
	358	359	3.63587E+000	1.15016E-006	0.00000E+000	4.18183E-006	0.00000E+000	7.14624E-004	-3.27687E+002	7	...........
	359	360	3.63586E+000	1.14968E-006	0.00000E+000	4.18010E-006	0.00000E+000	7.10490E-004	-3.27687E+002	7	...........
	360	361	3.63586E+000	1.15019E-006	0.00000E+000	4.18192E-006	0.00000E+000	7.10774E-004	-3.27687E+002	7	...........
	361	362	3.63586E+000	1.15042E-006	0.00000E+000	4.18275E-006	0.00000E+000	7.11757E-004	-3.27687E+002	7	...........
	362	363	3.63586E+000	1.15017E-006	0.00000E+000	4.18186E-006	0.00000E+000	7.13807E-004	-3.27687E+002	7	...........
	363	364	3.63585E+000	1.14974E-006	0.00000E+000	4.18026E-006	0.00000E+000	7.10024E-004	-3.27687E+002	7	...........
	364	365	3.63585E+000	1.14968E-006	0.00000E+000	4.18006E-006	0.00000E+000	7.11607E-004	-3.27687E+002	7	...........
	365	366	3.63584E+000	1.14992E-006	0.00000E+000	4.18091E-006	0.00000E+000	7.14440E-004	-3.27687E+002	7	...........
	366	367	3.63584E+000	1.14964E-006	0.00000E+000	4.17989E-006	0.00000E+000	7.14640E-004	-3.27687E+002	7	...........
	367	368	3.63584E+000	1.14949E-006	0.00000E+000	4.17935E-006	0.00000E+000	7.12557E-004	-3.27687E+002	7	...........
	368	369	3.63583E+000	1.14915E-006	0.00000E+000	4.17812E-006	0.00000E+000	7.13607E-004	-3.27687E+002	7	...........
	369	370	3.63582E+000	1.14949E-006	0.00000E+000	4.17936E-006	0.00000E+000	7.09274E-004	-3.27687E+002	7	...........
	370	371	3.63582E+000	1.14931E-006	0.00000E+000	4.17869E-006	0.00000E+000	7.10157E-004	-3.27687E+002	7	...........
	371	372	3.63581E+000	1.14887E-006	0.00000E+000	4.17706E-006	0.00000E+000	7.11790E-004	-3.27687E+002	7	...........
	372	373	3.63580E+000	1.14973E-006	0.00000E+000	4.18017E-006	0.00000E+000	7.14507E-004	-3.27687E+002	7	...........
	373	374	3.63580E+000	1.14981E-006	0.00000E+000	4.18050E-006	0.00000E+000	7.13557E-004	-3.27687E+002	7	...........
	374	375	3.63579E+000	1.14941E-006	0.00000E+000	4.17902E-006	0.00000E+000	7.10990E-004	-3.27687E+002	7	...........
	375	376	3.63578E+000	1.14944E-006	0.00000E+000	4.17911E-006	0.00000E+000	7.12640E-004	-3.27687E+002	7	...........
	376	377	3.63578E+000	1.14951E-006	0.00000E+000	4.17937E-006	0.00000E+000	7.13624E-004	-3.27687E+002	7	...........
	377	378	3.63577E+000	1.14927E-006	0.00000E+000	4.17847E-006	0.00000E+000	7.12574E-004	-3.27687E+002	7	...........
	378	379	3.63577E+000	1.14923E-006	0.00000E+000	4.17834E-006	0.00000E+000	7.14507E-004	-3.27687E+002	7	...........
	379	380	3.63577E+000	1.14907E-006	0.00000E+000	4.17776E-006	0.00000E+000	7.13440E-004	-3.27687E+002	7	...........
	380	381	3.63576E+000	1.14946E-006	0.00000E+000	4.17916E-006	0.00000E+000	7.13924E-004	-3.27687E+002	7	...........
	381	382	3.63576E+000	1.14936E-006	0.00000E+000	4.17880E-006	0.00000E+000	7.14474E-004	-3.27687E+002	7	...........
	382	383	3.63576E+000	1.14967E-006	0.00000E+000	4.17993E-006	0.00000E+000	7.12307E-004	-3.27687E+002	7	...........
	383	384	3.63576E+000	1.14909E-006	0.00000E+000	4.17781E-006	0.00000E+000	7.15207E-004	-3.27687E+002	7	...........
	384	385	3.63575E+000	1.14896E-006	0.00000E+000	4.17734E-006	0.00000E+000	7.15957E-004	-3.27687E+002	7	...........
	385	386	3.63575E+000	1.14908E-006	0.00000E+000	4.17775E-006	0.00000E+000	7.13674E-004	-3.27687E+002	7	...........
	386	387	3.63575E+000	1.14888E-006	0.00000E+000	4.17705E-006	0.00000E+000	7.14507E-004	-3.27687E+002	7	...........
	387	388	3.63574E+000	1.14956E-006	0.00000E+000	4.17950E-006	0.00000E+000	7.15424E-004	-3.27687E+002	7	...........
	388	389	3.63573E+000	1.14940E-006	0.00000E+000	4.17890E-006	0.00000E+000	7.15324E-004	-3.27687E+002	7	...........
	389	390	3.63572E+000	1.14978E-006	0.00000E+000	4.18026E-006	0.00000E+000	7.13274E-004	-3.27687E+002	7	...........
	390	391	3.63572E+000	1.14993E-006	0.00000E+000	4.18081E-006	0.00000E+000	7.14574E-004	-3.27687E+002	7	...........
	391	392	3.63572E+000	1.14953E-006	0.00000E+000	4.17938E-006	0.00000E+000	7.13840E-004	-3.27687E+002	7	...........
	392	393	3.63571E+000	1.14943E-006	0.00000E+000	4.17900E-006	0.00000E+000	7.14974E-004	-3.27687E+002	7	...........
	393	394	3.63571E+000	1.14915E-006	0.00000E+000	4.17798E-006	0.00000E+000	7.15474E-004	-3.27687E+002	7	...........
	394	395	3.63570E+000	1.14930E-006	0.00000E+000	4.17851E-006	0.00000E+000	7.18390E-004	-3.27687E+002	7	...........
	395	396	3.63570E+000	1.14958E-006	0.00000E+000	4.17954E-006	0.00000E+000	7.14840E-004	-3.27687E+002	7	...........
	396	397	3.63569E+000	1.14956E-006	0.00000E+000	4.17943E-006	0.00000E+000	7.16190E-004	-3.27687E+002	7	...........
	397	398	3.63570E+000	1.14944E-006	0.00000E+000	4.17901E-006	0.00000E+000	7.15224E-004	-3.27687E+002	7	...........
	398	399	3.63570E+000	1.14938E-006	0.00000E+000	4.17880E-006	0.00000E+000	7.14874E-004	-3.27687E+002	7	...........
	399	400	3.63569E+000	1.14970E-006	0.00000E+000	4.17996E-006	0.00000E+000	7.15307E-004	-3.27687E+002	7	...........
	400	401	3.63568E+000	1.14955E-006	0.00000E+000	4.17941E-006	0.00000E+000	7.16424E-004	-3.27687E+002	7	...........
	401	402	3.63567E+000	1.14956E-006	0.00000E+000	4.17944E-006	0.00000E+000	7.09857E-004	-3.27687E+002	7	...........
	402	403	3.63569E+000	1.14914E-006	0.00000E+000	4.17793E-006	0.00000E+000	7.10657E-004	-3.27687E+002	7	...........
	403	404	3.63568E+000	1.14937E-006	0.00000E+000	4.17874E-006	0.00000E+000	7.12174E-004	-3.27687E+002	7	...........
	404	405	3.63567E+000	1.14935E-006	0.00000E+000	4.17868E-006	0.00000E+000	7.14990E-004	-3.27687E+002	7	...........
	405	406	3.63566E+000	1.14951E-006	0.00000E+000	4.17925E-006	0.00000E+000	7.11524E-004	-3.27687E+002	7	...........
	406	407	3.63565E+000	1.15062E-006	0.00000E+000	4.18324E-006	0.00000E+000	7.15924E-004	-3.27687E+002	7	...........
	407	408	3.63564E+000	1.15082E-006	0.00000E+000	4.18398E-006	0.00000E+000	7.16890E-004	-3.27687E+002	7	...........
	408	409	3.63565E+000	1.14962E-006	0.00000E+000	4.17962E-006	0.00000E+000	7.14524E-004	-3.27687E+002	7	...........
	409	410	3.63565E+000	1.14930E-006	0.00000E+000	4.17844E-006	0.00000E+000	7.12840E-004	-3.27687E+002	7	...........
	410	411	3.63564E+000	1.14946E-006	0.00000E+000	4.17902E-006	0.00000E+000	7.17574E-004	-3.27687E+002	7	...........
	411	412	3.63563E+000	1.14937E-006	0.00000E+000	4.17868E-006	0.00000E+000	7.17990E-004	-3.27687E+002	7	...........
	412	413	3.63562E+000	1.14942E-006	0.00000E+000	4.17885E-006	0.00000E+000	7.16007E-004	-3.27687E+002	7	...........
	413	414	3.63563E+000	1.14964E-006	0.00000E+000	4.17968E-006	0.00000E+000	7.16507E-004	-3.27687E+002	7	...........
	414	415	3.63562E+000	1.14975E-006	0.00000E+000	4.18004E-006	0.00000E+000	7.16390E-004	-3.27687E+002	7	...........
	415	416	3.63560E+000	1.14958E-006	0.00000E+000	4.17941E-006	0.00000E+000	7.13407E-004	-3.27687E+002	7	...........
	416	417	3.63561E+000	1.15000E-006	0.00000E+000	4.18094E-006	0.00000E+000	7.16157E-004	-3.27687E+002	7	...........
	417	418	3.63561E+000	1.14955E-006	0.00000E+000	4.17932E-006	0.00000E+000	7.16290E-004	-3.27687E+002	7	...........
	418	419	3.63560E+000	1.14975E-006	0.00000E+000	4.18003E-006	0.00000E+000	7.18524E-004	-3.27687E+002	7	...........
	419	420	3.63560E+000	1.14979E-006	0.00000E+000	4.18019E-006	0.00000E+000	7.17474E-004	-3.27687E+002	7	...........
	420	421	3.63561E+000	1.14921E-006	0.00000E+000	4.17806E-006	0.00000E+000	7.14224E-004	-3.27687E+002	7	...........
	421	422	3.63559E+000	1.14933E-006	0.00000E+000	4.17848E-006	0.00000E+000	7.18340E-004	-3.27687E+002	7	...........
	422	423	3.63558E+000	1.14978E-006	0.00000E+000	4.18012E-006	0.00000E+000	7.19657E-004	-3.27687E+002	7	...........
	423	424	3.63558E+000	1.15008E-006	0.00000E+000	4.18120E-006	0.00000E+000	7.19824E-004	-3.27687E+002	7	...........
	424	425	3.63558E+000	1.15066E-006	0.00000E+000	4.18330E-006	0.00000E+000	7.17340E-004	-3.27687E+002	7	...........
	425	426	3.63558E+000	1.15002E-006	0.00000E+000	4.18100E-006	0.00000E+000	7.16307E-004	-3.27687E+002	7	...........
	426	427	3.63556E+000	1.14963E-006	0.00000E+000	4.17955E-006	0.00000E+000	7.19424E-004	-3.27687E+002	7	...........
	427	428	3.63556E+000	1.14932E-006	0.00000E+000	4.17844E-006	0.00000E+000	7.17157E-004	-3.27687E+002	7	...........
	428	429	3.63556E+000	1.14955E-006	0.00000E+000	4.17926E-006	0.00000E+000	7.18057E-004	-3.27687E+002	7	...........
	429	430	3.63556E+000	1.14963E-006	0.00000E+000	4.17956E-006	0.00000E+000	7.18724E-004	-3.27687E+002	7	...........
	430	431	3.63556E+000	1.14991E-006	0.00000E+000	4.18057E-006	0.00000E+000	7.17224E-004	-3.27687E+002	7	...........
	431	432	3.63555E+000	1.15016E-006	0.00000E+000	4.18145E-006	0.00000E+000	7.17707E-004	-3.27687E+002	7	...........
	432	433	3.63556E+000	1.14995E-006	0.00000E+000	4.18071E-006	0.00000E+000	7.17507E-004	-3.27687E+002	7	...........
	433	434	3.63554E+000	1.14997E-006	0.00000E+000	4.18078E-006	0.00000E+000	7.18357E-004	-3.27687E+002	7	...........
	434	435	3.63552E+000	1.14997E-006	0.00000E+000	4.18072E-006	0.00000E+000	7.21257E-004	-3.27687E+002	7	...........
	435	436	3.63553E+000	1.14979E-006	0.00000E+000	4.18008E-006	0.00000E+000	7.19090E-004	-3.27687E+002	7	...........
	436	437	3.63553E+000	1.15009E-006	0.00000E+000	4.18120E-006	0.00000E+000	7.21507E-004	-3.27687E+002	7	...........
	437	438	3.63553E+000	1.15000E-006	0.00000E+000	4.18088E-006	0.00000E+000	7.19707E-004	-3.27687E+002	7	...........
	438	439	3.63553E+000	1.15035E-006	0.00000E+000	4.18214E-006	0.00000E+000	7.20140E-004	-3.27687E+002	7	...........
	439	440	3.63553E+000	1.15012E-006	0.00000E+000	4.18128E-006	0.00000E+000	7.21607E-004	-3.27687E+002	7	...........
	440	441	3.63553E+000	1.15038E-006	0.00000E+000	4.18225E-006	0.00000E+000	7.18557E-004	-3.27687E+002	7	...........
	441	442	3.63552E+000	1.15080E-006	0.00000E+000	4.18377E-006	0.00000E+000	7.17557E-004	-3.27687E+002	7	...........
	442	443	3.63551E+000	1.15022E-006	0.00000E+000	4.18164E-006	0.00000E+000	7.19557E-004	-3.27687E+002	7	...........
	443	444	3.63551E+000	1.15012E-006	0.00000E+000	4.18128E-006	0.00000E+000	7.21357E-004	-3.27687E+002	7	...........
	444	445	3.63550E+000	1.15061E-006	0.00000E+000	4.18303E-006	0.00000E+000	7.22774E-004	-3.27687E+002	7	...........
	445	446	3.63549E+000	1.15007E-006	0.00000E+000	4.18106E-006	0.00000E+000	7.20140E-004	-3.27687E+002	7	...........
	446	447	3.63549E+000	1.15014E-006	0.00000E+000	4.18133E-006	0.00000E+000	7.21740E-004	-3.27687E+002	7	...........
	447	448	3.63548E+000	1.15002E-006	0.00000E+000	4.18087E-006	0.00000E+000	7.19207E-004	-3.27687E+002	7	...........
	448	449	3.63549E+000	1.15000E-006	0.00000E+000	4.18082E-006	0.00000E+000	7.19057E-004	-3.27687E+002	7	...........
	449	450	3.63549E+000	1.15014E-006	0.00000E+000	4.18132E-006	0.00000E+000	7.21924E-004	-3.27687E+002	7	...........
	450	451	3.63548E+000	1.14980E-006	0.00000E+000	4.18009E-006	0.00000E+000	7.19340E-004	-3.27687E+002	7	...........
	451	452	3.63548E+000	1.14991E-006	0.00000E+000	4.18047E-006	0.00000E+000	7.20590E-004	-3.27687E+002	7	...........
	452	453	3.63548E+000	1.14980E-006	0.00000E+000	4.18009E-006	0.00000E+000	7.20657E-004	-3.27687E+002	7	...........
	453	454	3.63548E+000	1.14948E-006	0.00000E+000	4.17890E-006	0.00000E+000	7.20224E-004	-3.27687E+002	7	...........
	454	455	3.63547E+000	1.14946E-006	0.00000E+000	4.17881E-006	0.00000E+000	7.21407E-004	-3.27687E+002	7	...........
	455	456	3.63548E+000	1.14969E-006	0.00000E+000	4.17967E-006	0.00000E+000	7.18740E-004	-3.27687E+002	7	...........
	456	457	3.63547E+000	1.14958E-006	0.00000E+000	4.17927E-006	0.00000E+000	7.23007E-004	-3.27687E+002	7	...........
	457	458	3.63546E+000	1.15017E-006	0.00000E+000	4.18141E-006	0.00000E+000	7.19240E-004	-3.27687E+002	7	...........
	458	459	3.63545E+000	1.15027E-006	0.00000E+000	4.18176E-006	0.00000E+000	7.22890E-004	-3.27687E+002	7	...........
	459	460	3.63545E+000	1.15015E-006	0.00000E+000	4.18131E-006	0.00000E+000	7.22040E-004	-3.27687E+002	7	...........
	460	461	3.63544E+000	1.14958E-006	0.00000E+000	4.17923E-006	0.00000E+000	7.22774E-004	-3.27687E+002	7	...........
	461	462	3.63543E+000	1.15025E-006	0.00000E+000	4.18167E-006	0.00000E+000	7.22024E-004	-3.27687E+002	7	...........
	462	463	3.63543E+000	1.14963E-006	0.00000E+000	4.17941E-006	0.00000E+000	7.21507E-004	-3.27687E+002	7	...........
	463	464	3.63543E+000	1.15010E-006	0.00000E+000	4.18112E-006	0.00000E+000	7.23374E-004	-3.27687E+002	7	...........
	464	465	3.63543E+000	1.14981E-006	0.00000E+000	4.18007E-006	0.00000E+000	7.21607E-004	-3.27687E+002	7	...........
	465	466	3.63543E+000	1.14992E-006	0.00000E+000	4.18046E-006	0.00000E+000	7.22657E-004	-3.27687E+002	7	...........
	466	467	3.63541E+000	1.14981E-006	0.00000E+000	4.18003E-006	0.00000E+000	7.25624E-004	-3.27687E+002	7	...........
	467	468	3.63541E+000	1.15001E-006	0.00000E+000	4.18074E-006	0.00000E+000	7.23674E-004	-3.27687E+002	7	...........
	468	469	3.63542E+000	1.14944E-006	0.00000E+000	4.17869E-006	0.00000E+000	7.26074E-004	-3.27687E+002	7	...........
	469	470	3.63541E+000	1.14935E-006	0.00000E+000	4.17835E-006	0.00000E+000	7.24257E-004	-3.27687E+002	7	...........
	470	471	3.63541E+000	1.14919E-006	0.00000E+000	4.17779E-006	0.00000E+000	7.26107E-004	-3.27687E+002	7	...........
	471	472	3.63539E+000	1.14925E-006	0.00000E+000	4.17796E-006	0.00000E+000	7.21857E-004	-3.27687E+002	7	...........
	472	473	3.63539E+000	1.14912E-006	0.00000E+000	4.17749E-006	0.00000E+000	7.26157E-004	-3.27687E+002	7	...........
	473	474	3.63539E+000	1.14907E-006	0.00000E+000	4.17732E-006	0.00000E+000	7.22724E-004	-3.27687E+002	7	...........
	474	475	3.63538E+000	1.14964E-006	0.00000E+000	4.17937E-006	0.00000E+000	7.23740E-004	-3.27687E+002	7	...........
	475	476	3.63536E+000	1.15013E-006	0.00000E+000	4.18115E-006	0.00000E+000	7.25990E-004	-3.27687E+002	7	...........
	476	477	3.63537E+000	1.15013E-006	0.00000E+000	4.18115E-006	0.00000E+000	7.24824E-004	-3.27687E+002	7	...........
	477	478	3.63536E+000	1.14972E-006	0.00000E+000	4.17966E-006	0.00000E+000	7.25974E-004	-3.27687E+002	7	...........
	478	479	3.63536E+000	1.15001E-006	0.00000E+000	4.18069E-006	0.00000E+000	7.25340E-004	-3.27687E+002	7	...........
	479	480	3.63536E+000	1.14989E-006	0.00000E+000	4.18025E-006	0.00000E+000	7.23724E-004	-3.27687E+002	7	...........
	480	481	3.63537E+000	1.15035E-006	0.00000E+000	4.18195E-006	0.00000E+000	7.25357E-004	-3.27687E+002	7	...........
	481	482	3.63535E+000	1.15026E-006	0.00000E+000	4.18160E-006	0.00000E+000	7.27824E-004	-3.27687E+002	7	...........
	482	483	3.63534E+000	1.15050E-006	0.00000E+000	4.18247E-006	0.00000E+000	7.23840E-004	-3.27687E+002	7	...........
	483	484	3.63533E+000	1.15020E-006	0.00000E+000	4.18134E-006	0.00000E+000	7.26124E-004	-3.27687E+002	7	...........
	484	485	3.63533E+000	1.15067E-006	0.00000E+000	4.18305E-006	0.00000E+000	7.23174E-004	-3.27687E+002	7	...........
	485	486	3.63533E+000	1.15036E-006	0.00000E+000	4.18194E-006	0.00000E+000	7.26940E-004	-3.27687E+002	7	...........
	486	487	3.63534E+000	1.15014E-006	0.00000E+000	4.18115E-006	0.00000E+000	7.26074E-004	-3.27687E+002	7	...........
	487	488	3.63533E+000	1.14950E-006	0.00000E+000	4.17882E-006	0.00000E+000	7.25924E-004	-3.27687E+002	7	...........
	488	489	3.63531E+000	1.14943E-006	0.00000E+000	4.17852E-006	0.00000E+000	7.26840E-004	-3.27687E+002	7	...........
	489	490	3.63531E+000	1.14926E-006	0.00000E+000	4.17790E-006	0.00000E+000	7.25507E-004	-3.27687E+002	7	...........
	490	491	3.63531E+000	1.15017E-006	0.00000E+000	4.18121E-006	0.00000E+000	7.28707E-004	-3.27687E+002	7	...........
	491	492	3.63530E+000	1.15004E-006	0.00000E+000	4.18075E-006	0.00000E+000	7.27640E-004	-3.27687E+002	7	...........
	492	493	3.63529E+000	1.15010E-006	0.00000E+000	4.18097E-006	0.00000E+000	7.25174E-004	-3.27687E+002	7	...........
	493	494	3.63530E+000	1.15038E-006	0.00000E+000	4.18196E-006	0.00000E+000	7.27240E-004	-3.27687E+002	7	...........
	494	495	3.63530E+000	1.14996E-006	0.00000E+000	4.18045E-006	0.00000E+000	7.23940E-004	-3.27687E+002	7	...........
	495	496	3.63530E+000	1.15003E-006	0.00000E+000	4.18072E-006	0.00000E+000	7.24790E-004	-3.27687E+002	7	...........
	496	497	3.63530E+000	1.15025E-006	0.00000E+000	4.18150E-006	0.00000E+000	7.28907E-004	-3.27687E+002	7	...........
	497	498	3.63529E+000	1.15005E-006	0.00000E+000	4.18078E-006	0.00000E+000	7.23590E-004	-3.27687E+002	7	...........
	498	499	3.63530E+000	1.15029E-006	0.00000E+000	4.18165E-006	0.00000E+000	7.28324E-004	-3.27687E+002	7	...........
	499	500	3.63530E+000	1.15046E-006	0.00000E+000	4.18226E-006	0.00000E+000	7.26107E-004	-3.27687E+002	7	...........
	500	501	3.63530E+000	1.15057E-006	0.00000E+000	4.18267E-006	0.00000E+000	7.29007E-004	-3.27687E+002	7	...........
	501	502	3.63529E+000	1.15015E-006	0.00000E+000	4.18112E-006	0.00000E+000	7.24074E-004	-3.27687E+002	7	...........
	502	503	3.63528E+000	1.14990E-006	0.00000E+000	4.18019E-006	0.00000E+000	7.23757E-004	-3.27687E+002	7	...........
	503	504	3.63528E+000	1.15007E-006	0.00000E+000	4.18083E-006	0.00000E+000	7.24157E-004	-3.27687E+002	7	...........
	504	505	3.63527E+000	1.15014E-006	0.00000E+000	4.18106E-006	0.00000E+000	7.27957E-004	-3.27687E+002	7	...........
	505	506	3.63525E+000	1.15045E-006	0.00000E+000	4.18218E-006	0.00000E+000	7.25674E-004	-3.27687E+002	7	...........
	506	507	3.63525E+000	1.15070E-006	0.00000E+000	4.18308E-006	0.00000E+000	7.24840E-004	-3.27687E+002	7	...........
	507	508	3.63525E+000	1.15055E-006	0.00000E+000	4.18254E-006	0.00000E+000	7.29790E-004	-3.27687E+002	7	...........
	508	509	3.63525E+000	1.15069E-006	0.00000E+000	4.18306E-006	0.00000E+000	7.25824E-004	-3.27687E+002	7	...........
	509	510	3.63525E+000	1.15050E-006	0.00000E+000	4.18237E-006	0.00000E+000	7.25740E-004	-3.27687E+002	7	...........
	510	511	3.63525E+000	1.15101E-006	0.00000E+000	4.18420E-006	0.00000E+000	7.24640E-004	-3.27687E+002	7	...........
	511	512	3.63525E+000	1.15069E-006	0.00000E+000	4.18304E-006	0.00000E+000	7.24724E-004	-3.27687E+002	7	...........
	512	513	3.63523E+000	1.15023E-006	0.00000E+000	4.18136E-006	0.00000E+000	7.27857E-004	-3.27687E+002	7	...........
	513	514	3.63522E+000	1.15084E-006	0.00000E+000	4.18358E-006	0.00000E+000	7.29790E-004	-3.27687E+002	7	...........
	514	515	3.63522E+000	1.15035E-006	0.00000E+000	4.18176E-006	0.00000E+000	7.26440E-004	-3.27687E+002	7	...........
	515	516	3.63522E+000	1.15056E-006	0.00000E+000	4.18253E-006	0.00000E+000	7.27690E-004	-3.27687E+002	7	...........
	516	517	3.63521E+000	1.15080E-006	0.00000E+000	4.18339E-006	0.00000E+000	7.28274E-004	-3.27687E+002	7	...........
	517	518	3.63520E+000	1.15036E-006	0.00000E+000	4.18178E-006	0.00000E+000	7.26540E-004	-3.27687E+002	7	...........
	518	519	3.63521E+000	1.15053E-006	0.00000E+000	4.18243E-006	0.00000E+000	7.29907E-004	-3.27687E+002	7	...........
	519	520	3.63520E+000	1.15074E-006	0.00000E+000	4.18318E-006	0.00000E+000	7.29190E-004	-3.27687E+002	7	...........
	520	521	3.63521E+000	1.15070E-006	0.00000E+000	4.18304E-006	0.00000E+000	7.28274E-004	-3.27687E+002	7	...........
	521	522	3.63521E+000	1.14974E-006	0.00000E+000	4.17956E-006	0.00000E+000	7.29824E-004	-3.27687E+002	7	...........
	522	523	3.63520E+000	1.15008E-006	0.00000E+000	4.18077E-006	0.00000E+000	7.29290E-004	-3.27687E+002	7	...........
	523	524	3.63520E+000	1.14973E-006	0.00000E+000	4.17949E-006	0.00000E+000	7.29024E-004	-3.27687E+002	7	...........
	524	525	3.63519E+000	1.14954E-006	0.00000E+000	4.17878E-006	0.00000E+000	7.32524E-004	-3.27687E+002	7	...........
	525	526	3.63519E+000	1.14987E-006	0.00000E+000	4.18000E-006	0.00000E+000	7.27207E-004	-3.27687E+002	7	...........
	526	527	3.63519E+000	1.14962E-006	0.00000E+000	4.17910E-006	0.00000E+000	7.28907E-004	-3.27687E+002	7	...........
	527	528	3.63519E+000	1.15003E-006	0.00000E+000	4.18059E-006	0.00000E+000	7.27257E-004	-3.27687E+002	7	...........
	528	529	3.63518E+000	1.14956E-006	0.00000E+000	4.17885E-006	0.00000E+000	7.27274E-004	-3.27687E+002	7	...........
	529	530	3.63518E+000	1.14935E-006	0.00000E+000	4.17811E-006	0.00000E+000	7.28790E-004	-3.27687E+002	7	...........
	530	531	3.63517E+000	1.14971E-006	0.00000E+000	4.17939E-006	0.00000E+000	7.31590E-004	-3.27687E+002	7	...........
	531	532	3.63517E+000	1.14959E-006	0.00000E+000	4.17895E-006	0.00000E+000	7.29940E-004	-3.27687E+002	7	...........
	532	533	3.63518E+000	1.14962E-006	0.00000E+000	4.17905E-006	0.00000E+000	7.27657E-004	-3.27687E+002	7	...........
	533	534	3.63518E+000	1.15012E-006	0.00000E+000	4.18087E-006	0.00000E+000	7.29574E-004	-3.27687E+002	7	...........
	534	535	3.63517E+000	1.15014E-006	0.00000E+000	4.18094E-006	0.00000E+000	7.27957E-004	-3.27687E+002	7	...........
	535	536	3.63517E+000	1.15005E-006	0.00000E+000	4.18061E-006	0.00000E+000	7.30640E-004	-3.27687E+002	7	...........
	536	537	3.63517E+000	1.14988E-006	0.00000E+000	4.18002E-006	0.00000E+000	7.27407E-004	-3.27687E+002	7	...........
	537	538	3.63516E+000	1.15009E-006	0.00000E+000	4.18075E-006	0.00000E+000	7.28524E-004	-3.27687E+002	7	...........
	538	539	3.63516E+000	1.14989E-006	0.00000E+000	4.18005E-006	0.00000E+000	7.27057E-004	-3.27687E+002	7	...........
	539	540	3.63515E+000	1.14976E-006	0.00000E+000	4.17955E-006	0.00000E+000	7.26674E-004	-3.27687E+002	7	...........
	540	541	3.63515E+000	1.14976E-006	0.00000E+000	4.17956E-006	0.00000E+000	7.27807E-004	-3.27687E+002	7	...........
	541	542	3.63515E+000	1.14962E-006	0.00000E+000	4.17903E-006	0.00000E+000	7.29307E-004	-3.27687E+002	7	...........
	542	543	3.63514E+000	1.14971E-006	0.00000E+000	4.17936E-006	0.00000E+000	7.29740E-004	-3.27687E+002	7	...........
	543	544	3.63513E+000	1.14952E-006	0.00000E+000	4.17866E-006	0.00000E+000	7.27774E-004	-3.27687E+002	7	...........
	544	545	3.63513E+000	1.14976E-006	0.00000E+000	4.17952E-006	0.00000E+000	7.28690E-004	-3.27687E+002	7	...........
	545	546	3.63512E+000	1.15026E-006	0.00000E+000	4.18134E-006	0.00000E+000	7.28907E-004	-3.27687E+002	7	...........
	546	547	3.63513E+000	1.14949E-006	0.00000E+000	4.17854E-006	0.00000E+000	7.26357E-004	-3.27687E+002	7	...........
	547	548	3.63512E+000	1.14938E-006	0.00000E+000	4.17811E-006	0.00000E+000	7.29707E-004	-3.27687E+002	7	...........
	548	549	3.63511E+000	1.14924E-006	0.00000E+000	4.17760E-006	0.00000E+000	7.27907E-004	-3.27687E+002	7	...........
	549	550	3.63511E+000	1.14909E-006	0.00000E+000	4.17708E-006	0.00000E+000	7.25740E-004	-3.27687E+002	7	...........
	550	551	3.63510E+000	1.14968E-006	0.00000E+000	4.17920E-006	0.00000E+000	7.29524E-004	-3.27687E+002	7	...........
	551	552	3.63511E+000	1.15008E-006	0.00000E+000	4.18066E-006	0.00000E+000	7.29724E-004	-3.27687E+002	7	...........
	552	553	3.63510E+000	1.14989E-006	0.00000E+000	4.17995E-006	0.00000E+000	7.27040E-004	-3.27687E+002	7	...........
	553	554	3.63509E+000	1.14957E-006	0.00000E+000	4.17878E-006	0.00000E+000	7.27540E-004	-3.27687E+002	7	...........
	554	555	3.63510E+000	1.15028E-006	0.00000E+000	4.18139E-006	0.00000E+000	7.26207E-004	-3.27687E+002	7	...........
	555	556	3.63509E+000	1.14990E-006	0.00000E+000	4.18001E-006	0.00000E+000	7.26157E-004	-3.27687E+002	7	...........
	556	557	3.63509E+000	1.14978E-006	0.00000E+000	4.17955E-006	0.00000E+000	7.28290E-004	-3.27687E+002	7	...........
	557	558	3.63509E+000	1.14953E-006	0.00000E+000	4.17864E-006	0.00000E+000	7.29424E-004	-3.27687E+002	7	...........
	558	559	3.63507E+000	1.14943E-006	0.00000E+000	4.17827E-006	0.00000E+000	7.29307E-004	-3.27687E+002	7	...........
	559	560	3.63508E+000	1.14941E-006	0.00000E+000	4.17820E-006	0.00000E+000	7.26624E-004	-3.27687E+002	7	...........
	560	561	3.63508E+000	1.15029E-006	0.00000E+000	4.18140E-006	0.00000E+000	7.29840E-004	-3.27687E+002	7	...........
	561	562	3.63507E+000	1.15028E-006	0.00000E+000	4.18137E-006	0.00000E+000	7.29107E-004	-3.27687E+002	7	...........
	562	563	3.63506E+000	1.15097E-006	0.00000E+000	4.18385E-006	0.00000E+000	7.26107E-004	-3.27687E+002	7	...........
	563	564	3.63506E+000	1.15022E-006	0.00000E+000	4.18113E-006	0.00000E+000	7.29157E-004	-3.27687E+002	7	...........
	564	565	3.63507E+000	1.14996E-006	0.00000E+000	4.18017E-006	0.00000E+000	7.28707E-004	-3.27687E+002	7	...........
	565	566	3.63506E+000	1.15096E-006	0.00000E+000	4.18382E-006	0.00000E+000	7.32857E-004	-3.27687E+002	7	...........
	566	567	3.63506E+000	1.15075E-006	0.00000E+000	4.18305E-006	0.00000E+000	7.28257E-004	-3.27687E+002	7	...........
	567	568	3.63506E+000	1.15064E-006	0.00000E+000	4.18264E-006	0.00000E+000	7.27307E-004	-3.27687E+002	7	...........
	568	569	3.63504E+000	1.15057E-006	0.00000E+000	4.18238E-006	0.00000E+000	7.28174E-004	-3.27687E+002	7	...........
	569	570	3.63504E+000	1.15079E-006	0.00000E+000	4.18317E-006	0.00000E+000	7.29840E-004	-3.27687E+002	7	...........
	570	571	3.63503E+000	1.15087E-006	0.00000E+000	4.18345E-006	0.00000E+000	7.29890E-004	-3.27687E+002	7	...........
	571	572	3.63504E+000	1.15080E-006	0.00000E+000	4.18321E-006	0.00000E+000	7.26674E-004	-3.27687E+002	7	...........
	572	573	3.63503E+000	1.15041E-006	0.00000E+000	4.18177E-006	0.00000E+000	7.29224E-004	-3.27687E+002	7	...........
	573	574	3.63502E+000	1.15026E-006	0.00000E+000	4.18124E-006	0.00000E+000	7.28224E-004	-3.27687E+002	7	...........
	574	575	3.63503E+000	1.15035E-006	0.00000E+000	4.18156E-006	0.00000E+000	7.24407E-004	-3.27687E+002	7	...........
	575	576	3.63502E+000	1.15017E-006	0.00000E+000	4.18089E-006	0.00000E+000	7.28490E-004	-3.27687E+002	7	...........
	576	577	3.63502E+000	1.15053E-006	0.00000E+000	4.18221E-006	0.00000E+000	7.28007E-004	-3.27687E+002	7	...........
	577	578	3.63501E+000	1.15115E-006	0.00000E+000	4.18443E-006	0.00000E+000	7.28024E-004	-3.27687E+002	7	...........
	578	579	3.63500E+000	1.15081E-006	0.00000E+000	4.18320E-006	0.00000E+000	7.26374E-004	-3.27687E+002	7	...........
	579	580	3.63501E+000	1.15133E-006	0.00000E+000	4.18510E-006	0.00000E+000	7.31140E-004	-3.27687E+002	7	...........
	580	581	3.63500E+000	1.15139E-006	0.00000E+000	4.18528E-006	0.00000E+000	7.28507E-004	-3.27687E+002	7	...........
	581	582	3.63500E+000	1.15079E-006	0.00000E+000	4.18311E-006	0.00000E+000	7.29624E-004	-3.27687E+002	7	...........
	582	583	3.63500E+000	1.15058E-006	0.00000E+000	4.18237E-006	0.00000E+000	7.29190E-004	-3.27687E+002	7	...........
	583	584	3.63499E+000	1.15092E-006	0.00000E+000	4.18358E-006	0.00000E+000	7.29524E-004	-3.27687E+002	7	...........
	584	585	3.63499E+000	1.15047E-006	0.00000E+000	4.18193E-006	0.00000E+000	7.27107E-004	-3.27687E+002	7	...........
	585	586	3.63499E+000	1.15008E-006	0.00000E+000	4.18052E-006	0.00000E+000	7.27707E-004	-3.27687E+002	7	...........
	586	587	3.63499E+000	1.15044E-006	0.00000E+000	4.18182E-006	0.00000E+000	7.30540E-004	-3.27687E+002	7	...........
	587	588	3.63498E+000	1.15091E-006	0.00000E+000	4.18354E-006	0.00000E+000	7.33157E-004	-3.27687E+002	7	...........
	588	589	3.63498E+000	1.15074E-006	0.00000E+000	4.18291E-006	0.00000E+000	7.28340E-004	-3.27687E+002	7	...........
	589	590	3.63497E+000	1.15061E-006	0.00000E+000	4.18244E-006	0.00000E+000	7.31190E-004	-3.27687E+002	7	...........
	590	591	3.63497E+000	1.15059E-006	0.00000E+000	4.18238E-006	0.00000E+000	7.29407E-004	-3.27687E+002	7	...........
	591	592	3.63498E+000	1.15053E-006	0.00000E+000	4.18217E-006	0.00000E+000	7.29724E-004	-3.27687E+002	7	...........
	592	593	3.63497E+000	1.15045E-006	0.00000E+000	4.18186E-006	0.00000E+000	7.30690E-004	-3.27687E+002	7	...........
	593	594	3.63497E+000	1.14968E-006	0.00000E+000	4.17906E-006	0.00000E+000	7.33140E-004	-3.27687E+002	7	...........
	594	595	3.63497E+000	1.14983E-006	0.00000E+000	4.17961E-006	0.00000E+000	7.30624E-004	-3.27687E+002	7	...........
	595	596	3.63496E+000	1.14983E-006	0.00000E+000	4.17958E-006	0.00000E+000	7.32274E-004	-3.27687E+002	7	...........
	596	597	3.63496E+000	1.15033E-006	0.00000E+000	4.18141E-006	0.00000E+000	7.29324E-004	-3.27687E+002	7	...........
	597	598	3.63495E+000	1.15054E-006	0.00000E+000	4.18216E-006	0.00000E+000	7.29107E-004	-3.27687E+002	7	...........
	598	599	3.63496E+000	1.15030E-006	0.00000E+000	4.18129E-006	0.00000E+000	7.30524E-004	-3.27687E+002	7	...........
	599	600	3.63495E+000	1.15026E-006	0.00000E+000	4.18113E-006	0.00000E+000	7.29524E-004	-3.27687E+002	7	...........
