EXPLAIN
TAG	PWR800_READVOLTAGE
TITLE	LABEL	PWR Read Voltage	Test Identifier
DATE	LABEL	22.4.2024	Date
TIME	LABEL	12:24:12	Time
NOTES	NOTES	1	Notes...
	
PSTAT	PSTAT	REF600-12055	Potentiostat
CAPACITY	QUANT	1.00000E+000	Capacity (A-hr)
CELLTYPE	SELECTOR	1	Cell Type
WORKINGCONNECTION	SELECTOR	0	Working Connection
MAXTIME	VARIABLEANDUNITS	6.00000E+002	s	6.00000E+002	second(s)	Max Time
SAMPLETIME	QUANT	1.00000E+000	Sample Period (s)
STOPAT1	MULTIPARAM	0	0.00000E+000	Stop At 1	None	N/A
STOPAT2	MULTIPARAM	0	0.00000E+000	Stop At 2	None	N/A
AESBHCSELECTOR	TOGGLE	F	Save Both Half Cells
EOC	QUANT	3.397686	Open Circuit (V)
SEQUENCER	TOGGLE	TRUE	Run as Sequence
PSTATMODEL	IQUANT	4	Pstat Model
PSTATSECTION	LABEL	REF600-12055	Pstat Section
PSTATSERIALNO	LABEL	12055	Pstat Serial Number
CTRLMODE	IQUANT	0	Control Mode
ELECTROMETER	IQUANT	0	RE=0 or CS=1
IESTAB	IQUANT	0	I/E Stability
CASPEED	IQUANT	4	Control Amp Speed
CONVENTION	IQUANT	1	Current Convention
ICHRANGE	IQUANT	2	Ich Range
ICHRANGEMODE	TOGGLE	T	Ich Auto Range
ICHOFFSETENABLE	TOGGLE	F	Ich Offset Enable
ICHOFFSET	QUANT	0	Ich Offset (V)
ICHFILTER	IQUANT	1	Ich Filter
VCHRANGE	IQUANT	3	Vch Range
VCHRANGEMODE	TOGGLE	T	Vch Auto Range
VCHOFFSETENABLE	TOGGLE	F	Vch Offset Enable
VCHOFFSET	QUANT	0	Vch Offset (V)
VCHFILTER	IQUANT	1	Vch Filter
ACHRANGE	IQUANT	2	Ach Range
ACHOFFSETENABLE	TOGGLE	F	Ach Offset Enable
ACHOFFSET	QUANT	0	Ach Offset (V)
ACHFILTER	IQUANT	1	Ach Filter
IERANGELOWERLIMIT	IQUANT	7	I/E Range Lower Limit
IERANGEMODE	TOGGLE	F	I/E AutoRange
IERANGE	IQUANT	11	I/E Range
POSFEEDENABLE	TOGGLE	F	Positive Feedback IR Comp
POSFEEDRESISTANCE	QUANT	0	Positive Feedback Resistance (ohm)
ACHSELECT	IQUANT	4	Ach Select
SENSECABLEID	IQUANT	14	Sense Cable ID
PWRCABLEID	IQUANT	14	Power Cable ID
DCCALDATE	LABEL	2/12/2024	DC Calibration Date
ACCALDATE	LABEL	2/12/2024	AC Calibration Date
THERMOSELECT	IQUANT	1	Thermo Select
FRAMEWORKVERSION	LABEL	7.10.3	Framework Version
INSTRUMENTVERSION	LABEL	4.91	Instrument Version
COMMVERSION	LABEL	2.24	Communications Version
CPUPLDVERSION	LABEL	0.00	CPU PLD Version
CTRLPLDVERSION	LABEL	0.00	CTRL PLD Version
PSTATPLDVERSION	LABEL	0.00	PSTAT PLD Version
CURVE	TABLE	600
	Pt	T	Vf	Im	Vu	Pwr	Sig	Ach	Temp	IERange	Over
	#	s	V	A	V	W	V	V	deg C	#	bits
	0	1	3.51097E+000	7.49683E-007	0.00000E+000	2.63211E-006	0.00000E+000	1.01467E-003	-3.27687E+002	7	...........
	1	2	3.51074E+000	7.49991E-007	0.00000E+000	2.63302E-006	0.00000E+000	1.01584E-003	-3.27687E+002	7	...........
	2	3	3.51058E+000	7.50040E-007	0.00000E+000	2.63308E-006	0.00000E+000	1.01806E-003	-3.27687E+002	7	...........
	3	4	3.51045E+000	7.50185E-007	0.00000E+000	2.63348E-006	0.00000E+000	1.02374E-003	-3.27687E+002	7	...........
	4	5	3.51032E+000	7.50506E-007	0.00000E+000	2.63452E-006	0.00000E+000	1.02419E-003	-3.27687E+002	7	...........
	5	6	3.51021E+000	7.50399E-007	0.00000E+000	2.63406E-006	0.00000E+000	1.02681E-003	-3.27687E+002	7	...........
	6	7	3.51010E+000	7.51347E-007	0.00000E+000	2.63731E-006	0.00000E+000	1.02561E-003	-3.27687E+002	7	...........
	7	8	3.51000E+000	7.51065E-007	0.00000E+000	2.63624E-006	0.00000E+000	1.02304E-003	-3.27687E+002	7	...........
	8	9	3.50992E+000	7.50629E-007	0.00000E+000	2.63465E-006	0.00000E+000	1.02514E-003	-3.27687E+002	7	...........
	9	10	3.50983E+000	7.50977E-007	0.00000E+000	2.63580E-006	0.00000E+000	1.02347E-003	-3.27687E+002	7	...........
	10	11	3.50975E+000	7.51049E-007	0.00000E+000	2.63599E-006	0.00000E+000	1.02234E-003	-3.27687E+002	7	...........
	11	12	3.50965E+000	7.51079E-007	0.00000E+000	2.63603E-006	0.00000E+000	1.02224E-003	-3.27687E+002	7	...........
	12	13	3.50956E+000	7.51163E-007	0.00000E+000	2.63625E-006	0.00000E+000	1.02199E-003	-3.27687E+002	7	...........
	13	14	3.50948E+000	7.51319E-007	0.00000E+000	2.63674E-006	0.00000E+000	1.02046E-003	-3.27687E+002	7	...........
	14	15	3.50940E+000	7.51496E-007	0.00000E+000	2.63730E-006	0.00000E+000	1.02196E-003	-3.27687E+002	7	...........
	15	16	3.50932E+000	7.51455E-007	0.00000E+000	2.63710E-006	0.00000E+000	1.01937E-003	-3.27687E+002	7	...........
	16	17	3.50925E+000	7.51432E-007	0.00000E+000	2.63696E-006	0.00000E+000	1.02236E-003	-3.27687E+002	7	...........
	17	18	3.50918E+000	7.51087E-007	0.00000E+000	2.63570E-006	0.00000E+000	1.02352E-003	-3.27687E+002	7	...........
	18	19	3.50912E+000	7.51378E-007	0.00000E+000	2.63667E-006	0.00000E+000	1.02449E-003	-3.27687E+002	7	...........
	19	20	3.50906E+000	7.51466E-007	0.00000E+000	2.63694E-006	0.00000E+000	1.02411E-003	-3.27687E+002	7	...........
	20	21	3.50899E+000	7.51573E-007	0.00000E+000	2.63726E-006	0.00000E+000	8.55724E-004	-3.27687E+002	7	...........
	21	22	3.50893E+000	7.52143E-007	0.00000E+000	2.63922E-006	0.00000E+000	7.72640E-004	-3.27687E+002	7	...........
	22	23	3.50887E+000	7.52929E-007	0.00000E+000	2.64193E-006	0.00000E+000	7.72524E-004	-3.27687E+002	7	...........
	23	24	3.50882E+000	7.52886E-007	0.00000E+000	2.64174E-006	0.00000E+000	7.74840E-004	-3.27687E+002	7	...........
	24	25	3.50876E+000	7.52416E-007	0.00000E+000	2.64005E-006	0.00000E+000	7.71507E-004	-3.27687E+002	7	...........
	25	26	3.50870E+000	7.52328E-007	0.00000E+000	2.63970E-006	0.00000E+000	7.71374E-004	-3.27687E+002	7	...........
	26	27	3.50866E+000	7.52778E-007	0.00000E+000	2.64124E-006	0.00000E+000	7.72274E-004	-3.27687E+002	7	...........
	27	28	3.50861E+000	7.52621E-007	0.00000E+000	2.64065E-006	0.00000E+000	7.71307E-004	-3.27687E+002	7	...........
	28	29	3.50856E+000	7.53004E-007	0.00000E+000	2.64196E-006	0.00000E+000	7.72324E-004	-3.27687E+002	7	...........
	29	30	3.50851E+000	7.53353E-007	0.00000E+000	2.64314E-006	0.00000E+000	7.70090E-004	-3.27687E+002	7	...........
	30	31	3.50845E+000	7.53067E-007	0.00000E+000	2.64210E-006	0.00000E+000	7.70374E-004	-3.27687E+002	7	...........
	31	32	3.50841E+000	7.53171E-007	0.00000E+000	2.64243E-006	0.00000E+000	7.68657E-004	-3.27687E+002	7	...........
	32	33	3.50837E+000	7.52994E-007	0.00000E+000	2.64178E-006	0.00000E+000	7.68174E-004	-3.27687E+002	7	...........
	33	34	3.50832E+000	7.52785E-007	0.00000E+000	2.64101E-006	0.00000E+000	7.68757E-004	-3.27687E+002	7	...........
	34	35	3.50827E+000	7.52952E-007	0.00000E+000	2.64156E-006	0.00000E+000	7.65674E-004	-3.27687E+002	7	...........
	35	36	3.50822E+000	7.52869E-007	0.00000E+000	2.64123E-006	0.00000E+000	7.68774E-004	-3.27687E+002	7	...........
	36	37	3.50818E+000	7.52530E-007	0.00000E+000	2.64001E-006	0.00000E+000	7.67907E-004	-3.27687E+002	7	...........
	37	38	3.50813E+000	7.52640E-007	0.00000E+000	2.64036E-006	0.00000E+000	7.65324E-004	-3.27687E+002	7	...........
	38	39	3.50810E+000	7.53067E-007	0.00000E+000	2.64183E-006	0.00000E+000	7.68957E-004	-3.27687E+002	7	...........
	39	40	3.50805E+000	7.53831E-007	0.00000E+000	2.64448E-006	0.00000E+000	7.67257E-004	-3.27687E+002	7	...........
	40	41	3.50800E+000	7.54622E-007	0.00000E+000	2.64721E-006	0.00000E+000	7.65957E-004	-3.27687E+002	7	...........
	41	42	3.50796E+000	7.54000E-007	0.00000E+000	2.64500E-006	0.00000E+000	7.67940E-004	-3.27687E+002	7	...........
	42	43	3.50792E+000	7.53822E-007	0.00000E+000	2.64435E-006	0.00000E+000	7.68324E-004	-3.27687E+002	7	...........
	43	44	3.50787E+000	7.54132E-007	0.00000E+000	2.64540E-006	0.00000E+000	7.65607E-004	-3.27687E+002	7	...........
	44	45	3.50784E+000	7.54244E-007	0.00000E+000	2.64577E-006	0.00000E+000	7.67290E-004	-3.27687E+002	7	...........
	45	46	3.50780E+000	7.54754E-007	0.00000E+000	2.64752E-006	0.00000E+000	7.68757E-004	-3.27687E+002	7	...........
	46	47	3.50777E+000	7.55124E-007	0.00000E+000	2.64880E-006	0.00000E+000	7.69224E-004	-3.27687E+002	7	...........
	47	48	3.50772E+000	7.55017E-007	0.00000E+000	2.64838E-006	0.00000E+000	7.68907E-004	-3.27687E+002	7	...........
	48	49	3.50767E+000	7.55730E-007	0.00000E+000	2.65085E-006	0.00000E+000	7.69007E-004	-3.27687E+002	7	...........
	49	50	3.50764E+000	7.54743E-007	0.00000E+000	2.64737E-006	0.00000E+000	7.72840E-004	-3.27687E+002	7	...........
	50	51	3.50760E+000	7.54798E-007	0.00000E+000	2.64753E-006	0.00000E+000	7.68240E-004	-3.27687E+002	7	...........
	51	52	3.50757E+000	7.54777E-007	0.00000E+000	2.64743E-006	0.00000E+000	7.69324E-004	-3.27687E+002	7	...........
	52	53	3.50753E+000	7.55144E-007	0.00000E+000	2.64869E-006	0.00000E+000	7.68657E-004	-3.27687E+002	7	...........
	53	54	3.50750E+000	7.54853E-007	0.00000E+000	2.64764E-006	0.00000E+000	7.71107E-004	-3.27687E+002	7	...........
	54	55	3.50746E+000	7.55174E-007	0.00000E+000	2.64874E-006	0.00000E+000	7.72924E-004	-3.27687E+002	7	...........
	55	56	3.50743E+000	7.55123E-007	0.00000E+000	2.64854E-006	0.00000E+000	7.73757E-004	-3.27687E+002	7	...........
	56	57	3.50738E+000	7.56087E-007	0.00000E+000	2.65189E-006	0.00000E+000	7.73224E-004	-3.27687E+002	7	...........
	57	58	3.50735E+000	7.56464E-007	0.00000E+000	2.65318E-006	0.00000E+000	7.73040E-004	-3.27687E+002	7	...........
	58	59	3.50731E+000	7.56092E-007	0.00000E+000	2.65185E-006	0.00000E+000	7.71957E-004	-3.27687E+002	7	...........
	59	60	3.50727E+000	7.55836E-007	0.00000E+000	2.65092E-006	0.00000E+000	7.73757E-004	-3.27687E+002	7	...........
	60	61	3.50724E+000	7.56051E-007	0.00000E+000	2.65165E-006	0.00000E+000	7.77774E-004	-3.27687E+002	7	...........
	61	62	3.50721E+000	7.55846E-007	0.00000E+000	2.65091E-006	0.00000E+000	7.75607E-004	-3.27687E+002	7	...........
	62	63	3.50716E+000	7.55957E-007	0.00000E+000	2.65126E-006	0.00000E+000	7.75290E-004	-3.27687E+002	7	...........
	63	64	3.50713E+000	7.56055E-007	0.00000E+000	2.65158E-006	0.00000E+000	7.74857E-004	-3.27687E+002	7	...........
	64	65	3.50709E+000	7.56384E-007	0.00000E+000	2.65271E-006	0.00000E+000	7.75957E-004	-3.27687E+002	7	...........
	65	66	3.50706E+000	7.56179E-007	0.00000E+000	2.65197E-006	0.00000E+000	7.76807E-004	-3.27687E+002	7	...........
	66	67	3.50702E+000	7.56488E-007	0.00000E+000	2.65302E-006	0.00000E+000	7.73607E-004	-3.27687E+002	7	...........
	67	68	3.50699E+000	7.56562E-007	0.00000E+000	2.65326E-006	0.00000E+000	7.75140E-004	-3.27687E+002	7	...........
	68	69	3.50696E+000	7.56703E-007	0.00000E+000	2.65372E-006	0.00000E+000	7.78807E-004	-3.27687E+002	7	...........
	69	70	3.50691E+000	7.56822E-007	0.00000E+000	2.65411E-006	0.00000E+000	7.76440E-004	-3.27687E+002	7	...........
	70	71	3.50689E+000	7.55654E-007	0.00000E+000	2.64999E-006	0.00000E+000	7.75440E-004	-3.27687E+002	7	...........
	71	72	3.50685E+000	7.56857E-007	0.00000E+000	2.65419E-006	0.00000E+000	7.72790E-004	-3.27687E+002	7	...........
	72	73	3.50683E+000	7.56780E-007	0.00000E+000	2.65390E-006	0.00000E+000	7.73874E-004	-3.27687E+002	7	...........
	73	74	3.50679E+000	7.57185E-007	0.00000E+000	2.65529E-006	0.00000E+000	7.72540E-004	-3.27687E+002	7	...........
	74	75	3.50676E+000	7.57304E-007	0.00000E+000	2.65568E-006	0.00000E+000	7.71257E-004	-3.27687E+002	7	...........
	75	76	3.50673E+000	7.57378E-007	0.00000E+000	2.65592E-006	0.00000E+000	7.73874E-004	-3.27687E+002	7	...........
	76	77	3.50670E+000	7.57487E-007	0.00000E+000	2.65628E-006	0.00000E+000	7.72207E-004	-3.27687E+002	7	...........
	77	78	3.50668E+000	7.57313E-007	0.00000E+000	2.65565E-006	0.00000E+000	7.71074E-004	-3.27687E+002	7	...........
	78	79	3.50665E+000	7.57347E-007	0.00000E+000	2.65575E-006	0.00000E+000	7.70890E-004	-3.27687E+002	7	...........
	79	80	3.50664E+000	7.57684E-007	0.00000E+000	2.65692E-006	0.00000E+000	7.71924E-004	-3.27687E+002	7	...........
	80	81	3.50661E+000	7.57888E-007	0.00000E+000	2.65762E-006	0.00000E+000	7.69674E-004	-3.27687E+002	7	...........
	81	82	3.50659E+000	7.58194E-007	0.00000E+000	2.65867E-006	0.00000E+000	7.68974E-004	-3.27687E+002	7	...........
	82	83	3.50656E+000	7.58632E-007	0.00000E+000	2.66019E-006	0.00000E+000	7.67757E-004	-3.27687E+002	7	...........
	83	84	3.50654E+000	7.58662E-007	0.00000E+000	2.66027E-006	0.00000E+000	7.66074E-004	-3.27687E+002	7	...........
	84	85	3.50652E+000	7.58460E-007	0.00000E+000	2.65956E-006	0.00000E+000	7.68940E-004	-3.27687E+002	7	...........
	85	86	3.50650E+000	7.58245E-007	0.00000E+000	2.65879E-006	0.00000E+000	7.65557E-004	-3.27687E+002	7	...........
	86	87	3.50648E+000	7.58827E-007	0.00000E+000	2.66082E-006	0.00000E+000	7.66674E-004	-3.27687E+002	7	...........
	87	88	3.50645E+000	7.58742E-007	0.00000E+000	2.66049E-006	0.00000E+000	7.65557E-004	-3.27687E+002	7	...........
	88	89	3.50644E+000	7.58513E-007	0.00000E+000	2.65968E-006	0.00000E+000	7.67107E-004	-3.27687E+002	7	...........
	89	90	3.50643E+000	7.58859E-007	0.00000E+000	2.66088E-006	0.00000E+000	7.65357E-004	-3.27687E+002	7	...........
	90	91	3.50640E+000	7.58868E-007	0.00000E+000	2.66090E-006	0.00000E+000	7.63790E-004	-3.27687E+002	7	...........
	91	92	3.50638E+000	7.59166E-007	0.00000E+000	2.66193E-006	0.00000E+000	7.65640E-004	-3.27687E+002	7	...........
	92	93	3.50637E+000	7.60100E-007	0.00000E+000	2.66519E-006	0.00000E+000	7.64824E-004	-3.27687E+002	7	...........
	93	94	3.50634E+000	7.59647E-007	0.00000E+000	2.66358E-006	0.00000E+000	7.67207E-004	-3.27687E+002	7	...........
	94	95	3.50632E+000	7.59473E-007	0.00000E+000	2.66296E-006	0.00000E+000	7.65624E-004	-3.27687E+002	7	...........
	95	96	3.50632E+000	7.59986E-007	0.00000E+000	2.66475E-006	0.00000E+000	7.65140E-004	-3.27687E+002	7	...........
	96	97	3.50629E+000	7.60326E-007	0.00000E+000	2.66592E-006	0.00000E+000	7.65490E-004	-3.27687E+002	7	...........
	97	98	3.50627E+000	7.59666E-007	0.00000E+000	2.66360E-006	0.00000E+000	7.62724E-004	-3.27687E+002	7	...........
	98	99	3.50626E+000	7.60003E-007	0.00000E+000	2.66477E-006	0.00000E+000	7.63674E-004	-3.27687E+002	7	...........
	99	100	3.50624E+000	7.59806E-007	0.00000E+000	2.66406E-006	0.00000E+000	7.65124E-004	-3.27687E+002	7	...........
	100	101	3.50623E+000	7.60266E-007	0.00000E+000	2.66567E-006	0.00000E+000	7.63840E-004	-3.27687E+002	7	...........
	101	102	3.50622E+000	7.60350E-007	0.00000E+000	2.66595E-006	0.00000E+000	7.65007E-004	-3.27687E+002	7	...........
	102	103	3.50619E+000	7.60706E-007	0.00000E+000	2.66718E-006	0.00000E+000	7.66907E-004	-3.27687E+002	7	...........
	103	104	3.50618E+000	7.60487E-007	0.00000E+000	2.66640E-006	0.00000E+000	7.65374E-004	-3.27687E+002	7	...........
	104	105	3.50617E+000	7.59963E-007	0.00000E+000	2.66456E-006	0.00000E+000	7.66190E-004	-3.27687E+002	7	...........
	105	106	3.50616E+000	7.60614E-007	0.00000E+000	2.66683E-006	0.00000E+000	7.63840E-004	-3.27687E+002	7	...........
	106	107	3.50613E+000	7.60873E-007	0.00000E+000	2.66772E-006	0.00000E+000	7.64274E-004	-3.27687E+002	7	...........
	107	108	3.50612E+000	7.60446E-007	0.00000E+000	2.66621E-006	0.00000E+000	7.65507E-004	-3.27687E+002	7	...........
	108	109	3.50610E+000	7.60788E-007	0.00000E+000	2.66740E-006	0.00000E+000	7.66590E-004	-3.27687E+002	7	...........
	109	110	3.50609E+000	7.61437E-007	0.00000E+000	2.66967E-006	0.00000E+000	7.65374E-004	-3.27687E+002	7	...........
	110	111	3.50607E+000	7.61855E-007	0.00000E+000	2.67112E-006	0.00000E+000	7.68724E-004	-3.27687E+002	7	...........
	111	112	3.50606E+000	7.61882E-007	0.00000E+000	2.67120E-006	0.00000E+000	7.66024E-004	-3.27687E+002	7	...........
	112	113	3.50604E+000	7.61971E-007	0.00000E+000	2.67150E-006	0.00000E+000	7.68090E-004	-3.27687E+002	7	...........
	113	114	3.50603E+000	7.62172E-007	0.00000E+000	2.67220E-006	0.00000E+000	7.66790E-004	-3.27687E+002	7	...........
	114	115	3.50601E+000	7.61837E-007	0.00000E+000	2.67101E-006	0.00000E+000	7.66674E-004	-3.27687E+002	7	...........
	115	116	3.50599E+000	7.62424E-007	0.00000E+000	2.67305E-006	0.00000E+000	7.67574E-004	-3.27687E+002	7	...........
	116	117	3.50598E+000	7.62477E-007	0.00000E+000	2.67323E-006	0.00000E+000	7.69157E-004	-3.27687E+002	7	...........
	117	118	3.50596E+000	7.62317E-007	0.00000E+000	2.67266E-006	0.00000E+000	7.65807E-004	-3.27687E+002	7	...........
	118	119	3.50594E+000	7.62458E-007	0.00000E+000	2.67313E-006	0.00000E+000	7.67757E-004	-3.27687E+002	7	...........
	119	120	3.50594E+000	7.62253E-007	0.00000E+000	2.67241E-006	0.00000E+000	7.66790E-004	-3.27687E+002	7	...........
	120	121	3.50592E+000	7.61960E-007	0.00000E+000	2.67137E-006	0.00000E+000	7.68107E-004	-3.27687E+002	7	...........
	121	122	3.50590E+000	7.62014E-007	0.00000E+000	2.67154E-006	0.00000E+000	7.68307E-004	-3.27687E+002	7	...........
	122	123	3.50589E+000	7.62239E-007	0.00000E+000	2.67233E-006	0.00000E+000	7.69840E-004	-3.27687E+002	7	...........
	123	124	3.50588E+000	7.62229E-007	0.00000E+000	2.67228E-006	0.00000E+000	7.67324E-004	-3.27687E+002	7	...........
	124	125	3.50587E+000	7.62606E-007	0.00000E+000	2.67359E-006	0.00000E+000	7.68607E-004	-3.27687E+002	7	...........
	125	126	3.50585E+000	7.62945E-007	0.00000E+000	2.67477E-006	0.00000E+000	7.69574E-004	-3.27687E+002	7	...........
	126	127	3.50584E+000	7.63810E-007	0.00000E+000	2.67780E-006	0.00000E+000	7.70474E-004	-3.27687E+002	7	...........
	127	128	3.50582E+000	7.63331E-007	0.00000E+000	2.67610E-006	0.00000E+000	7.68907E-004	-3.27687E+002	7	...........
	128	129	3.50581E+000	7.62872E-007	0.00000E+000	2.67449E-006	0.00000E+000	7.70657E-004	-3.27687E+002	7	...........
	129	130	3.50579E+000	7.63470E-007	0.00000E+000	2.67657E-006	0.00000E+000	7.67990E-004	-3.27687E+002	7	...........
	130	131	3.50578E+000	7.62890E-007	0.00000E+000	2.67453E-006	0.00000E+000	7.68774E-004	-3.27687E+002	7	...........
	131	132	3.50577E+000	7.63558E-007	0.00000E+000	2.67686E-006	0.00000E+000	7.68674E-004	-3.27687E+002	7	...........
	132	133	3.50576E+000	7.63524E-007	0.00000E+000	2.67673E-006	0.00000E+000	7.68540E-004	-3.27687E+002	7	...........
	133	134	3.50576E+000	7.63269E-007	0.00000E+000	2.67584E-006	0.00000E+000	7.69257E-004	-3.27687E+002	7	...........
	134	135	3.50574E+000	7.63502E-007	0.00000E+000	2.67664E-006	0.00000E+000	7.70224E-004	-3.27687E+002	7	...........
	135	136	3.50572E+000	7.63938E-007	0.00000E+000	2.67815E-006	0.00000E+000	7.70807E-004	-3.27687E+002	7	...........
	136	137	3.50571E+000	7.63555E-007	0.00000E+000	2.67680E-006	0.00000E+000	7.72957E-004	-3.27687E+002	7	...........
	137	138	3.50570E+000	7.63625E-007	0.00000E+000	2.67704E-006	0.00000E+000	7.71824E-004	-3.27687E+002	7	...........
	138	139	3.50569E+000	7.63430E-007	0.00000E+000	2.67635E-006	0.00000E+000	7.73974E-004	-3.27687E+002	7	...........
	139	140	3.50567E+000	7.63231E-007	0.00000E+000	2.67564E-006	0.00000E+000	7.73857E-004	-3.27687E+002	7	...........
	140	141	3.50566E+000	7.63505E-007	0.00000E+000	2.67659E-006	0.00000E+000	7.70824E-004	-3.27687E+002	7	...........
	141	142	3.50565E+000	7.63898E-007	0.00000E+000	2.67796E-006	0.00000E+000	7.72774E-004	-3.27687E+002	7	...........
	142	143	3.50564E+000	7.64199E-007	0.00000E+000	2.67900E-006	0.00000E+000	7.72474E-004	-3.27687E+002	7	...........
	143	144	3.50562E+000	7.64307E-007	0.00000E+000	2.67937E-006	0.00000E+000	7.74157E-004	-3.27687E+002	7	...........
	144	145	3.50561E+000	7.63387E-007	0.00000E+000	2.67613E-006	0.00000E+000	7.73324E-004	-3.27687E+002	7	...........
	145	146	3.50559E+000	7.63214E-007	0.00000E+000	2.67552E-006	0.00000E+000	7.70790E-004	-3.27687E+002	7	...........
	146	147	3.50558E+000	7.63592E-007	0.00000E+000	2.67684E-006	0.00000E+000	7.72740E-004	-3.27687E+002	7	...........
	147	148	3.50556E+000	7.63653E-007	0.00000E+000	2.67704E-006	0.00000E+000	7.72340E-004	-3.27687E+002	7	...........
	148	149	3.50555E+000	7.63591E-007	0.00000E+000	2.67680E-006	0.00000E+000	7.72840E-004	-3.27687E+002	7	...........
	149	150	3.50554E+000	7.63773E-007	0.00000E+000	2.67744E-006	0.00000E+000	7.70524E-004	-3.27687E+002	7	...........
	150	151	3.50554E+000	7.63900E-007	0.00000E+000	2.67788E-006	0.00000E+000	7.72157E-004	-3.27687E+002	7	...........
	151	152	3.50552E+000	7.63353E-007	0.00000E+000	2.67595E-006	0.00000E+000	7.70857E-004	-3.27687E+002	7	...........
	152	153	3.50551E+000	7.63938E-007	0.00000E+000	2.67799E-006	0.00000E+000	7.72574E-004	-3.27687E+002	7	...........
	153	154	3.50550E+000	7.64688E-007	0.00000E+000	2.68061E-006	0.00000E+000	7.72307E-004	-3.27687E+002	7	...........
	154	155	3.50548E+000	7.64213E-007	0.00000E+000	2.67893E-006	0.00000E+000	7.73107E-004	-3.27687E+002	7	...........
	155	156	3.50547E+000	7.63612E-007	0.00000E+000	2.67682E-006	0.00000E+000	7.74174E-004	-3.27687E+002	7	...........
	156	157	3.50546E+000	7.63261E-007	0.00000E+000	2.67558E-006	0.00000E+000	7.71357E-004	-3.27687E+002	7	...........
	157	158	3.50545E+000	7.63739E-007	0.00000E+000	2.67725E-006	0.00000E+000	7.70707E-004	-3.27687E+002	7	...........
	158	159	3.50544E+000	7.63786E-007	0.00000E+000	2.67740E-006	0.00000E+000	7.73324E-004	-3.27687E+002	7	...........
	159	160	3.50543E+000	7.63870E-007	0.00000E+000	2.67769E-006	0.00000E+000	7.70290E-004	-3.27687E+002	7	...........
	160	161	3.50541E+000	7.63992E-007	0.00000E+000	2.67810E-006	0.00000E+000	7.70574E-004	-3.27687E+002	7	...........
	161	162	3.50541E+000	7.64236E-007	0.00000E+000	2.67896E-006	0.00000E+000	7.70940E-004	-3.27687E+002	7	...........
	162	163	3.50540E+000	7.63846E-007	0.00000E+000	2.67758E-006	0.00000E+000	7.71574E-004	-3.27687E+002	7	...........
	163	164	3.50538E+000	7.64054E-007	0.00000E+000	2.67830E-006	0.00000E+000	7.71357E-004	-3.27687E+002	7	...........
	164	165	3.50538E+000	7.63631E-007	0.00000E+000	2.67682E-006	0.00000E+000	7.71124E-004	-3.27687E+002	7	...........
	165	166	3.50536E+000	7.63551E-007	0.00000E+000	2.67652E-006	0.00000E+000	7.70557E-004	-3.27687E+002	7	...........
	166	167	3.50535E+000	7.63871E-007	0.00000E+000	2.67764E-006	0.00000E+000	7.72240E-004	-3.27687E+002	7	...........
	167	168	3.50535E+000	7.63936E-007	0.00000E+000	2.67786E-006	0.00000E+000	7.71707E-004	-3.27687E+002	7	...........
	168	169	3.50534E+000	7.64178E-007	0.00000E+000	2.67871E-006	0.00000E+000	7.72024E-004	-3.27687E+002	7	...........
	169	170	3.50533E+000	7.64336E-007	0.00000E+000	2.67925E-006	0.00000E+000	7.70240E-004	-3.27687E+002	7	...........
	170	171	3.50532E+000	7.64119E-007	0.00000E+000	2.67849E-006	0.00000E+000	7.67740E-004	-3.27687E+002	7	...........
	171	172	3.50530E+000	7.64212E-007	0.00000E+000	2.67880E-006	0.00000E+000	7.71107E-004	-3.27687E+002	7	...........
	172	173	3.50530E+000	7.64243E-007	0.00000E+000	2.67890E-006	0.00000E+000	7.71090E-004	-3.27687E+002	7	...........
	173	174	3.50529E+000	7.64054E-007	0.00000E+000	2.67823E-006	0.00000E+000	7.69107E-004	-3.27687E+002	7	...........
	174	175	3.50528E+000	7.64382E-007	0.00000E+000	2.67937E-006	0.00000E+000	7.70957E-004	-3.27687E+002	7	...........
	175	176	3.50527E+000	7.64657E-007	0.00000E+000	2.68033E-006	0.00000E+000	7.68124E-004	-3.27687E+002	7	...........
	176	177	3.50526E+000	7.64907E-007	0.00000E+000	2.68120E-006	0.00000E+000	7.69407E-004	-3.27687E+002	7	...........
	177	178	3.50525E+000	7.65296E-007	0.00000E+000	2.68255E-006	0.00000E+000	7.66124E-004	-3.27687E+002	7	...........
	178	179	3.50523E+000	7.64748E-007	0.00000E+000	2.68062E-006	0.00000E+000	7.66940E-004	-3.27687E+002	7	...........
	179	180	3.50522E+000	7.64564E-007	0.00000E+000	2.67997E-006	0.00000E+000	7.67690E-004	-3.27687E+002	7	...........
	180	181	3.50521E+000	7.65449E-007	0.00000E+000	2.68306E-006	0.00000E+000	7.66924E-004	-3.27687E+002	7	...........
	181	182	3.50520E+000	7.65766E-007	0.00000E+000	2.68417E-006	0.00000E+000	7.68724E-004	-3.27687E+002	7	...........
	182	183	3.50519E+000	7.65889E-007	0.00000E+000	2.68459E-006	0.00000E+000	7.68290E-004	-3.27687E+002	7	...........
	183	184	3.50518E+000	7.65200E-007	0.00000E+000	2.68217E-006	0.00000E+000	7.65990E-004	-3.27687E+002	7	...........
	184	185	3.50517E+000	7.65568E-007	0.00000E+000	2.68345E-006	0.00000E+000	7.67357E-004	-3.27687E+002	7	...........
	185	186	3.50516E+000	7.65652E-007	0.00000E+000	2.68374E-006	0.00000E+000	7.66640E-004	-3.27687E+002	7	...........
	186	187	3.50516E+000	7.65174E-007	0.00000E+000	2.68206E-006	0.00000E+000	7.67524E-004	-3.27687E+002	7	...........
	187	188	3.50516E+000	7.64897E-007	0.00000E+000	2.68108E-006	0.00000E+000	7.65690E-004	-3.27687E+002	7	...........
	188	189	3.50514E+000	7.64696E-007	0.00000E+000	2.68037E-006	0.00000E+000	7.65940E-004	-3.27687E+002	7	...........
	189	190	3.50514E+000	7.65219E-007	0.00000E+000	2.68220E-006	0.00000E+000	7.65874E-004	-3.27687E+002	7	...........
	190	191	3.50512E+000	7.65470E-007	0.00000E+000	2.68307E-006	0.00000E+000	7.63090E-004	-3.27687E+002	7	...........
	191	192	3.50512E+000	7.65029E-007	0.00000E+000	2.68152E-006	0.00000E+000	7.65690E-004	-3.27687E+002	7	...........
	192	193	3.50511E+000	7.65279E-007	0.00000E+000	2.68239E-006	0.00000E+000	7.62774E-004	-3.27687E+002	7	...........
	193	194	3.50510E+000	7.65263E-007	0.00000E+000	2.68232E-006	0.00000E+000	7.63874E-004	-3.27687E+002	7	...........
	194	195	3.50509E+000	7.65747E-007	0.00000E+000	2.68401E-006	0.00000E+000	7.61474E-004	-3.27687E+002	7	...........
	195	196	3.50508E+000	7.65515E-007	0.00000E+000	2.68319E-006	0.00000E+000	7.62474E-004	-3.27687E+002	7	...........
	196	197	3.50507E+000	7.65382E-007	0.00000E+000	2.68272E-006	0.00000E+000	7.61924E-004	-3.27687E+002	7	...........
	197	198	3.50507E+000	7.65647E-007	0.00000E+000	2.68364E-006	0.00000E+000	7.61424E-004	-3.27687E+002	7	...........
	198	199	3.50506E+000	7.65424E-007	0.00000E+000	2.68285E-006	0.00000E+000	7.62790E-004	-3.27687E+002	7	...........
	199	200	3.50505E+000	7.65929E-007	0.00000E+000	2.68462E-006	0.00000E+000	7.62974E-004	-3.27687E+002	7	...........
	200	201	3.50505E+000	7.66235E-007	0.00000E+000	2.68569E-006	0.00000E+000	7.59640E-004	-3.27687E+002	7	...........
	201	202	3.50504E+000	7.66488E-007	0.00000E+000	2.68657E-006	0.00000E+000	7.62640E-004	-3.27687E+002	7	...........
	202	203	3.50503E+000	7.66212E-007	0.00000E+000	2.68559E-006	0.00000E+000	7.62090E-004	-3.27687E+002	7	...........
	203	204	3.50501E+000	7.65823E-007	0.00000E+000	2.68422E-006	0.00000E+000	7.60990E-004	-3.27687E+002	7	...........
	204	205	3.50501E+000	7.66360E-007	0.00000E+000	2.68610E-006	0.00000E+000	7.62207E-004	-3.27687E+002	7	...........
	205	206	3.50500E+000	7.65929E-007	0.00000E+000	2.68458E-006	0.00000E+000	7.61657E-004	-3.27687E+002	7	...........
	206	207	3.50499E+000	7.65764E-007	0.00000E+000	2.68399E-006	0.00000E+000	7.59890E-004	-3.27687E+002	7	...........
	207	208	3.50498E+000	7.66363E-007	0.00000E+000	2.68608E-006	0.00000E+000	7.60924E-004	-3.27687E+002	7	...........
	208	209	3.50497E+000	7.66113E-007	0.00000E+000	2.68520E-006	0.00000E+000	7.59390E-004	-3.27687E+002	7	...........
	209	210	3.50496E+000	7.66719E-007	0.00000E+000	2.68732E-006	0.00000E+000	7.60024E-004	-3.27687E+002	7	...........
	210	211	3.50496E+000	7.67039E-007	0.00000E+000	2.68844E-006	0.00000E+000	7.57507E-004	-3.27687E+002	7	...........
	211	212	3.50495E+000	7.66607E-007	0.00000E+000	2.68692E-006	0.00000E+000	7.57974E-004	-3.27687E+002	7	...........
	212	213	3.50494E+000	7.65871E-007	0.00000E+000	2.68433E-006	0.00000E+000	7.59807E-004	-3.27687E+002	7	...........
	213	214	3.50493E+000	7.66301E-007	0.00000E+000	2.68583E-006	0.00000E+000	7.59190E-004	-3.27687E+002	7	...........
	214	215	3.50492E+000	7.66400E-007	0.00000E+000	2.68617E-006	0.00000E+000	7.58074E-004	-3.27687E+002	7	...........
	215	216	3.50491E+000	7.66568E-007	0.00000E+000	2.68675E-006	0.00000E+000	7.57007E-004	-3.27687E+002	7	...........
	216	217	3.50491E+000	7.67060E-007	0.00000E+000	2.68848E-006	0.00000E+000	7.56657E-004	-3.27687E+002	7	...........
	217	218	3.50489E+000	7.67021E-007	0.00000E+000	2.68832E-006	0.00000E+000	7.57140E-004	-3.27687E+002	7	...........
	218	219	3.50489E+000	7.67445E-007	0.00000E+000	2.68981E-006	0.00000E+000	7.56024E-004	-3.27687E+002	7	...........
	219	220	3.50488E+000	7.67238E-007	0.00000E+000	2.68908E-006	0.00000E+000	7.59374E-004	-3.27687E+002	7	...........
	220	221	3.50487E+000	7.66951E-007	0.00000E+000	2.68807E-006	0.00000E+000	7.58257E-004	-3.27687E+002	7	...........
	221	222	3.50488E+000	7.66464E-007	0.00000E+000	2.68636E-006	0.00000E+000	7.57357E-004	-3.27687E+002	7	...........
	222	223	3.50486E+000	7.66511E-007	0.00000E+000	2.68651E-006	0.00000E+000	7.60807E-004	-3.27687E+002	7	...........
	223	224	3.50485E+000	7.65477E-007	0.00000E+000	2.68288E-006	0.00000E+000	7.56807E-004	-3.27687E+002	7	...........
	224	225	3.50484E+000	7.65743E-007	0.00000E+000	2.68381E-006	0.00000E+000	7.56907E-004	-3.27687E+002	7	...........
	225	226	3.50483E+000	7.65970E-007	0.00000E+000	2.68460E-006	0.00000E+000	7.57707E-004	-3.27687E+002	7	...........
	226	227	3.50482E+000	7.66203E-007	0.00000E+000	2.68541E-006	0.00000E+000	7.58624E-004	-3.27687E+002	7	...........
	227	228	3.50481E+000	7.67139E-007	0.00000E+000	2.68868E-006	0.00000E+000	7.60207E-004	-3.27687E+002	7	...........
	228	229	3.50482E+000	7.66400E-007	0.00000E+000	2.68609E-006	0.00000E+000	7.58757E-004	-3.27687E+002	7	...........
	229	230	3.50480E+000	7.66537E-007	0.00000E+000	2.68656E-006	0.00000E+000	7.60274E-004	-3.27687E+002	7	...........
	230	231	3.50478E+000	7.66372E-007	0.00000E+000	2.68597E-006	0.00000E+000	7.55907E-004	-3.27687E+002	7	...........
	231	232	3.50478E+000	7.66101E-007	0.00000E+000	2.68502E-006	0.00000E+000	7.60590E-004	-3.27687E+002	7	...........
	232	233	3.50478E+000	7.66589E-007	0.00000E+000	2.68673E-006	0.00000E+000	7.58374E-004	-3.27687E+002	7	...........
	233	234	3.50477E+000	7.66676E-007	0.00000E+000	2.68702E-006	0.00000E+000	7.57090E-004	-3.27687E+002	7	...........
	234	235	3.50476E+000	7.66554E-007	0.00000E+000	2.68659E-006	0.00000E+000	7.55774E-004	-3.27687E+002	7	...........
	235	236	3.50475E+000	7.66278E-007	0.00000E+000	2.68561E-006	0.00000E+000	7.56374E-004	-3.27687E+002	7	...........
	236	237	3.50474E+000	7.66107E-007	0.00000E+000	2.68501E-006	0.00000E+000	7.57724E-004	-3.27687E+002	7	...........
	237	238	3.50473E+000	7.65868E-007	0.00000E+000	2.68416E-006	0.00000E+000	7.57274E-004	-3.27687E+002	7	...........
	238	239	3.50473E+000	7.65744E-007	0.00000E+000	2.68372E-006	0.00000E+000	7.58874E-004	-3.27687E+002	7	...........
	239	240	3.50471E+000	7.65317E-007	0.00000E+000	2.68222E-006	0.00000E+000	7.59757E-004	-3.27687E+002	7	...........
	240	241	3.50471E+000	7.65391E-007	0.00000E+000	2.68247E-006	0.00000E+000	7.57074E-004	-3.27687E+002	7	...........
	241	242	3.50470E+000	7.66305E-007	0.00000E+000	2.68567E-006	0.00000E+000	7.55340E-004	-3.27687E+002	7	...........
	242	243	3.50469E+000	7.66369E-007	0.00000E+000	2.68589E-006	0.00000E+000	7.59740E-004	-3.27687E+002	7	...........
	243	244	3.50468E+000	7.66652E-007	0.00000E+000	2.68687E-006	0.00000E+000	7.59340E-004	-3.27687E+002	7	...........
	244	245	3.50467E+000	7.66716E-007	0.00000E+000	2.68709E-006	0.00000E+000	7.59640E-004	-3.27687E+002	7	...........
	245	246	3.50466E+000	7.65833E-007	0.00000E+000	2.68398E-006	0.00000E+000	7.61057E-004	-3.27687E+002	7	...........
	246	247	3.50465E+000	7.66359E-007	0.00000E+000	2.68582E-006	0.00000E+000	7.60390E-004	-3.27687E+002	7	...........
	247	248	3.50464E+000	7.66504E-007	0.00000E+000	2.68632E-006	0.00000E+000	7.59257E-004	-3.27687E+002	7	...........
	248	249	3.50462E+000	7.66592E-007	0.00000E+000	2.68661E-006	0.00000E+000	7.58374E-004	-3.27687E+002	7	...........
	249	250	3.50462E+000	7.66320E-007	0.00000E+000	2.68566E-006	0.00000E+000	7.60490E-004	-3.27687E+002	7	...........
	250	251	3.50461E+000	7.66770E-007	0.00000E+000	2.68723E-006	0.00000E+000	7.59890E-004	-3.27687E+002	7	...........
	251	252	3.50461E+000	7.66767E-007	0.00000E+000	2.68722E-006	0.00000E+000	7.60424E-004	-3.27687E+002	7	...........
	252	253	3.50459E+000	7.66832E-007	0.00000E+000	2.68743E-006	0.00000E+000	7.60824E-004	-3.27687E+002	7	...........
	253	254	3.50459E+000	7.66605E-007	0.00000E+000	2.68664E-006	0.00000E+000	7.59457E-004	-3.27687E+002	7	...........
	254	255	3.50459E+000	7.66199E-007	0.00000E+000	2.68521E-006	0.00000E+000	7.58840E-004	-3.27687E+002	7	...........
	255	256	3.50458E+000	7.66405E-007	0.00000E+000	2.68593E-006	0.00000E+000	7.58940E-004	-3.27687E+002	7	...........
	256	257	3.50458E+000	7.66281E-007	0.00000E+000	2.68549E-006	0.00000E+000	7.59874E-004	-3.27687E+002	7	...........
	257	258	3.50456E+000	7.66340E-007	0.00000E+000	2.68569E-006	0.00000E+000	7.60657E-004	-3.27687E+002	7	...........
	258	259	3.50456E+000	7.66332E-007	0.00000E+000	2.68566E-006	0.00000E+000	7.59490E-004	-3.27687E+002	7	...........
	259	260	3.50455E+000	7.66561E-007	0.00000E+000	2.68645E-006	0.00000E+000	7.60590E-004	-3.27687E+002	7	...........
	260	261	3.50455E+000	7.66917E-007	0.00000E+000	2.68769E-006	0.00000E+000	7.63474E-004	-3.27687E+002	7	...........
	261	262	3.50453E+000	7.66363E-007	0.00000E+000	2.68574E-006	0.00000E+000	7.61940E-004	-3.27687E+002	7	...........
	262	263	3.50451E+000	7.66366E-007	0.00000E+000	2.68574E-006	0.00000E+000	7.61474E-004	-3.27687E+002	7	...........
	263	264	3.50451E+000	7.66293E-007	0.00000E+000	2.68548E-006	0.00000E+000	7.63724E-004	-3.27687E+002	7	...........
	264	265	3.50451E+000	7.66792E-007	0.00000E+000	2.68723E-006	0.00000E+000	7.63590E-004	-3.27687E+002	7	...........
	265	266	3.50450E+000	7.66217E-007	0.00000E+000	2.68520E-006	0.00000E+000	7.63207E-004	-3.27687E+002	7	...........
	266	267	3.50448E+000	7.66597E-007	0.00000E+000	2.68653E-006	0.00000E+000	7.65624E-004	-3.27687E+002	7	...........
	267	268	3.50447E+000	7.66532E-007	0.00000E+000	2.68629E-006	0.00000E+000	7.66007E-004	-3.27687E+002	7	...........
	268	269	3.50446E+000	7.66823E-007	0.00000E+000	2.68730E-006	0.00000E+000	7.64990E-004	-3.27687E+002	7	...........
	269	270	3.50447E+000	7.66544E-007	0.00000E+000	2.68633E-006	0.00000E+000	7.62657E-004	-3.27687E+002	7	...........
	270	271	3.50446E+000	7.66524E-007	0.00000E+000	2.68625E-006	0.00000E+000	7.62624E-004	-3.27687E+002	7	...........
	271	272	3.50445E+000	7.65735E-007	0.00000E+000	2.68348E-006	0.00000E+000	7.65240E-004	-3.27687E+002	7	...........
	272	273	3.50444E+000	7.65510E-007	0.00000E+000	2.68268E-006	0.00000E+000	7.65190E-004	-3.27687E+002	7	...........
	273	274	3.50443E+000	7.65735E-007	0.00000E+000	2.68347E-006	0.00000E+000	7.62507E-004	-3.27687E+002	7	...........
	274	275	3.50442E+000	7.66134E-007	0.00000E+000	2.68485E-006	0.00000E+000	7.65807E-004	-3.27687E+002	7	...........
	275	276	3.50441E+000	7.65999E-007	0.00000E+000	2.68437E-006	0.00000E+000	7.66157E-004	-3.27687E+002	7	...........
	276	277	3.50440E+000	7.66295E-007	0.00000E+000	2.68541E-006	0.00000E+000	7.64524E-004	-3.27687E+002	7	...........
	277	278	3.50439E+000	7.66808E-007	0.00000E+000	2.68719E-006	0.00000E+000	7.65407E-004	-3.27687E+002	7	...........
	278	279	3.50439E+000	7.66084E-007	0.00000E+000	2.68466E-006	0.00000E+000	7.65924E-004	-3.27687E+002	7	...........
	279	280	3.50438E+000	7.66127E-007	0.00000E+000	2.68480E-006	0.00000E+000	7.67974E-004	-3.27687E+002	7	...........
	280	281	3.50437E+000	7.66797E-007	0.00000E+000	2.68714E-006	0.00000E+000	7.66740E-004	-3.27687E+002	7	...........
	281	282	3.50437E+000	7.66662E-007	0.00000E+000	2.68667E-006	0.00000E+000	7.65207E-004	-3.27687E+002	7	...........
	282	283	3.50436E+000	7.67185E-007	0.00000E+000	2.68849E-006	0.00000E+000	7.69307E-004	-3.27687E+002	7	...........
	283	284	3.50436E+000	7.67175E-007	0.00000E+000	2.68845E-006	0.00000E+000	7.64957E-004	-3.27687E+002	7	...........
	284	285	3.50435E+000	7.66390E-007	0.00000E+000	2.68570E-006	0.00000E+000	7.68624E-004	-3.27687E+002	7	...........
	285	286	3.50434E+000	7.65992E-007	0.00000E+000	2.68430E-006	0.00000E+000	7.69907E-004	-3.27687E+002	7	...........
	286	287	3.50434E+000	7.65877E-007	0.00000E+000	2.68389E-006	0.00000E+000	7.66757E-004	-3.27687E+002	7	...........
	287	288	3.50432E+000	7.65874E-007	0.00000E+000	2.68387E-006	0.00000E+000	7.67790E-004	-3.27687E+002	7	...........
	288	289	3.50431E+000	7.66053E-007	0.00000E+000	2.68449E-006	0.00000E+000	7.66824E-004	-3.27687E+002	7	...........
	289	290	3.50431E+000	7.65995E-007	0.00000E+000	2.68429E-006	0.00000E+000	7.68207E-004	-3.27687E+002	7	...........
	290	291	3.50430E+000	7.65704E-007	0.00000E+000	2.68326E-006	0.00000E+000	7.66824E-004	-3.27687E+002	7	...........
	291	292	3.50430E+000	7.66044E-007	0.00000E+000	2.68445E-006	0.00000E+000	7.69007E-004	-3.27687E+002	7	...........
	292	293	3.50429E+000	7.65722E-007	0.00000E+000	2.68331E-006	0.00000E+000	7.69424E-004	-3.27687E+002	7	...........
	293	294	3.50427E+000	7.66043E-007	0.00000E+000	2.68442E-006	0.00000E+000	7.73074E-004	-3.27687E+002	7	...........
	294	295	3.50428E+000	7.66194E-007	0.00000E+000	2.68495E-006	0.00000E+000	7.70140E-004	-3.27687E+002	7	...........
	295	296	3.50426E+000	7.65622E-007	0.00000E+000	2.68294E-006	0.00000E+000	7.68040E-004	-3.27687E+002	7	...........
	296	297	3.50426E+000	7.66222E-007	0.00000E+000	2.68504E-006	0.00000E+000	7.69190E-004	-3.27687E+002	7	...........
	297	298	3.50426E+000	7.66164E-007	0.00000E+000	2.68484E-006	0.00000E+000	7.69874E-004	-3.27687E+002	7	...........
	298	299	3.50425E+000	7.66537E-007	0.00000E+000	2.68614E-006	0.00000E+000	7.70907E-004	-3.27687E+002	7	...........
	299	300	3.50424E+000	7.66396E-007	0.00000E+000	2.68563E-006	0.00000E+000	7.71207E-004	-3.27687E+002	7	...........
	300	301	3.50422E+000	7.66517E-007	0.00000E+000	2.68605E-006	0.00000E+000	7.70890E-004	-3.27687E+002	7	...........
	301	302	3.50422E+000	7.66485E-007	0.00000E+000	2.68593E-006	0.00000E+000	7.70207E-004	-3.27687E+002	7	...........
	302	303	3.50422E+000	7.67366E-007	0.00000E+000	2.68902E-006	0.00000E+000	7.71107E-004	-3.27687E+002	7	...........
	303	304	3.50421E+000	7.66793E-007	0.00000E+000	2.68700E-006	0.00000E+000	7.73357E-004	-3.27687E+002	7	...........
	304	305	3.50421E+000	7.66820E-007	0.00000E+000	2.68710E-006	0.00000E+000	7.70890E-004	-3.27687E+002	7	...........
	305	306	3.50420E+000	7.66931E-007	0.00000E+000	2.68748E-006	0.00000E+000	7.71474E-004	-3.27687E+002	7	...........
	306	307	3.50418E+000	7.66703E-007	0.00000E+000	2.68666E-006	0.00000E+000	7.74057E-004	-3.27687E+002	7	...........
	307	308	3.50418E+000	7.66781E-007	0.00000E+000	2.68694E-006	0.00000E+000	7.74974E-004	-3.27687E+002	7	...........
	308	309	3.50417E+000	7.66719E-007	0.00000E+000	2.68671E-006	0.00000E+000	7.72724E-004	-3.27687E+002	7	...........
	309	310	3.50416E+000	7.67247E-007	0.00000E+000	2.68856E-006	0.00000E+000	7.73307E-004	-3.27687E+002	7	...........
	310	311	3.50416E+000	7.67549E-007	0.00000E+000	2.68961E-006	0.00000E+000	7.72890E-004	-3.27687E+002	7	...........
	311	312	3.50414E+000	7.67219E-007	0.00000E+000	2.68844E-006	0.00000E+000	7.74857E-004	-3.27687E+002	7	...........
	312	313	3.50414E+000	7.67070E-007	0.00000E+000	2.68792E-006	0.00000E+000	7.77324E-004	-3.27687E+002	7	...........
	313	314	3.50414E+000	7.67377E-007	0.00000E+000	2.68900E-006	0.00000E+000	7.76140E-004	-3.27687E+002	7	...........
	314	315	3.50413E+000	7.67366E-007	0.00000E+000	2.68895E-006	0.00000E+000	7.77124E-004	-3.27687E+002	7	...........
	315	316	3.50412E+000	7.67493E-007	0.00000E+000	2.68939E-006	0.00000E+000	7.75690E-004	-3.27687E+002	7	...........
	316	317	3.50411E+000	7.67560E-007	0.00000E+000	2.68961E-006	0.00000E+000	7.76790E-004	-3.27687E+002	7	...........
	317	318	3.50410E+000	7.67542E-007	0.00000E+000	2.68954E-006	0.00000E+000	7.76124E-004	-3.27687E+002	7	...........
	318	319	3.50410E+000	7.67379E-007	0.00000E+000	2.68898E-006	0.00000E+000	7.76507E-004	-3.27687E+002	7	...........
	319	320	3.50410E+000	7.67829E-007	0.00000E+000	2.69055E-006	0.00000E+000	7.76224E-004	-3.27687E+002	7	...........
	320	321	3.50409E+000	7.67733E-007	0.00000E+000	2.69021E-006	0.00000E+000	7.78657E-004	-3.27687E+002	7	...........
	321	322	3.50408E+000	7.67781E-007	0.00000E+000	2.69037E-006	0.00000E+000	7.77290E-004	-3.27687E+002	7	...........
	322	323	3.50407E+000	7.67359E-007	0.00000E+000	2.68888E-006	0.00000E+000	7.76390E-004	-3.27687E+002	7	...........
	323	324	3.50407E+000	7.67345E-007	0.00000E+000	2.68883E-006	0.00000E+000	7.78590E-004	-3.27687E+002	7	...........
	324	325	3.50406E+000	7.67636E-007	0.00000E+000	2.68984E-006	0.00000E+000	7.78107E-004	-3.27687E+002	7	...........
	325	326	3.50405E+000	7.67778E-007	0.00000E+000	2.69033E-006	0.00000E+000	7.80357E-004	-3.27687E+002	7	...........
	326	327	3.50404E+000	7.68398E-007	0.00000E+000	2.69250E-006	0.00000E+000	7.76057E-004	-3.27687E+002	7	...........
	327	328	3.50404E+000	7.69077E-007	0.00000E+000	2.69487E-006	0.00000E+000	7.78690E-004	-3.27687E+002	7	...........
	328	329	3.50404E+000	7.68003E-007	0.00000E+000	2.69111E-006	0.00000E+000	7.79057E-004	-3.27687E+002	7	...........
	329	330	3.50402E+000	7.68044E-007	0.00000E+000	2.69124E-006	0.00000E+000	7.76674E-004	-3.27687E+002	7	...........
	330	331	3.50403E+000	7.68149E-007	0.00000E+000	2.69161E-006	0.00000E+000	7.78240E-004	-3.27687E+002	7	...........
	331	332	3.50402E+000	7.68203E-007	0.00000E+000	2.69180E-006	0.00000E+000	7.79824E-004	-3.27687E+002	7	...........
	332	333	3.50401E+000	7.68333E-007	0.00000E+000	2.69225E-006	0.00000E+000	7.78740E-004	-3.27687E+002	7	...........
	333	334	3.50401E+000	7.68376E-007	0.00000E+000	2.69240E-006	0.00000E+000	7.80840E-004	-3.27687E+002	7	...........
	334	335	3.50400E+000	7.68216E-007	0.00000E+000	2.69183E-006	0.00000E+000	7.79874E-004	-3.27687E+002	7	...........
	335	336	3.50400E+000	7.68128E-007	0.00000E+000	2.69152E-006	0.00000E+000	7.79774E-004	-3.27687E+002	7	...........
	336	337	3.50399E+000	7.68286E-007	0.00000E+000	2.69207E-006	0.00000E+000	7.80457E-004	-3.27687E+002	7	...........
	337	338	3.50398E+000	7.68418E-007	0.00000E+000	2.69252E-006	0.00000E+000	7.78190E-004	-3.27687E+002	7	...........
	338	339	3.50398E+000	7.68517E-007	0.00000E+000	2.69287E-006	0.00000E+000	7.80590E-004	-3.27687E+002	7	...........
	339	340	3.50397E+000	7.68284E-007	0.00000E+000	2.69204E-006	0.00000E+000	7.79790E-004	-3.27687E+002	7	...........
	340	341	3.50397E+000	7.68623E-007	0.00000E+000	2.69323E-006	0.00000E+000	7.79824E-004	-3.27687E+002	7	...........
	341	342	3.50397E+000	7.68625E-007	0.00000E+000	2.69324E-006	0.00000E+000	7.81590E-004	-3.27687E+002	7	...........
	342	343	3.50396E+000	7.68637E-007	0.00000E+000	2.69327E-006	0.00000E+000	7.78857E-004	-3.27687E+002	7	...........
	343	344	3.50395E+000	7.68874E-007	0.00000E+000	2.69410E-006	0.00000E+000	7.82007E-004	-3.27687E+002	7	...........
	344	345	3.50395E+000	7.69081E-007	0.00000E+000	2.69482E-006	0.00000E+000	7.81140E-004	-3.27687E+002	7	...........
	345	346	3.50394E+000	7.68767E-007	0.00000E+000	2.69371E-006	0.00000E+000	7.80674E-004	-3.27687E+002	7	...........
	346	347	3.50393E+000	7.68532E-007	0.00000E+000	2.69288E-006	0.00000E+000	7.80390E-004	-3.27687E+002	7	...........
	347	348	3.50393E+000	7.68698E-007	0.00000E+000	2.69346E-006	0.00000E+000	7.80840E-004	-3.27687E+002	7	...........
	348	349	3.50392E+000	7.68902E-007	0.00000E+000	2.69417E-006	0.00000E+000	7.80657E-004	-3.27687E+002	7	...........
	349	350	3.50391E+000	7.68956E-007	0.00000E+000	2.69435E-006	0.00000E+000	7.82424E-004	-3.27687E+002	7	...........
	350	351	3.50391E+000	7.68847E-007	0.00000E+000	2.69397E-006	0.00000E+000	7.78924E-004	-3.27687E+002	7	...........
	351	352	3.50390E+000	7.69543E-007	0.00000E+000	2.69640E-006	0.00000E+000	7.81007E-004	-3.27687E+002	7	...........
	352	353	3.50390E+000	7.69233E-007	0.00000E+000	2.69532E-006	0.00000E+000	7.79440E-004	-3.27687E+002	7	...........
	353	354	3.50389E+000	7.68944E-007	0.00000E+000	2.69430E-006	0.00000E+000	7.80674E-004	-3.27687E+002	7	...........
	354	355	3.50388E+000	7.69265E-007	0.00000E+000	2.69542E-006	0.00000E+000	7.82457E-004	-3.27687E+002	7	...........
	355	356	3.50388E+000	7.69265E-007	0.00000E+000	2.69542E-006	0.00000E+000	7.83007E-004	-3.27687E+002	7	...........
	356	357	3.50387E+000	7.68655E-007	0.00000E+000	2.69327E-006	0.00000E+000	7.81307E-004	-3.27687E+002	7	...........
	357	358	3.50386E+000	7.69227E-007	0.00000E+000	2.69526E-006	0.00000E+000	7.82507E-004	-3.27687E+002	7	...........
	358	359	3.50386E+000	7.69144E-007	0.00000E+000	2.69497E-006	0.00000E+000	7.84157E-004	-3.27687E+002	7	...........
	359	360	3.50385E+000	7.69402E-007	0.00000E+000	2.69587E-006	0.00000E+000	7.83207E-004	-3.27687E+002	7	...........
	360	361	3.50384E+000	7.69905E-007	0.00000E+000	2.69763E-006	0.00000E+000	7.83440E-004	-3.27687E+002	7	...........
	361	362	3.50384E+000	7.69476E-007	0.00000E+000	2.69612E-006	0.00000E+000	7.82074E-004	-3.27687E+002	7	...........
	362	363	3.50384E+000	7.68836E-007	0.00000E+000	2.69388E-006	0.00000E+000	7.84307E-004	-3.27687E+002	7	...........
	363	364	3.50383E+000	7.68920E-007	0.00000E+000	2.69417E-006	0.00000E+000	7.83240E-004	-3.27687E+002	7	...........
	364	365	3.50383E+000	7.69770E-007	0.00000E+000	2.69714E-006	0.00000E+000	7.82257E-004	-3.27687E+002	7	...........
	365	366	3.50382E+000	7.69466E-007	0.00000E+000	2.69607E-006	0.00000E+000	7.82090E-004	-3.27687E+002	7	...........
	366	367	3.50382E+000	7.69489E-007	0.00000E+000	2.69615E-006	0.00000E+000	7.84624E-004	-3.27687E+002	7	...........
	367	368	3.50382E+000	7.69598E-007	0.00000E+000	2.69653E-006	0.00000E+000	7.83074E-004	-3.27687E+002	7	...........
	368	369	3.50381E+000	7.69712E-007	0.00000E+000	2.69693E-006	0.00000E+000	7.82340E-004	-3.27687E+002	7	...........
	369	370	3.50381E+000	7.69693E-007	0.00000E+000	2.69685E-006	0.00000E+000	7.83390E-004	-3.27687E+002	7	...........
	370	371	3.50380E+000	7.69564E-007	0.00000E+000	2.69640E-006	0.00000E+000	7.81657E-004	-3.27687E+002	7	...........
	371	372	3.50379E+000	7.69320E-007	0.00000E+000	2.69554E-006	0.00000E+000	7.83690E-004	-3.27687E+002	7	...........
	372	373	3.50378E+000	7.69073E-007	0.00000E+000	2.69467E-006	0.00000E+000	7.83640E-004	-3.27687E+002	7	...........
	373	374	3.50378E+000	7.69463E-007	0.00000E+000	2.69603E-006	0.00000E+000	7.83890E-004	-3.27687E+002	7	...........
	374	375	3.50378E+000	7.69854E-007	0.00000E+000	2.69740E-006	0.00000E+000	7.82590E-004	-3.27687E+002	7	...........
	375	376	3.50377E+000	7.70072E-007	0.00000E+000	2.69816E-006	0.00000E+000	7.85524E-004	-3.27687E+002	7	...........
	376	377	3.50376E+000	7.70873E-007	0.00000E+000	2.70096E-006	0.00000E+000	7.82624E-004	-3.27687E+002	7	...........
	377	378	3.50376E+000	7.70382E-007	0.00000E+000	2.69924E-006	0.00000E+000	7.83424E-004	-3.27687E+002	7	...........
	378	379	3.50375E+000	7.70434E-007	0.00000E+000	2.69941E-006	0.00000E+000	7.83407E-004	-3.27687E+002	7	...........
	379	380	3.50375E+000	7.70450E-007	0.00000E+000	2.69947E-006	0.00000E+000	7.80274E-004	-3.27687E+002	7	...........
	380	381	3.50375E+000	7.69921E-007	0.00000E+000	2.69761E-006	0.00000E+000	7.82990E-004	-3.27687E+002	7	...........
	381	382	3.50374E+000	7.70126E-007	0.00000E+000	2.69832E-006	0.00000E+000	7.82640E-004	-3.27687E+002	7	...........
	382	383	3.50374E+000	7.70087E-007	0.00000E+000	2.69818E-006	0.00000E+000	7.84890E-004	-3.27687E+002	7	...........
	383	384	3.50374E+000	7.69682E-007	0.00000E+000	2.69676E-006	0.00000E+000	7.85090E-004	-3.27687E+002	7	...........
	384	385	3.50374E+000	7.70252E-007	0.00000E+000	2.69876E-006	0.00000E+000	7.83824E-004	-3.27687E+002	7	...........
	385	386	3.50374E+000	7.70045E-007	0.00000E+000	2.69803E-006	0.00000E+000	7.83257E-004	-3.27687E+002	7	...........
	386	387	3.50373E+000	7.70213E-007	0.00000E+000	2.69862E-006	0.00000E+000	7.85407E-004	-3.27687E+002	7	...........
	387	388	3.50372E+000	7.70509E-007	0.00000E+000	2.69964E-006	0.00000E+000	7.83590E-004	-3.27687E+002	7	...........
	388	389	3.50371E+000	7.70147E-007	0.00000E+000	2.69837E-006	0.00000E+000	7.84457E-004	-3.27687E+002	7	...........
	389	390	3.50371E+000	7.70000E-007	0.00000E+000	2.69786E-006	0.00000E+000	7.81974E-004	-3.27687E+002	7	...........
	390	391	3.50370E+000	7.70226E-007	0.00000E+000	2.69864E-006	0.00000E+000	7.82757E-004	-3.27687E+002	7	...........
	391	392	3.50369E+000	7.69895E-007	0.00000E+000	2.69748E-006	0.00000E+000	7.85307E-004	-3.27687E+002	7	...........
	392	393	3.50370E+000	7.70432E-007	0.00000E+000	2.69936E-006	0.00000E+000	7.83674E-004	-3.27687E+002	7	...........
	393	394	3.50368E+000	7.70414E-007	0.00000E+000	2.69929E-006	0.00000E+000	7.83207E-004	-3.27687E+002	7	...........
	394	395	3.50369E+000	7.69818E-007	0.00000E+000	2.69720E-006	0.00000E+000	7.85024E-004	-3.27687E+002	7	...........
	395	396	3.50368E+000	7.70330E-007	0.00000E+000	2.69899E-006	0.00000E+000	7.84757E-004	-3.27687E+002	7	...........
	396	397	3.50368E+000	7.70136E-007	0.00000E+000	2.69831E-006	0.00000E+000	7.85824E-004	-3.27687E+002	7	...........
	397	398	3.50367E+000	7.69944E-007	0.00000E+000	2.69763E-006	0.00000E+000	7.82674E-004	-3.27687E+002	7	...........
	398	399	3.50366E+000	7.70492E-007	0.00000E+000	2.69954E-006	0.00000E+000	7.84857E-004	-3.27687E+002	7	...........
	399	400	3.50367E+000	7.70933E-007	0.00000E+000	2.70109E-006	0.00000E+000	7.83874E-004	-3.27687E+002	7	...........
	400	401	3.50366E+000	7.70564E-007	0.00000E+000	2.69979E-006	0.00000E+000	7.86057E-004	-3.27687E+002	7	...........
	401	402	3.50366E+000	7.70005E-007	0.00000E+000	2.69783E-006	0.00000E+000	7.83324E-004	-3.27687E+002	7	...........
	402	403	3.50365E+000	7.70043E-007	0.00000E+000	2.69796E-006	0.00000E+000	7.85407E-004	-3.27687E+002	7	...........
	403	404	3.50364E+000	7.69989E-007	0.00000E+000	2.69777E-006	0.00000E+000	7.82824E-004	-3.27687E+002	7	...........
	404	405	3.50364E+000	7.69616E-007	0.00000E+000	2.69646E-006	0.00000E+000	7.83024E-004	-3.27687E+002	7	...........
	405	406	3.50364E+000	7.70070E-007	0.00000E+000	2.69805E-006	0.00000E+000	7.82990E-004	-3.27687E+002	7	...........
	406	407	3.50363E+000	7.69962E-007	0.00000E+000	2.69766E-006	0.00000E+000	7.82140E-004	-3.27687E+002	7	...........
	407	408	3.50363E+000	7.69781E-007	0.00000E+000	2.69703E-006	0.00000E+000	7.85324E-004	-3.27687E+002	7	...........
	408	409	3.50364E+000	7.70722E-007	0.00000E+000	2.70033E-006	0.00000E+000	7.83307E-004	-3.27687E+002	7	...........
	409	410	3.50362E+000	7.71197E-007	0.00000E+000	2.70198E-006	0.00000E+000	7.86224E-004	-3.27687E+002	7	...........
	410	411	3.50362E+000	7.70814E-007	0.00000E+000	2.70064E-006	0.00000E+000	7.82790E-004	-3.27687E+002	7	...........
	411	412	3.50360E+000	7.70947E-007	0.00000E+000	2.70109E-006	0.00000E+000	7.84657E-004	-3.27687E+002	7	...........
	412	413	3.50360E+000	7.70757E-007	0.00000E+000	2.70042E-006	0.00000E+000	7.83490E-004	-3.27687E+002	7	...........
	413	414	3.50360E+000	7.71164E-007	0.00000E+000	2.70185E-006	0.00000E+000	7.83457E-004	-3.27687E+002	7	...........
	414	415	3.50360E+000	7.71126E-007	0.00000E+000	2.70172E-006	0.00000E+000	7.84507E-004	-3.27687E+002	7	...........
	415	416	3.50360E+000	7.70935E-007	0.00000E+000	2.70105E-006	0.00000E+000	7.81790E-004	-3.27687E+002	7	...........
	416	417	3.50359E+000	7.70523E-007	0.00000E+000	2.69960E-006	0.00000E+000	7.80607E-004	-3.27687E+002	7	...........
	417	418	3.50359E+000	7.70859E-007	0.00000E+000	2.70077E-006	0.00000E+000	7.80674E-004	-3.27687E+002	7	...........
	418	419	3.50357E+000	7.70450E-007	0.00000E+000	2.69933E-006	0.00000E+000	7.82940E-004	-3.27687E+002	7	...........
	419	420	3.50357E+000	7.70200E-007	0.00000E+000	2.69845E-006	0.00000E+000	7.81640E-004	-3.27687E+002	7	...........
	420	421	3.50357E+000	7.70069E-007	0.00000E+000	2.69799E-006	0.00000E+000	7.83174E-004	-3.27687E+002	7	...........
	421	422	3.50357E+000	7.70177E-007	0.00000E+000	2.69837E-006	0.00000E+000	7.82790E-004	-3.27687E+002	7	...........
	422	423	3.50356E+000	7.70624E-007	0.00000E+000	2.69992E-006	0.00000E+000	7.82757E-004	-3.27687E+002	7	...........
	423	424	3.50356E+000	7.70259E-007	0.00000E+000	2.69865E-006	0.00000E+000	7.83590E-004	-3.27687E+002	7	...........
	424	425	3.50355E+000	7.70382E-007	0.00000E+000	2.69907E-006	0.00000E+000	7.81824E-004	-3.27687E+002	7	...........
	425	426	3.50354E+000	7.70879E-007	0.00000E+000	2.70081E-006	0.00000E+000	7.83274E-004	-3.27687E+002	7	...........
	426	427	3.50353E+000	7.70845E-007	0.00000E+000	2.70068E-006	0.00000E+000	7.83640E-004	-3.27687E+002	7	...........
	427	428	3.50352E+000	7.70183E-007	0.00000E+000	2.69835E-006	0.00000E+000	7.82274E-004	-3.27687E+002	7	...........
	428	429	3.50353E+000	7.69766E-007	0.00000E+000	2.69690E-006	0.00000E+000	7.82224E-004	-3.27687E+002	7	...........
	429	430	3.50352E+000	7.70020E-007	0.00000E+000	2.69778E-006	0.00000E+000	7.80874E-004	-3.27687E+002	7	...........
	430	431	3.50352E+000	7.69856E-007	0.00000E+000	2.69720E-006	0.00000E+000	7.81190E-004	-3.27687E+002	7	...........
	431	432	3.50351E+000	7.69382E-007	0.00000E+000	2.69553E-006	0.00000E+000	7.82440E-004	-3.27687E+002	7	...........
	432	433	3.50351E+000	7.69762E-007	0.00000E+000	2.69687E-006	0.00000E+000	7.84357E-004	-3.27687E+002	7	...........
	433	434	3.50351E+000	7.70200E-007	0.00000E+000	2.69840E-006	0.00000E+000	7.81357E-004	-3.27687E+002	7	...........
	434	435	3.50350E+000	7.70104E-007	0.00000E+000	2.69806E-006	0.00000E+000	7.83407E-004	-3.27687E+002	7	...........
	435	436	3.50351E+000	7.70294E-007	0.00000E+000	2.69873E-006	0.00000E+000	7.85740E-004	-3.27687E+002	7	...........
	436	437	3.50350E+000	7.70359E-007	0.00000E+000	2.69895E-006	0.00000E+000	7.83907E-004	-3.27687E+002	7	...........
	437	438	3.50350E+000	7.70034E-007	0.00000E+000	2.69781E-006	0.00000E+000	7.84324E-004	-3.27687E+002	7	...........
	438	439	3.50349E+000	7.70643E-007	0.00000E+000	2.69994E-006	0.00000E+000	7.84140E-004	-3.27687E+002	7	...........
	439	440	3.50348E+000	7.70473E-007	0.00000E+000	2.69934E-006	0.00000E+000	7.84340E-004	-3.27687E+002	7	...........
	440	441	3.50347E+000	7.70804E-007	0.00000E+000	2.70049E-006	0.00000E+000	7.83324E-004	-3.27687E+002	7	...........
	441	442	3.50346E+000	7.70874E-007	0.00000E+000	2.70073E-006	0.00000E+000	7.83540E-004	-3.27687E+002	7	...........
	442	443	3.50346E+000	7.71332E-007	0.00000E+000	2.70233E-006	0.00000E+000	7.84107E-004	-3.27687E+002	7	...........
	443	444	3.50345E+000	7.70786E-007	0.00000E+000	2.70041E-006	0.00000E+000	7.81190E-004	-3.27687E+002	7	...........
	444	445	3.50346E+000	7.71046E-007	0.00000E+000	2.70132E-006	0.00000E+000	7.81924E-004	-3.27687E+002	7	...........
	445	446	3.50345E+000	7.71240E-007	0.00000E+000	2.70200E-006	0.00000E+000	7.84190E-004	-3.27687E+002	7	...........
	446	447	3.50343E+000	7.70789E-007	0.00000E+000	2.70041E-006	0.00000E+000	7.82690E-004	-3.27687E+002	7	...........
	447	448	3.50343E+000	7.71157E-007	0.00000E+000	2.70170E-006	0.00000E+000	7.82940E-004	-3.27687E+002	7	...........
	448	449	3.50343E+000	7.71073E-007	0.00000E+000	2.70140E-006	0.00000E+000	7.81624E-004	-3.27687E+002	7	...........
	449	450	3.50343E+000	7.71341E-007	0.00000E+000	2.70234E-006	0.00000E+000	7.82690E-004	-3.27687E+002	7	...........
	450	451	3.50341E+000	7.70755E-007	0.00000E+000	2.70027E-006	0.00000E+000	7.82007E-004	-3.27687E+002	7	...........
	451	452	3.50342E+000	7.71000E-007	0.00000E+000	2.70114E-006	0.00000E+000	7.81190E-004	-3.27687E+002	7	...........
	452	453	3.50341E+000	7.70492E-007	0.00000E+000	2.69935E-006	0.00000E+000	7.83307E-004	-3.27687E+002	7	...........
	453	454	3.50341E+000	7.70786E-007	0.00000E+000	2.70038E-006	0.00000E+000	7.82024E-004	-3.27687E+002	7	...........
	454	455	3.50340E+000	7.70187E-007	0.00000E+000	2.69827E-006	0.00000E+000	7.80624E-004	-3.27687E+002	7	...........
	455	456	3.50339E+000	7.70389E-007	0.00000E+000	2.69897E-006	0.00000E+000	7.80274E-004	-3.27687E+002	7	...........
	456	457	3.50338E+000	7.70589E-007	0.00000E+000	2.69967E-006	0.00000E+000	7.81990E-004	-3.27687E+002	7	...........
	457	458	3.50338E+000	7.70969E-007	0.00000E+000	2.70100E-006	0.00000E+000	7.81407E-004	-3.27687E+002	7	...........
	458	459	3.50338E+000	7.71629E-007	0.00000E+000	2.70331E-006	0.00000E+000	7.81724E-004	-3.27687E+002	7	...........
	459	460	3.50336E+000	7.71693E-007	0.00000E+000	2.70352E-006	0.00000E+000	7.82840E-004	-3.27687E+002	7	...........
	460	461	3.50336E+000	7.71103E-007	0.00000E+000	2.70145E-006	0.00000E+000	7.83424E-004	-3.27687E+002	7	...........
	461	462	3.50335E+000	7.71062E-007	0.00000E+000	2.70130E-006	0.00000E+000	7.81240E-004	-3.27687E+002	7	...........
	462	463	3.50335E+000	7.70856E-007	0.00000E+000	2.70058E-006	0.00000E+000	7.83857E-004	-3.27687E+002	7	...........
	463	464	3.50334E+000	7.70855E-007	0.00000E+000	2.70057E-006	0.00000E+000	7.82374E-004	-3.27687E+002	7	...........
	464	465	3.50334E+000	7.71055E-007	0.00000E+000	2.70127E-006	0.00000E+000	7.81940E-004	-3.27687E+002	7	...........
	465	466	3.50332E+000	7.71289E-007	0.00000E+000	2.70207E-006	0.00000E+000	7.84907E-004	-3.27687E+002	7	...........
	466	467	3.50333E+000	7.71174E-007	0.00000E+000	2.70167E-006	0.00000E+000	7.80340E-004	-3.27687E+002	7	...........
	467	468	3.50333E+000	7.71547E-007	0.00000E+000	2.70299E-006	0.00000E+000	7.82890E-004	-3.27687E+002	7	...........
	468	469	3.50332E+000	7.70763E-007	0.00000E+000	2.70023E-006	0.00000E+000	7.83424E-004	-3.27687E+002	7	...........
	469	470	3.50332E+000	7.70526E-007	0.00000E+000	2.69940E-006	0.00000E+000	7.81340E-004	-3.27687E+002	7	...........
	470	471	3.50331E+000	7.70189E-007	0.00000E+000	2.69821E-006	0.00000E+000	7.81924E-004	-3.27687E+002	7	...........
	471	472	3.50331E+000	7.69793E-007	0.00000E+000	2.69682E-006	0.00000E+000	7.82857E-004	-3.27687E+002	7	...........
	472	473	3.50330E+000	7.70291E-007	0.00000E+000	2.69856E-006	0.00000E+000	7.81957E-004	-3.27687E+002	7	...........
	473	474	3.50330E+000	7.70844E-007	0.00000E+000	2.70050E-006	0.00000E+000	7.82774E-004	-3.27687E+002	7	...........
	474	475	3.50329E+000	7.71147E-007	0.00000E+000	2.70156E-006	0.00000E+000	7.82590E-004	-3.27687E+002	7	...........
	475	476	3.50329E+000	7.71777E-007	0.00000E+000	2.70376E-006	0.00000E+000	7.83157E-004	-3.27687E+002	7	...........
	476	477	3.50329E+000	7.71272E-007	0.00000E+000	2.70199E-006	0.00000E+000	7.82540E-004	-3.27687E+002	7	...........
	477	478	3.50328E+000	7.71086E-007	0.00000E+000	2.70133E-006	0.00000E+000	7.81007E-004	-3.27687E+002	7	...........
	478	479	3.50328E+000	7.70836E-007	0.00000E+000	2.70045E-006	0.00000E+000	7.79690E-004	-3.27687E+002	7	...........
	479	480	3.50327E+000	7.70845E-007	0.00000E+000	2.70047E-006	0.00000E+000	7.82124E-004	-3.27687E+002	7	...........
	480	481	3.50326E+000	7.71345E-007	0.00000E+000	2.70222E-006	0.00000E+000	7.79490E-004	-3.27687E+002	7	...........
	481	482	3.50326E+000	7.71566E-007	0.00000E+000	2.70300E-006	0.00000E+000	7.81724E-004	-3.27687E+002	7	...........
	482	483	3.50327E+000	7.71894E-007	0.00000E+000	2.70415E-006	0.00000E+000	7.81357E-004	-3.27687E+002	7	...........
	483	484	3.50326E+000	7.71630E-007	0.00000E+000	2.70322E-006	0.00000E+000	7.81440E-004	-3.27687E+002	7	...........
	484	485	3.50325E+000	7.71423E-007	0.00000E+000	2.70249E-006	0.00000E+000	7.79490E-004	-3.27687E+002	7	...........
	485	486	3.50324E+000	7.71380E-007	0.00000E+000	2.70233E-006	0.00000E+000	7.81840E-004	-3.27687E+002	7	...........
	486	487	3.50324E+000	7.72218E-007	0.00000E+000	2.70526E-006	0.00000E+000	7.79924E-004	-3.27687E+002	7	...........
	487	488	3.50323E+000	7.71254E-007	0.00000E+000	2.70188E-006	0.00000E+000	7.79174E-004	-3.27687E+002	7	...........
	488	489	3.50323E+000	7.71208E-007	0.00000E+000	2.70172E-006	0.00000E+000	7.79124E-004	-3.27687E+002	7	...........
	489	490	3.50322E+000	7.71895E-007	0.00000E+000	2.70412E-006	0.00000E+000	7.82774E-004	-3.27687E+002	7	...........
	490	491	3.50322E+000	7.71935E-007	0.00000E+000	2.70426E-006	0.00000E+000	7.80990E-004	-3.27687E+002	7	...........
	491	492	3.50323E+000	7.72376E-007	0.00000E+000	2.70581E-006	0.00000E+000	7.81557E-004	-3.27687E+002	7	...........
	492	493	3.50321E+000	7.72090E-007	0.00000E+000	2.70480E-006	0.00000E+000	7.81224E-004	-3.27687E+002	7	...........
	493	494	3.50321E+000	7.71188E-007	0.00000E+000	2.70163E-006	0.00000E+000	7.81440E-004	-3.27687E+002	7	...........
	494	495	3.50319E+000	7.71167E-007	0.00000E+000	2.70155E-006	0.00000E+000	7.83490E-004	-3.27687E+002	7	...........
	495	496	3.50319E+000	7.71217E-007	0.00000E+000	2.70172E-006	0.00000E+000	7.82240E-004	-3.27687E+002	7	...........
	496	497	3.50318E+000	7.71404E-007	0.00000E+000	2.70237E-006	0.00000E+000	7.82707E-004	-3.27687E+002	7	...........
	497	498	3.50319E+000	7.71877E-007	0.00000E+000	2.70403E-006	0.00000E+000	7.82707E-004	-3.27687E+002	7	...........
	498	499	3.50317E+000	7.71581E-007	0.00000E+000	2.70298E-006	0.00000E+000	7.82490E-004	-3.27687E+002	7	...........
	499	500	3.50316E+000	7.71738E-007	0.00000E+000	2.70352E-006	0.00000E+000	7.83124E-004	-3.27687E+002	7	...........
	500	501	3.50316E+000	7.71437E-007	0.00000E+000	2.70247E-006	0.00000E+000	7.81174E-004	-3.27687E+002	7	...........
	501	502	3.50316E+000	7.71935E-007	0.00000E+000	2.70421E-006	0.00000E+000	7.81124E-004	-3.27687E+002	7	...........
	502	503	3.50314E+000	7.72022E-007	0.00000E+000	2.70450E-006	0.00000E+000	7.81307E-004	-3.27687E+002	7	...........
	503	504	3.50314E+000	7.71441E-007	0.00000E+000	2.70247E-006	0.00000E+000	7.83224E-004	-3.27687E+002	7	...........
	504	505	3.50314E+000	7.71574E-007	0.00000E+000	2.70294E-006	0.00000E+000	7.81240E-004	-3.27687E+002	7	...........
	505	506	3.50313E+000	7.71238E-007	0.00000E+000	2.70175E-006	0.00000E+000	7.80024E-004	-3.27687E+002	7	...........
	506	507	3.50314E+000	7.71717E-007	0.00000E+000	2.70343E-006	0.00000E+000	7.81474E-004	-3.27687E+002	7	...........
	507	508	3.50313E+000	7.71957E-007	0.00000E+000	2.70426E-006	0.00000E+000	7.81874E-004	-3.27687E+002	7	...........
	508	509	3.50312E+000	7.72237E-007	0.00000E+000	2.70524E-006	0.00000E+000	7.83140E-004	-3.27687E+002	7	...........
	509	510	3.50311E+000	7.71681E-007	0.00000E+000	2.70329E-006	0.00000E+000	7.81407E-004	-3.27687E+002	7	...........
	510	511	3.50311E+000	7.71670E-007	0.00000E+000	2.70324E-006	0.00000E+000	7.80374E-004	-3.27687E+002	7	...........
	511	512	3.50311E+000	7.71944E-007	0.00000E+000	2.70421E-006	0.00000E+000	7.79490E-004	-3.27687E+002	7	...........
	512	513	3.50310E+000	7.71750E-007	0.00000E+000	2.70352E-006	0.00000E+000	7.81907E-004	-3.27687E+002	7	...........
	513	514	3.50310E+000	7.71846E-007	0.00000E+000	2.70385E-006	0.00000E+000	7.82940E-004	-3.27687E+002	7	...........
	514	515	3.50310E+000	7.72112E-007	0.00000E+000	2.70478E-006	0.00000E+000	7.83407E-004	-3.27687E+002	7	...........
	515	516	3.50309E+000	7.72370E-007	0.00000E+000	2.70568E-006	0.00000E+000	7.82974E-004	-3.27687E+002	7	...........
	516	517	3.50309E+000	7.72788E-007	0.00000E+000	2.70714E-006	0.00000E+000	7.82040E-004	-3.27687E+002	7	...........
	517	518	3.50307E+000	7.72835E-007	0.00000E+000	2.70730E-006	0.00000E+000	7.79574E-004	-3.27687E+002	7	...........
	518	519	3.50308E+000	7.72619E-007	0.00000E+000	2.70654E-006	0.00000E+000	7.79940E-004	-3.27687E+002	7	...........
	519	520	3.50307E+000	7.72875E-007	0.00000E+000	2.70743E-006	0.00000E+000	7.81507E-004	-3.27687E+002	7	...........
	520	521	3.50308E+000	7.72728E-007	0.00000E+000	2.70693E-006	0.00000E+000	7.79324E-004	-3.27687E+002	7	...........
	521	522	3.50306E+000	7.72388E-007	0.00000E+000	2.70572E-006	0.00000E+000	7.81924E-004	-3.27687E+002	7	...........
	522	523	3.50306E+000	7.72807E-007	0.00000E+000	2.70719E-006	0.00000E+000	7.80507E-004	-3.27687E+002	7	...........
	523	524	3.50305E+000	7.73000E-007	0.00000E+000	2.70786E-006	0.00000E+000	7.83990E-004	-3.27687E+002	7	...........
	524	525	3.50304E+000	7.73213E-007	0.00000E+000	2.70860E-006	0.00000E+000	7.79324E-004	-3.27687E+002	7	...........
	525	526	3.50304E+000	7.73234E-007	0.00000E+000	2.70867E-006	0.00000E+000	7.81590E-004	-3.27687E+002	7	...........
	526	527	3.50303E+000	7.73006E-007	0.00000E+000	2.70787E-006	0.00000E+000	7.78474E-004	-3.27687E+002	7	...........
	527	528	3.50304E+000	7.73120E-007	0.00000E+000	2.70827E-006	0.00000E+000	7.80824E-004	-3.27687E+002	7	...........
	528	529	3.50303E+000	7.72762E-007	0.00000E+000	2.70701E-006	0.00000E+000	7.80440E-004	-3.27687E+002	7	...........
	529	530	3.50303E+000	7.73026E-007	0.00000E+000	2.70794E-006	0.00000E+000	7.81207E-004	-3.27687E+002	7	...........
	530	531	3.50303E+000	7.73083E-007	0.00000E+000	2.70813E-006	0.00000E+000	7.83357E-004	-3.27687E+002	7	...........
	531	532	3.50302E+000	7.73052E-007	0.00000E+000	2.70802E-006	0.00000E+000	7.80357E-004	-3.27687E+002	7	...........
	532	533	3.50301E+000	7.73157E-007	0.00000E+000	2.70838E-006	0.00000E+000	7.81574E-004	-3.27687E+002	7	...........
	533	534	3.50301E+000	7.72934E-007	0.00000E+000	2.70760E-006	0.00000E+000	7.80557E-004	-3.27687E+002	7	...........
	534	535	3.50300E+000	7.72585E-007	0.00000E+000	2.70636E-006	0.00000E+000	7.80124E-004	-3.27687E+002	7	...........
	535	536	3.50300E+000	7.72305E-007	0.00000E+000	2.70538E-006	0.00000E+000	7.77440E-004	-3.27687E+002	7	...........
	536	537	3.50300E+000	7.72069E-007	0.00000E+000	2.70456E-006	0.00000E+000	7.80207E-004	-3.27687E+002	7	...........
	537	538	3.50300E+000	7.72269E-007	0.00000E+000	2.70526E-006	0.00000E+000	7.81307E-004	-3.27687E+002	7	...........
	538	539	3.50300E+000	7.72123E-007	0.00000E+000	2.70474E-006	0.00000E+000	7.80624E-004	-3.27687E+002	7	...........
	539	540	3.50299E+000	7.72699E-007	0.00000E+000	2.70676E-006	0.00000E+000	7.82090E-004	-3.27687E+002	7	...........
	540	541	3.50298E+000	7.73030E-007	0.00000E+000	2.70791E-006	0.00000E+000	7.81224E-004	-3.27687E+002	7	...........
	541	542	3.50299E+000	7.72956E-007	0.00000E+000	2.70765E-006	0.00000E+000	7.80907E-004	-3.27687E+002	7	...........
	542	543	3.50298E+000	7.71988E-007	0.00000E+000	2.70426E-006	0.00000E+000	7.80290E-004	-3.27687E+002	7	...........
	543	544	3.50298E+000	7.72055E-007	0.00000E+000	2.70449E-006	0.00000E+000	7.81974E-004	-3.27687E+002	7	...........
	544	545	3.50298E+000	7.72313E-007	0.00000E+000	2.70540E-006	0.00000E+000	7.80407E-004	-3.27687E+002	7	...........
	545	546	3.50296E+000	7.71890E-007	0.00000E+000	2.70390E-006	0.00000E+000	7.78224E-004	-3.27687E+002	7	...........
	546	547	3.50296E+000	7.72076E-007	0.00000E+000	2.70455E-006	0.00000E+000	7.81657E-004	-3.27687E+002	7	...........
	547	548	3.50295E+000	7.72258E-007	0.00000E+000	2.70518E-006	0.00000E+000	7.80940E-004	-3.27687E+002	7	...........
	548	549	3.50294E+000	7.72261E-007	0.00000E+000	2.70518E-006	0.00000E+000	7.78874E-004	-3.27687E+002	7	...........
	549	550	3.50294E+000	7.72158E-007	0.00000E+000	2.70482E-006	0.00000E+000	7.81074E-004	-3.27687E+002	7	...........
	550	551	3.50293E+000	7.72504E-007	0.00000E+000	2.70603E-006	0.00000E+000	7.82674E-004	-3.27687E+002	7	...........
	551	552	3.50293E+000	7.71791E-007	0.00000E+000	2.70353E-006	0.00000E+000	7.78390E-004	-3.27687E+002	7	...........
	552	553	3.50292E+000	7.71872E-007	0.00000E+000	2.70380E-006	0.00000E+000	7.80740E-004	-3.27687E+002	7	...........
	553	554	3.50291E+000	7.71240E-007	0.00000E+000	2.70158E-006	0.00000E+000	7.80207E-004	-3.27687E+002	7	...........
	554	555	3.50291E+000	7.71586E-007	0.00000E+000	2.70279E-006	0.00000E+000	7.80507E-004	-3.27687E+002	7	...........
	555	556	3.50291E+000	7.71425E-007	0.00000E+000	2.70223E-006	0.00000E+000	7.79590E-004	-3.27687E+002	7	...........
	556	557	3.50291E+000	7.71192E-007	0.00000E+000	2.70141E-006	0.00000E+000	7.80707E-004	-3.27687E+002	7	...........
	557	558	3.50290E+000	7.71821E-007	0.00000E+000	2.70361E-006	0.00000E+000	7.81340E-004	-3.27687E+002	7	...........
	558	559	3.50289E+000	7.71309E-007	0.00000E+000	2.70181E-006	0.00000E+000	7.78840E-004	-3.27687E+002	7	...........
	559	560	3.50288E+000	7.71496E-007	0.00000E+000	2.70246E-006	0.00000E+000	7.81074E-004	-3.27687E+002	7	...........
	560	561	3.50287E+000	7.71461E-007	0.00000E+000	2.70233E-006	0.00000E+000	7.79474E-004	-3.27687E+002	7	...........
	561	562	3.50287E+000	7.71161E-007	0.00000E+000	2.70127E-006	0.00000E+000	7.81774E-004	-3.27687E+002	7	...........
	562	563	3.50288E+000	7.71191E-007	0.00000E+000	2.70139E-006	0.00000E+000	7.82007E-004	-3.27687E+002	7	...........
	563	564	3.50288E+000	7.71253E-007	0.00000E+000	2.70160E-006	0.00000E+000	7.79957E-004	-3.27687E+002	7	...........
	564	565	3.50287E+000	7.71264E-007	0.00000E+000	2.70164E-006	0.00000E+000	7.80907E-004	-3.27687E+002	7	...........
	565	566	3.50287E+000	7.71679E-007	0.00000E+000	2.70309E-006	0.00000E+000	7.79490E-004	-3.27687E+002	7	...........
	566	567	3.50287E+000	7.71602E-007	0.00000E+000	2.70282E-006	0.00000E+000	7.77524E-004	-3.27687E+002	7	...........
	567	568	3.50286E+000	7.71911E-007	0.00000E+000	2.70390E-006	0.00000E+000	7.80824E-004	-3.27687E+002	7	...........
	568	569	3.50286E+000	7.71812E-007	0.00000E+000	2.70355E-006	0.00000E+000	7.80257E-004	-3.27687E+002	7	...........
	569	570	3.50286E+000	7.71652E-007	0.00000E+000	2.70299E-006	0.00000E+000	7.80907E-004	-3.27687E+002	7	...........
	570	571	3.50285E+000	7.71432E-007	0.00000E+000	2.70221E-006	0.00000E+000	7.84057E-004	-3.27687E+002	7	...........
	571	572	3.50285E+000	7.71487E-007	0.00000E+000	2.70240E-006	0.00000E+000	7.81974E-004	-3.27687E+002	7	...........
	572	573	3.50283E+000	7.71993E-007	0.00000E+000	2.70416E-006	0.00000E+000	7.83240E-004	-3.27687E+002	7	...........
	573	574	3.50284E+000	7.72337E-007	0.00000E+000	2.70537E-006	0.00000E+000	7.77090E-004	-3.27687E+002	7	...........
	574	575	3.50284E+000	7.72829E-007	0.00000E+000	2.70709E-006	0.00000E+000	7.77807E-004	-3.27687E+002	7	...........
	575	576	3.50282E+000	7.71570E-007	0.00000E+000	2.70267E-006	0.00000E+000	7.83757E-004	-3.27687E+002	7	...........
	576	577	3.50282E+000	7.72237E-007	0.00000E+000	2.70500E-006	0.00000E+000	7.80590E-004	-3.27687E+002	7	...........
	577	578	3.50282E+000	7.72055E-007	0.00000E+000	2.70437E-006	0.00000E+000	7.80124E-004	-3.27687E+002	7	...........
	578	579	3.50282E+000	7.71773E-007	0.00000E+000	2.70338E-006	0.00000E+000	7.81457E-004	-3.27687E+002	7	...........
	579	580	3.50281E+000	7.72314E-007	0.00000E+000	2.70527E-006	0.00000E+000	7.80990E-004	-3.27687E+002	7	...........
	580	581	3.50280E+000	7.71885E-007	0.00000E+000	2.70376E-006	0.00000E+000	7.81940E-004	-3.27687E+002	7	...........
	581	582	3.50279E+000	7.72235E-007	0.00000E+000	2.70498E-006	0.00000E+000	7.81040E-004	-3.27687E+002	7	...........
	582	583	3.50280E+000	7.73098E-007	0.00000E+000	2.70800E-006	0.00000E+000	7.80774E-004	-3.27687E+002	7	...........
	583	584	3.50280E+000	7.73030E-007	0.00000E+000	2.70777E-006	0.00000E+000	7.80690E-004	-3.27687E+002	7	...........
	584	585	3.50279E+000	7.73103E-007	0.00000E+000	2.70802E-006	0.00000E+000	7.80440E-004	-3.27687E+002	7	...........
	585	586	3.50278E+000	7.72553E-007	0.00000E+000	2.70609E-006	0.00000E+000	7.81940E-004	-3.27687E+002	7	...........
	586	587	3.50278E+000	7.72759E-007	0.00000E+000	2.70681E-006	0.00000E+000	7.83357E-004	-3.27687E+002	7	...........
	587	588	3.50277E+000	7.72378E-007	0.00000E+000	2.70546E-006	0.00000E+000	7.81724E-004	-3.27687E+002	7	...........
	588	589	3.50277E+000	7.72470E-007	0.00000E+000	2.70578E-006	0.00000E+000	7.82107E-004	-3.27687E+002	7	...........
	589	590	3.50276E+000	7.72385E-007	0.00000E+000	2.70548E-006	0.00000E+000	7.83174E-004	-3.27687E+002	7	...........
	590	591	3.50277E+000	7.72476E-007	0.00000E+000	2.70580E-006	0.00000E+000	7.83174E-004	-3.27687E+002	7	...........
	591	592	3.50275E+000	7.72841E-007	0.00000E+000	2.70707E-006	0.00000E+000	7.81557E-004	-3.27687E+002	7	...........
	592	593	3.50276E+000	7.72516E-007	0.00000E+000	2.70594E-006	0.00000E+000	7.83224E-004	-3.27687E+002	7	...........
	593	594	3.50275E+000	7.72314E-007	0.00000E+000	2.70523E-006	0.00000E+000	7.80490E-004	-3.27687E+002	7	...........
	594	595	3.50275E+000	7.72420E-007	0.00000E+000	2.70559E-006	0.00000E+000	7.79907E-004	-3.27687E+002	7	...........
	595	596	3.50274E+000	7.73514E-007	0.00000E+000	2.70942E-006	0.00000E+000	7.81107E-004	-3.27687E+002	7	...........
	596	597	3.50274E+000	7.72904E-007	0.00000E+000	2.70728E-006	0.00000E+000	7.80890E-004	-3.27687E+002	7	...........
	597	598	3.50274E+000	7.72944E-007	0.00000E+000	2.70742E-006	0.00000E+000	7.81474E-004	-3.27687E+002	7	...........
	598	599	3.50274E+000	7.72712E-007	0.00000E+000	2.70661E-006	0.00000E+000	7.81824E-004	-3.27687E+002	7	...........
	599	600	3.50274E+000	7.72974E-007	0.00000E+000	2.70753E-006	0.00000E+000	7.83157E-004	-3.27687E+002	7	...........
