EXPLAIN
TAG	PWR800_READVOLTAGE
TITLE	LABEL	PWR Read Voltage	Test Identifier
DATE	LABEL	22.4.2024	Date
TIME	LABEL	17:49:27	Time
NOTES	NOTES	1	Notes...
	
PSTAT	PSTAT	REF600-12055	Potentiostat
CAPACITY	QUANT	1.00000E+000	Capacity (A-hr)
CELLTYPE	SELECTOR	1	Cell Type
WORKINGCONNECTION	SELECTOR	0	Working Connection
MAXTIME	VARIABLEANDUNITS	6.00000E+002	s	6.00000E+002	second(s)	Max Time
SAMPLETIME	QUANT	1.00000E+000	Sample Period (s)
STOPAT1	MULTIPARAM	0	0.00000E+000	Stop At 1	None	N/A
STOPAT2	MULTIPARAM	0	0.00000E+000	Stop At 2	None	N/A
AESBHCSELECTOR	TOGGLE	F	Save Both Half Cells
EOC	QUANT	3.719576	Open Circuit (V)
SEQUENCER	TOGGLE	TRUE	Run as Sequence
PSTATMODEL	IQUANT	4	Pstat Model
PSTATSECTION	LABEL	REF600-12055	Pstat Section
PSTATSERIALNO	LABEL	12055	Pstat Serial Number
CTRLMODE	IQUANT	0	Control Mode
ELECTROMETER	IQUANT	0	RE=0 or CS=1
IESTAB	IQUANT	0	I/E Stability
CASPEED	IQUANT	4	Control Amp Speed
CONVENTION	IQUANT	1	Current Convention
ICHRANGE	IQUANT	2	Ich Range
ICHRANGEMODE	TOGGLE	T	Ich Auto Range
ICHOFFSETENABLE	TOGGLE	F	Ich Offset Enable
ICHOFFSET	QUANT	0	Ich Offset (V)
ICHFILTER	IQUANT	1	Ich Filter
VCHRANGE	IQUANT	3	Vch Range
VCHRANGEMODE	TOGGLE	T	Vch Auto Range
VCHOFFSETENABLE	TOGGLE	F	Vch Offset Enable
VCHOFFSET	QUANT	0	Vch Offset (V)
VCHFILTER	IQUANT	1	Vch Filter
ACHRANGE	IQUANT	2	Ach Range
ACHOFFSETENABLE	TOGGLE	F	Ach Offset Enable
ACHOFFSET	QUANT	0	Ach Offset (V)
ACHFILTER	IQUANT	1	Ach Filter
IERANGELOWERLIMIT	IQUANT	7	I/E Range Lower Limit
IERANGEMODE	TOGGLE	F	I/E AutoRange
IERANGE	IQUANT	11	I/E Range
POSFEEDENABLE	TOGGLE	F	Positive Feedback IR Comp
POSFEEDRESISTANCE	QUANT	0	Positive Feedback Resistance (ohm)
ACHSELECT	IQUANT	4	Ach Select
SENSECABLEID	IQUANT	14	Sense Cable ID
PWRCABLEID	IQUANT	14	Power Cable ID
DCCALDATE	LABEL	2/12/2024	DC Calibration Date
ACCALDATE	LABEL	2/12/2024	AC Calibration Date
THERMOSELECT	IQUANT	1	Thermo Select
FRAMEWORKVERSION	LABEL	7.10.3	Framework Version
INSTRUMENTVERSION	LABEL	4.91	Instrument Version
COMMVERSION	LABEL	2.24	Communications Version
CPUPLDVERSION	LABEL	0.00	CPU PLD Version
CTRLPLDVERSION	LABEL	0.00	CTRL PLD Version
PSTATPLDVERSION	LABEL	0.00	PSTAT PLD Version
CURVE	TABLE	600
	Pt	T	Vf	Im	Vu	Pwr	Sig	Ach	Temp	IERange	Over
	#	s	V	A	V	W	V	V	deg C	#	bits
	0	1	3.83205E+000	1.12622E-006	0.00000E+000	4.31573E-006	0.00000E+000	9.49640E-004	-3.27687E+002	7	...........
	1	2	3.83177E+000	1.12514E-006	0.00000E+000	4.31127E-006	0.00000E+000	9.49840E-004	-3.27687E+002	7	...........
	2	3	3.83158E+000	1.12506E-006	0.00000E+000	4.31076E-006	0.00000E+000	9.49790E-004	-3.27687E+002	7	...........
	3	4	3.83142E+000	1.12473E-006	0.00000E+000	4.30930E-006	0.00000E+000	9.50524E-004	-3.27687E+002	7	...........
	4	5	3.83130E+000	1.12493E-006	0.00000E+000	4.30993E-006	0.00000E+000	9.48457E-004	-3.27687E+002	7	...........
	5	6	3.83120E+000	1.12460E-006	0.00000E+000	4.30855E-006	0.00000E+000	9.48274E-004	-3.27687E+002	7	...........
	6	7	3.83110E+000	1.12424E-006	0.00000E+000	4.30708E-006	0.00000E+000	9.52240E-004	-3.27687E+002	7	...........
	7	8	3.83099E+000	1.12295E-006	0.00000E+000	4.30203E-006	0.00000E+000	9.49690E-004	-3.27687E+002	7	...........
	8	9	3.83090E+000	1.12355E-006	0.00000E+000	4.30418E-006	0.00000E+000	9.50224E-004	-3.27687E+002	7	...........
	9	10	3.83080E+000	1.12340E-006	0.00000E+000	4.30352E-006	0.00000E+000	9.53007E-004	-3.27687E+002	7	...........
	10	11	3.83072E+000	1.12321E-006	0.00000E+000	4.30271E-006	0.00000E+000	9.53157E-004	-3.27687E+002	7	...........
	11	12	3.83063E+000	1.12280E-006	0.00000E+000	4.30103E-006	0.00000E+000	9.53724E-004	-3.27687E+002	7	...........
	12	13	3.83054E+000	1.12320E-006	0.00000E+000	4.30246E-006	0.00000E+000	9.55074E-004	-3.27687E+002	7	...........
	13	14	3.83046E+000	1.12365E-006	0.00000E+000	4.30408E-006	0.00000E+000	9.55307E-004	-3.27687E+002	7	...........
	14	15	3.83037E+000	1.12433E-006	0.00000E+000	4.30661E-006	0.00000E+000	9.55890E-004	-3.27687E+002	7	...........
	15	16	3.83029E+000	1.12391E-006	0.00000E+000	4.30490E-006	0.00000E+000	9.56657E-004	-3.27687E+002	7	...........
	16	17	3.83020E+000	1.12344E-006	0.00000E+000	4.30301E-006	0.00000E+000	9.54124E-004	-3.27687E+002	7	...........
	17	18	3.83013E+000	1.12299E-006	0.00000E+000	4.30121E-006	0.00000E+000	9.59240E-004	-3.27687E+002	7	...........
	18	19	3.83006E+000	1.12345E-006	0.00000E+000	4.30288E-006	0.00000E+000	9.59407E-004	-3.27687E+002	7	...........
	19	20	3.83000E+000	1.12346E-006	0.00000E+000	4.30285E-006	0.00000E+000	9.57574E-004	-3.27687E+002	7	...........
	20	21	3.82993E+000	1.12385E-006	0.00000E+000	4.30428E-006	0.00000E+000	7.98424E-004	-3.27687E+002	7	...........
	21	22	3.82987E+000	1.12421E-006	0.00000E+000	4.30558E-006	0.00000E+000	7.22774E-004	-3.27687E+002	7	...........
	22	23	3.82981E+000	1.12343E-006	0.00000E+000	4.30253E-006	0.00000E+000	7.17974E-004	-3.27687E+002	7	...........
	23	24	3.82976E+000	1.12365E-006	0.00000E+000	4.30332E-006	0.00000E+000	7.18774E-004	-3.27687E+002	7	...........
	24	25	3.82970E+000	1.12332E-006	0.00000E+000	4.30197E-006	0.00000E+000	7.18140E-004	-3.27687E+002	7	...........
	25	26	3.82964E+000	1.12332E-006	0.00000E+000	4.30191E-006	0.00000E+000	7.14307E-004	-3.27687E+002	7	...........
	26	27	3.82959E+000	1.12305E-006	0.00000E+000	4.30084E-006	0.00000E+000	7.17857E-004	-3.27687E+002	7	...........
	27	28	3.82953E+000	1.12285E-006	0.00000E+000	4.29998E-006	0.00000E+000	7.17007E-004	-3.27687E+002	7	...........
	28	29	3.82948E+000	1.12320E-006	0.00000E+000	4.30126E-006	0.00000E+000	7.12407E-004	-3.27687E+002	7	...........
	29	30	3.82944E+000	1.12370E-006	0.00000E+000	4.30315E-006	0.00000E+000	7.12007E-004	-3.27687E+002	7	...........
	30	31	3.82939E+000	1.12344E-006	0.00000E+000	4.30207E-006	0.00000E+000	7.14424E-004	-3.27687E+002	7	...........
	31	32	3.82934E+000	1.12420E-006	0.00000E+000	4.30496E-006	0.00000E+000	7.13657E-004	-3.27687E+002	7	...........
	32	33	3.82930E+000	1.12345E-006	0.00000E+000	4.30202E-006	0.00000E+000	7.14240E-004	-3.27687E+002	7	...........
	33	34	3.82925E+000	1.12340E-006	0.00000E+000	4.30177E-006	0.00000E+000	7.16307E-004	-3.27687E+002	7	...........
	34	35	3.82921E+000	1.12322E-006	0.00000E+000	4.30103E-006	0.00000E+000	7.14707E-004	-3.27687E+002	7	...........
	35	36	3.82916E+000	1.12360E-006	0.00000E+000	4.30245E-006	0.00000E+000	7.17890E-004	-3.27687E+002	7	...........
	36	37	3.82911E+000	1.12396E-006	0.00000E+000	4.30375E-006	0.00000E+000	7.18490E-004	-3.27687E+002	7	...........
	37	38	3.82906E+000	1.12351E-006	0.00000E+000	4.30199E-006	0.00000E+000	7.21374E-004	-3.27687E+002	7	...........
	38	39	3.82901E+000	1.12330E-006	0.00000E+000	4.30114E-006	0.00000E+000	7.22657E-004	-3.27687E+002	7	...........
	39	40	3.82896E+000	1.12322E-006	0.00000E+000	4.30076E-006	0.00000E+000	7.24607E-004	-3.27687E+002	7	...........
	40	41	3.82892E+000	1.12340E-006	0.00000E+000	4.30141E-006	0.00000E+000	7.22407E-004	-3.27687E+002	7	...........
	41	42	3.82888E+000	1.12337E-006	0.00000E+000	4.30127E-006	0.00000E+000	7.24807E-004	-3.27687E+002	7	...........
	42	43	3.82883E+000	1.12349E-006	0.00000E+000	4.30165E-006	0.00000E+000	7.22640E-004	-3.27687E+002	7	...........
	43	44	3.82879E+000	1.12344E-006	0.00000E+000	4.30142E-006	0.00000E+000	7.26824E-004	-3.27687E+002	7	...........
	44	45	3.82876E+000	1.12363E-006	0.00000E+000	4.30210E-006	0.00000E+000	7.24790E-004	-3.27687E+002	7	...........
	45	46	3.82872E+000	1.12383E-006	0.00000E+000	4.30283E-006	0.00000E+000	7.25290E-004	-3.27687E+002	7	...........
	46	47	3.82867E+000	1.12455E-006	0.00000E+000	4.30552E-006	0.00000E+000	7.25007E-004	-3.27687E+002	7	...........
	47	48	3.82864E+000	1.12577E-006	0.00000E+000	4.31018E-006	0.00000E+000	7.24774E-004	-3.27687E+002	7	...........
	48	49	3.82861E+000	1.12402E-006	0.00000E+000	4.30345E-006	0.00000E+000	7.25757E-004	-3.27687E+002	7	...........
	49	50	3.82856E+000	1.12356E-006	0.00000E+000	4.30162E-006	0.00000E+000	7.25874E-004	-3.27687E+002	7	...........
	50	51	3.82852E+000	1.12398E-006	0.00000E+000	4.30319E-006	0.00000E+000	7.22840E-004	-3.27687E+002	7	...........
	51	52	3.82849E+000	1.12351E-006	0.00000E+000	4.30134E-006	0.00000E+000	7.23824E-004	-3.27687E+002	7	...........
	52	53	3.82846E+000	1.12365E-006	0.00000E+000	4.30185E-006	0.00000E+000	7.23657E-004	-3.27687E+002	7	...........
	53	54	3.82843E+000	1.12408E-006	0.00000E+000	4.30348E-006	0.00000E+000	7.21190E-004	-3.27687E+002	7	...........
	54	55	3.82839E+000	1.12461E-006	0.00000E+000	4.30544E-006	0.00000E+000	7.24340E-004	-3.27687E+002	7	...........
	55	56	3.82837E+000	1.12426E-006	0.00000E+000	4.30408E-006	0.00000E+000	7.22274E-004	-3.27687E+002	7	...........
	56	57	3.82834E+000	1.12377E-006	0.00000E+000	4.30217E-006	0.00000E+000	7.20590E-004	-3.27687E+002	7	...........
	57	58	3.82830E+000	1.12346E-006	0.00000E+000	4.30093E-006	0.00000E+000	7.19907E-004	-3.27687E+002	7	...........
	58	59	3.82827E+000	1.12359E-006	0.00000E+000	4.30139E-006	0.00000E+000	7.21207E-004	-3.27687E+002	7	...........
	59	60	3.82824E+000	1.12389E-006	0.00000E+000	4.30251E-006	0.00000E+000	7.19024E-004	-3.27687E+002	7	...........
	60	61	3.82820E+000	1.12396E-006	0.00000E+000	4.30276E-006	0.00000E+000	7.19690E-004	-3.27687E+002	7	...........
	61	62	3.82817E+000	1.12432E-006	0.00000E+000	4.30408E-006	0.00000E+000	7.19624E-004	-3.27687E+002	7	...........
	62	63	3.82813E+000	1.12401E-006	0.00000E+000	4.30284E-006	0.00000E+000	7.19690E-004	-3.27687E+002	7	...........
	63	64	3.82811E+000	1.12494E-006	0.00000E+000	4.30639E-006	0.00000E+000	7.19440E-004	-3.27687E+002	7	...........
	64	65	3.82807E+000	1.12443E-006	0.00000E+000	4.30441E-006	0.00000E+000	7.19840E-004	-3.27687E+002	7	...........
	65	66	3.82804E+000	1.12364E-006	0.00000E+000	4.30135E-006	0.00000E+000	7.18407E-004	-3.27687E+002	7	...........
	66	67	3.82802E+000	1.12377E-006	0.00000E+000	4.30180E-006	0.00000E+000	7.17957E-004	-3.27687E+002	7	...........
	67	68	3.82798E+000	1.12401E-006	0.00000E+000	4.30271E-006	0.00000E+000	7.19057E-004	-3.27687E+002	7	...........
	68	69	3.82795E+000	1.12367E-006	0.00000E+000	4.30134E-006	0.00000E+000	7.16340E-004	-3.27687E+002	7	...........
	69	70	3.82793E+000	1.12375E-006	0.00000E+000	4.30163E-006	0.00000E+000	7.19990E-004	-3.27687E+002	7	...........
	70	71	3.82790E+000	1.12399E-006	0.00000E+000	4.30253E-006	0.00000E+000	7.17907E-004	-3.27687E+002	7	...........
	71	72	3.82787E+000	1.12357E-006	0.00000E+000	4.30089E-006	0.00000E+000	7.18174E-004	-3.27687E+002	7	...........
	72	73	3.82785E+000	1.12362E-006	0.00000E+000	4.30106E-006	0.00000E+000	7.18090E-004	-3.27687E+002	7	...........
	73	74	3.82782E+000	1.12403E-006	0.00000E+000	4.30259E-006	0.00000E+000	7.17174E-004	-3.27687E+002	7	...........
	74	75	3.82779E+000	1.12363E-006	0.00000E+000	4.30103E-006	0.00000E+000	7.19290E-004	-3.27687E+002	7	...........
	75	76	3.82778E+000	1.12306E-006	0.00000E+000	4.29883E-006	0.00000E+000	7.16857E-004	-3.27687E+002	7	...........
	76	77	3.82774E+000	1.12360E-006	0.00000E+000	4.30084E-006	0.00000E+000	7.17790E-004	-3.27687E+002	7	...........
	77	78	3.82772E+000	1.12388E-006	0.00000E+000	4.30190E-006	0.00000E+000	7.17607E-004	-3.27687E+002	7	...........
	78	79	3.82770E+000	1.12473E-006	0.00000E+000	4.30513E-006	0.00000E+000	7.19574E-004	-3.27687E+002	7	...........
	79	80	3.82767E+000	1.12520E-006	0.00000E+000	4.30691E-006	0.00000E+000	7.21574E-004	-3.27687E+002	7	...........
	80	81	3.82764E+000	1.12451E-006	0.00000E+000	4.30422E-006	0.00000E+000	7.19357E-004	-3.27687E+002	7	...........
	81	82	3.82763E+000	1.12469E-006	0.00000E+000	4.30488E-006	0.00000E+000	7.19690E-004	-3.27687E+002	7	...........
	82	83	3.82760E+000	1.12392E-006	0.00000E+000	4.30192E-006	0.00000E+000	7.20624E-004	-3.27687E+002	7	...........
	83	84	3.82756E+000	1.12405E-006	0.00000E+000	4.30238E-006	0.00000E+000	7.20440E-004	-3.27687E+002	7	...........
	84	85	3.82754E+000	1.12393E-006	0.00000E+000	4.30188E-006	0.00000E+000	7.22624E-004	-3.27687E+002	7	...........
	85	86	3.82752E+000	1.12401E-006	0.00000E+000	4.30217E-006	0.00000E+000	7.23240E-004	-3.27687E+002	7	...........
	86	87	3.82749E+000	1.12473E-006	0.00000E+000	4.30487E-006	0.00000E+000	7.22240E-004	-3.27687E+002	7	...........
	87	88	3.82746E+000	1.12551E-006	0.00000E+000	4.30783E-006	0.00000E+000	7.21007E-004	-3.27687E+002	7	...........
	88	89	3.82743E+000	1.12443E-006	0.00000E+000	4.30370E-006	0.00000E+000	7.22640E-004	-3.27687E+002	7	...........
	89	90	3.82743E+000	1.12415E-006	0.00000E+000	4.30260E-006	0.00000E+000	7.23724E-004	-3.27687E+002	7	...........
	90	91	3.82741E+000	1.12406E-006	0.00000E+000	4.30223E-006	0.00000E+000	7.24940E-004	-3.27687E+002	7	...........
	91	92	3.82737E+000	1.12424E-006	0.00000E+000	4.30290E-006	0.00000E+000	7.25424E-004	-3.27687E+002	7	...........
	92	93	3.82735E+000	1.12471E-006	0.00000E+000	4.30467E-006	0.00000E+000	7.25474E-004	-3.27687E+002	7	...........
	93	94	3.82732E+000	1.12418E-006	0.00000E+000	4.30259E-006	0.00000E+000	7.28090E-004	-3.27687E+002	7	...........
	94	95	3.82730E+000	1.12511E-006	0.00000E+000	4.30615E-006	0.00000E+000	7.25724E-004	-3.27687E+002	7	...........
	95	96	3.82728E+000	1.12593E-006	0.00000E+000	4.30925E-006	0.00000E+000	7.24990E-004	-3.27687E+002	7	...........
	96	97	3.82724E+000	1.12481E-006	0.00000E+000	4.30492E-006	0.00000E+000	7.26740E-004	-3.27687E+002	7	...........
	97	98	3.82721E+000	1.12444E-006	0.00000E+000	4.30346E-006	0.00000E+000	7.28207E-004	-3.27687E+002	7	...........
	98	99	3.82719E+000	1.12384E-006	0.00000E+000	4.30114E-006	0.00000E+000	7.24540E-004	-3.27687E+002	7	...........
	99	100	3.82717E+000	1.12384E-006	0.00000E+000	4.30113E-006	0.00000E+000	7.26440E-004	-3.27687E+002	7	...........
	100	101	3.82714E+000	1.12380E-006	0.00000E+000	4.30092E-006	0.00000E+000	7.28540E-004	-3.27687E+002	7	...........
	101	102	3.82711E+000	1.12461E-006	0.00000E+000	4.30400E-006	0.00000E+000	7.27557E-004	-3.27687E+002	7	...........
	102	103	3.82708E+000	1.12458E-006	0.00000E+000	4.30385E-006	0.00000E+000	7.25840E-004	-3.27687E+002	7	...........
	103	104	3.82707E+000	1.12421E-006	0.00000E+000	4.30243E-006	0.00000E+000	7.28857E-004	-3.27687E+002	7	...........
	104	105	3.82704E+000	1.12447E-006	0.00000E+000	4.30340E-006	0.00000E+000	7.26390E-004	-3.27687E+002	7	...........
	105	106	3.82702E+000	1.12469E-006	0.00000E+000	4.30421E-006	0.00000E+000	7.26440E-004	-3.27687E+002	7	...........
	106	107	3.82698E+000	1.12491E-006	0.00000E+000	4.30502E-006	0.00000E+000	7.27490E-004	-3.27687E+002	7	...........
	107	108	3.82697E+000	1.12424E-006	0.00000E+000	4.30245E-006	0.00000E+000	7.26624E-004	-3.27687E+002	7	...........
	108	109	3.82694E+000	1.12475E-006	0.00000E+000	4.30434E-006	0.00000E+000	7.26540E-004	-3.27687E+002	7	...........
	109	110	3.82694E+000	1.12439E-006	0.00000E+000	4.30297E-006	0.00000E+000	7.28690E-004	-3.27687E+002	7	...........
	110	111	3.82691E+000	1.12419E-006	0.00000E+000	4.30217E-006	0.00000E+000	7.27157E-004	-3.27687E+002	7	...........
	111	112	3.82688E+000	1.12491E-006	0.00000E+000	4.30488E-006	0.00000E+000	7.26357E-004	-3.27687E+002	7	...........
	112	113	3.82686E+000	1.12471E-006	0.00000E+000	4.30410E-006	0.00000E+000	7.30057E-004	-3.27687E+002	7	...........
	113	114	3.82684E+000	1.12449E-006	0.00000E+000	4.30323E-006	0.00000E+000	7.25540E-004	-3.27687E+002	7	...........
	114	115	3.82682E+000	1.12373E-006	0.00000E+000	4.30033E-006	0.00000E+000	7.26257E-004	-3.27687E+002	7	...........
	115	116	3.82680E+000	1.12451E-006	0.00000E+000	4.30327E-006	0.00000E+000	7.27674E-004	-3.27687E+002	7	...........
	116	117	3.82678E+000	1.12476E-006	0.00000E+000	4.30422E-006	0.00000E+000	7.25057E-004	-3.27687E+002	7	...........
	117	118	3.82676E+000	1.12494E-006	0.00000E+000	4.30490E-006	0.00000E+000	7.24790E-004	-3.27687E+002	7	...........
	118	119	3.82675E+000	1.12560E-006	0.00000E+000	4.30738E-006	0.00000E+000	7.26307E-004	-3.27687E+002	7	...........
	119	120	3.82672E+000	1.12499E-006	0.00000E+000	4.30500E-006	0.00000E+000	7.23457E-004	-3.27687E+002	7	...........
	120	121	3.82671E+000	1.12470E-006	0.00000E+000	4.30390E-006	0.00000E+000	7.26990E-004	-3.27687E+002	7	...........
	121	122	3.82670E+000	1.12438E-006	0.00000E+000	4.30268E-006	0.00000E+000	7.26390E-004	-3.27687E+002	7	...........
	122	123	3.82667E+000	1.12447E-006	0.00000E+000	4.30300E-006	0.00000E+000	7.23940E-004	-3.27687E+002	7	...........
	123	124	3.82666E+000	1.12391E-006	0.00000E+000	4.30083E-006	0.00000E+000	7.24407E-004	-3.27687E+002	7	...........
	124	125	3.82665E+000	1.12429E-006	0.00000E+000	4.30228E-006	0.00000E+000	7.25057E-004	-3.27687E+002	7	...........
	125	126	3.82663E+000	1.12403E-006	0.00000E+000	4.30126E-006	0.00000E+000	7.23374E-004	-3.27687E+002	7	...........
	126	127	3.82661E+000	1.12451E-006	0.00000E+000	4.30308E-006	0.00000E+000	7.21290E-004	-3.27687E+002	7	...........
	127	128	3.82660E+000	1.12516E-006	0.00000E+000	4.30552E-006	0.00000E+000	7.22107E-004	-3.27687E+002	7	...........
	128	129	3.82658E+000	1.12501E-006	0.00000E+000	4.30494E-006	0.00000E+000	7.22057E-004	-3.27687E+002	7	...........
	129	130	3.82657E+000	1.12413E-006	0.00000E+000	4.30157E-006	0.00000E+000	7.21807E-004	-3.27687E+002	7	...........
	130	131	3.82655E+000	1.12496E-006	0.00000E+000	4.30472E-006	0.00000E+000	7.27674E-004	-3.27687E+002	7	...........
	131	132	3.82654E+000	1.12489E-006	0.00000E+000	4.30441E-006	0.00000E+000	7.25157E-004	-3.27687E+002	7	...........
	132	133	3.82651E+000	1.12489E-006	0.00000E+000	4.30441E-006	0.00000E+000	7.22507E-004	-3.27687E+002	7	...........
	133	134	3.82650E+000	1.12495E-006	0.00000E+000	4.30462E-006	0.00000E+000	7.23274E-004	-3.27687E+002	7	...........
	134	135	3.82649E+000	1.12508E-006	0.00000E+000	4.30510E-006	0.00000E+000	7.21674E-004	-3.27687E+002	7	...........
	135	136	3.82649E+000	1.12486E-006	0.00000E+000	4.30425E-006	0.00000E+000	7.23240E-004	-3.27687E+002	7	...........
	136	137	3.82647E+000	1.12492E-006	0.00000E+000	4.30446E-006	0.00000E+000	7.20240E-004	-3.27687E+002	7	...........
	137	138	3.82646E+000	1.12427E-006	0.00000E+000	4.30200E-006	0.00000E+000	7.20257E-004	-3.27687E+002	7	...........
	138	139	3.82644E+000	1.12370E-006	0.00000E+000	4.29978E-006	0.00000E+000	7.21074E-004	-3.27687E+002	7	...........
	139	140	3.82643E+000	1.12341E-006	0.00000E+000	4.29867E-006	0.00000E+000	7.22440E-004	-3.27687E+002	7	...........
	140	141	3.82642E+000	1.12345E-006	0.00000E+000	4.29880E-006	0.00000E+000	7.21290E-004	-3.27687E+002	7	...........
	141	142	3.82641E+000	1.12424E-006	0.00000E+000	4.30181E-006	0.00000E+000	7.22207E-004	-3.27687E+002	7	...........
	142	143	3.82640E+000	1.12472E-006	0.00000E+000	4.30365E-006	0.00000E+000	7.20090E-004	-3.27687E+002	7	...........
	143	144	3.82640E+000	1.12555E-006	0.00000E+000	4.30680E-006	0.00000E+000	7.22124E-004	-3.27687E+002	7	...........
	144	145	3.82638E+000	1.12587E-006	0.00000E+000	4.30803E-006	0.00000E+000	7.22290E-004	-3.27687E+002	7	...........
	145	146	3.82638E+000	1.12470E-006	0.00000E+000	4.30351E-006	0.00000E+000	7.20674E-004	-3.27687E+002	7	...........
	146	147	3.82636E+000	1.12520E-006	0.00000E+000	4.30544E-006	0.00000E+000	7.20307E-004	-3.27687E+002	7	...........
	147	148	3.82635E+000	1.12584E-006	0.00000E+000	4.30787E-006	0.00000E+000	7.22007E-004	-3.27687E+002	7	...........
	148	149	3.82633E+000	1.12584E-006	0.00000E+000	4.30785E-006	0.00000E+000	7.19824E-004	-3.27687E+002	7	...........
	149	150	3.82633E+000	1.12609E-006	0.00000E+000	4.30879E-006	0.00000E+000	7.18324E-004	-3.27687E+002	7	...........
	150	151	3.82632E+000	1.12610E-006	0.00000E+000	4.30882E-006	0.00000E+000	7.19157E-004	-3.27687E+002	7	...........
	151	152	3.82630E+000	1.12587E-006	0.00000E+000	4.30792E-006	0.00000E+000	7.18590E-004	-3.27687E+002	7	...........
	152	153	3.82630E+000	1.12593E-006	0.00000E+000	4.30813E-006	0.00000E+000	7.19374E-004	-3.27687E+002	7	...........
	153	154	3.82628E+000	1.12491E-006	0.00000E+000	4.30422E-006	0.00000E+000	7.18774E-004	-3.27687E+002	7	...........
	154	155	3.82627E+000	1.12514E-006	0.00000E+000	4.30509E-006	0.00000E+000	7.17557E-004	-3.27687E+002	7	...........
	155	156	3.82626E+000	1.12479E-006	0.00000E+000	4.30375E-006	0.00000E+000	7.17640E-004	-3.27687E+002	7	...........
	156	157	3.82625E+000	1.12505E-006	0.00000E+000	4.30474E-006	0.00000E+000	7.14274E-004	-3.27687E+002	7	...........
	157	158	3.82624E+000	1.12496E-006	0.00000E+000	4.30438E-006	0.00000E+000	7.19424E-004	-3.27687E+002	7	...........
	158	159	3.82623E+000	1.12546E-006	0.00000E+000	4.30628E-006	0.00000E+000	7.17574E-004	-3.27687E+002	7	...........
	159	160	3.82621E+000	1.12591E-006	0.00000E+000	4.30798E-006	0.00000E+000	7.19107E-004	-3.27687E+002	7	...........
	160	161	3.82621E+000	1.12675E-006	0.00000E+000	4.31120E-006	0.00000E+000	7.18940E-004	-3.27687E+002	7	...........
	161	162	3.82619E+000	1.12681E-006	0.00000E+000	4.31141E-006	0.00000E+000	7.17474E-004	-3.27687E+002	7	...........
	162	163	3.82619E+000	1.12620E-006	0.00000E+000	4.30907E-006	0.00000E+000	7.19540E-004	-3.27687E+002	7	...........
	163	164	3.82618E+000	1.12655E-006	0.00000E+000	4.31038E-006	0.00000E+000	7.18657E-004	-3.27687E+002	7	...........
	164	165	3.82617E+000	1.12708E-006	0.00000E+000	4.31241E-006	0.00000E+000	7.15290E-004	-3.27687E+002	7	...........
	165	166	3.82616E+000	1.12720E-006	0.00000E+000	4.31283E-006	0.00000E+000	7.19090E-004	-3.27687E+002	7	...........
	166	167	3.82615E+000	1.12707E-006	0.00000E+000	4.31232E-006	0.00000E+000	7.16007E-004	-3.27687E+002	7	...........
	167	168	3.82613E+000	1.12683E-006	0.00000E+000	4.31142E-006	0.00000E+000	7.18607E-004	-3.27687E+002	7	...........
	168	169	3.82613E+000	1.12725E-006	0.00000E+000	4.31300E-006	0.00000E+000	7.17074E-004	-3.27687E+002	7	...........
	169	170	3.82611E+000	1.12762E-006	0.00000E+000	4.31440E-006	0.00000E+000	7.17690E-004	-3.27687E+002	7	...........
	170	171	3.82610E+000	1.12723E-006	0.00000E+000	4.31289E-006	0.00000E+000	7.17407E-004	-3.27687E+002	7	...........
	171	172	3.82609E+000	1.12669E-006	0.00000E+000	4.31082E-006	0.00000E+000	7.16374E-004	-3.27687E+002	7	...........
	172	173	3.82608E+000	1.12735E-006	0.00000E+000	4.31333E-006	0.00000E+000	7.17240E-004	-3.27687E+002	7	...........
	173	174	3.82607E+000	1.12785E-006	0.00000E+000	4.31524E-006	0.00000E+000	7.16540E-004	-3.27687E+002	7	...........
	174	175	3.82606E+000	1.12819E-006	0.00000E+000	4.31653E-006	0.00000E+000	7.17124E-004	-3.27687E+002	7	...........
	175	176	3.82605E+000	1.12875E-006	0.00000E+000	4.31864E-006	0.00000E+000	7.18924E-004	-3.27687E+002	7	...........
	176	177	3.82604E+000	1.12880E-006	0.00000E+000	4.31882E-006	0.00000E+000	7.19690E-004	-3.27687E+002	7	...........
	177	178	3.82604E+000	1.12801E-006	0.00000E+000	4.31579E-006	0.00000E+000	7.18657E-004	-3.27687E+002	7	...........
	178	179	3.82602E+000	1.12787E-006	0.00000E+000	4.31524E-006	0.00000E+000	7.18674E-004	-3.27687E+002	7	...........
	179	180	3.82601E+000	1.12791E-006	0.00000E+000	4.31539E-006	0.00000E+000	7.19307E-004	-3.27687E+002	7	...........
	180	181	3.82601E+000	1.12783E-006	0.00000E+000	4.31510E-006	0.00000E+000	7.17307E-004	-3.27687E+002	7	...........
	181	182	3.82599E+000	1.12748E-006	0.00000E+000	4.31374E-006	0.00000E+000	7.17007E-004	-3.27687E+002	7	...........
	182	183	3.82597E+000	1.12713E-006	0.00000E+000	4.31239E-006	0.00000E+000	7.19057E-004	-3.27687E+002	7	...........
	183	184	3.82596E+000	1.12713E-006	0.00000E+000	4.31236E-006	0.00000E+000	7.18074E-004	-3.27687E+002	7	...........
	184	185	3.82596E+000	1.12770E-006	0.00000E+000	4.31455E-006	0.00000E+000	7.17474E-004	-3.27687E+002	7	...........
	185	186	3.82594E+000	1.12789E-006	0.00000E+000	4.31524E-006	0.00000E+000	7.19390E-004	-3.27687E+002	7	...........
	186	187	3.82595E+000	1.12764E-006	0.00000E+000	4.31430E-006	0.00000E+000	7.17724E-004	-3.27687E+002	7	...........
	187	188	3.82593E+000	1.12749E-006	0.00000E+000	4.31371E-006	0.00000E+000	7.20407E-004	-3.27687E+002	7	...........
	188	189	3.82592E+000	1.12707E-006	0.00000E+000	4.31207E-006	0.00000E+000	7.21090E-004	-3.27687E+002	7	...........
	189	190	3.82591E+000	1.12707E-006	0.00000E+000	4.31208E-006	0.00000E+000	7.20424E-004	-3.27687E+002	7	...........
	190	191	3.82589E+000	1.12685E-006	0.00000E+000	4.31121E-006	0.00000E+000	7.21524E-004	-3.27687E+002	7	...........
	191	192	3.82589E+000	1.12743E-006	0.00000E+000	4.31342E-006	0.00000E+000	7.23290E-004	-3.27687E+002	7	...........
	192	193	3.82587E+000	1.12680E-006	0.00000E+000	4.31098E-006	0.00000E+000	7.23907E-004	-3.27687E+002	7	...........
	193	194	3.82587E+000	1.12676E-006	0.00000E+000	4.31082E-006	0.00000E+000	7.23640E-004	-3.27687E+002	7	...........
	194	195	3.82586E+000	1.12700E-006	0.00000E+000	4.31174E-006	0.00000E+000	7.21524E-004	-3.27687E+002	7	...........
	195	196	3.82586E+000	1.12693E-006	0.00000E+000	4.31148E-006	0.00000E+000	7.19957E-004	-3.27687E+002	7	...........
	196	197	3.82584E+000	1.12754E-006	0.00000E+000	4.31378E-006	0.00000E+000	7.21390E-004	-3.27687E+002	7	...........
	197	198	3.82583E+000	1.12801E-006	0.00000E+000	4.31556E-006	0.00000E+000	7.23007E-004	-3.27687E+002	7	...........
	198	199	3.82582E+000	1.12746E-006	0.00000E+000	4.31346E-006	0.00000E+000	7.21824E-004	-3.27687E+002	7	...........
	199	200	3.82582E+000	1.12728E-006	0.00000E+000	4.31275E-006	0.00000E+000	7.20190E-004	-3.27687E+002	7	...........
	200	201	3.82579E+000	1.12760E-006	0.00000E+000	4.31396E-006	0.00000E+000	7.22957E-004	-3.27687E+002	7	...........
	201	202	3.82578E+000	1.12763E-006	0.00000E+000	4.31406E-006	0.00000E+000	7.24857E-004	-3.27687E+002	7	...........
	202	203	3.82578E+000	1.12802E-006	0.00000E+000	4.31555E-006	0.00000E+000	7.24240E-004	-3.27687E+002	7	...........
	203	204	3.82577E+000	1.12730E-006	0.00000E+000	4.31279E-006	0.00000E+000	7.23890E-004	-3.27687E+002	7	...........
	204	205	3.82576E+000	1.12754E-006	0.00000E+000	4.31369E-006	0.00000E+000	7.22390E-004	-3.27687E+002	7	...........
	205	206	3.82575E+000	1.12684E-006	0.00000E+000	4.31102E-006	0.00000E+000	7.26024E-004	-3.27687E+002	7	...........
	206	207	3.82574E+000	1.12662E-006	0.00000E+000	4.31017E-006	0.00000E+000	7.24574E-004	-3.27687E+002	7	...........
	207	208	3.82573E+000	1.12634E-006	0.00000E+000	4.30908E-006	0.00000E+000	7.25907E-004	-3.27687E+002	7	...........
	208	209	3.82571E+000	1.12731E-006	0.00000E+000	4.31275E-006	0.00000E+000	7.24407E-004	-3.27687E+002	7	...........
	209	210	3.82570E+000	1.12755E-006	0.00000E+000	4.31368E-006	0.00000E+000	7.24424E-004	-3.27687E+002	7	...........
	210	211	3.82569E+000	1.12756E-006	0.00000E+000	4.31370E-006	0.00000E+000	7.24457E-004	-3.27687E+002	7	...........
	211	212	3.82568E+000	1.12692E-006	0.00000E+000	4.31125E-006	0.00000E+000	7.25140E-004	-3.27687E+002	7	...........
	212	213	3.82568E+000	1.12730E-006	0.00000E+000	4.31269E-006	0.00000E+000	7.26990E-004	-3.27687E+002	7	...........
	213	214	3.82568E+000	1.12723E-006	0.00000E+000	4.31240E-006	0.00000E+000	7.25624E-004	-3.27687E+002	7	...........
	214	215	3.82566E+000	1.12794E-006	0.00000E+000	4.31512E-006	0.00000E+000	7.25524E-004	-3.27687E+002	7	...........
	215	216	3.82565E+000	1.12762E-006	0.00000E+000	4.31389E-006	0.00000E+000	7.28740E-004	-3.27687E+002	7	...........
	216	217	3.82564E+000	1.12710E-006	0.00000E+000	4.31188E-006	0.00000E+000	7.25774E-004	-3.27687E+002	7	...........
	217	218	3.82563E+000	1.12680E-006	0.00000E+000	4.31071E-006	0.00000E+000	7.27590E-004	-3.27687E+002	7	...........
	218	219	3.82561E+000	1.12679E-006	0.00000E+000	4.31065E-006	0.00000E+000	7.25857E-004	-3.27687E+002	7	...........
	219	220	3.82560E+000	1.12545E-006	0.00000E+000	4.30553E-006	0.00000E+000	7.23957E-004	-3.27687E+002	7	...........
	220	221	3.82558E+000	1.12554E-006	0.00000E+000	4.30586E-006	0.00000E+000	7.24324E-004	-3.27687E+002	7	...........
	221	222	3.82558E+000	1.12507E-006	0.00000E+000	4.30404E-006	0.00000E+000	7.26540E-004	-3.27687E+002	7	...........
	222	223	3.82559E+000	1.12592E-006	0.00000E+000	4.30732E-006	0.00000E+000	7.24990E-004	-3.27687E+002	7	...........
	223	224	3.82557E+000	1.12597E-006	0.00000E+000	4.30747E-006	0.00000E+000	7.25590E-004	-3.27687E+002	7	...........
	224	225	3.82556E+000	1.12707E-006	0.00000E+000	4.31166E-006	0.00000E+000	7.26557E-004	-3.27687E+002	7	...........
	225	226	3.82555E+000	1.12719E-006	0.00000E+000	4.31213E-006	0.00000E+000	7.24040E-004	-3.27687E+002	7	...........
	226	227	3.82554E+000	1.12575E-006	0.00000E+000	4.30661E-006	0.00000E+000	7.24640E-004	-3.27687E+002	7	...........
	227	228	3.82552E+000	1.12633E-006	0.00000E+000	4.30880E-006	0.00000E+000	7.23840E-004	-3.27687E+002	7	...........
	228	229	3.82551E+000	1.12604E-006	0.00000E+000	4.30767E-006	0.00000E+000	7.23440E-004	-3.27687E+002	7	...........
	229	230	3.82551E+000	1.12669E-006	0.00000E+000	4.31018E-006	0.00000E+000	7.24440E-004	-3.27687E+002	7	...........
	230	231	3.82550E+000	1.12714E-006	0.00000E+000	4.31189E-006	0.00000E+000	7.25457E-004	-3.27687E+002	7	...........
	231	232	3.82549E+000	1.12749E-006	0.00000E+000	4.31321E-006	0.00000E+000	7.23924E-004	-3.27687E+002	7	...........
	232	233	3.82548E+000	1.12751E-006	0.00000E+000	4.31328E-006	0.00000E+000	7.24657E-004	-3.27687E+002	7	...........
	233	234	3.82548E+000	1.12707E-006	0.00000E+000	4.31157E-006	0.00000E+000	7.24957E-004	-3.27687E+002	7	...........
	234	235	3.82547E+000	1.12737E-006	0.00000E+000	4.31274E-006	0.00000E+000	7.24024E-004	-3.27687E+002	7	...........
	235	236	3.82546E+000	1.12753E-006	0.00000E+000	4.31330E-006	0.00000E+000	7.24524E-004	-3.27687E+002	7	...........
	236	237	3.82545E+000	1.12739E-006	0.00000E+000	4.31279E-006	0.00000E+000	7.23224E-004	-3.27687E+002	7	...........
	237	238	3.82544E+000	1.12673E-006	0.00000E+000	4.31026E-006	0.00000E+000	7.25057E-004	-3.27687E+002	7	...........
	238	239	3.82543E+000	1.12667E-006	0.00000E+000	4.30999E-006	0.00000E+000	7.22757E-004	-3.27687E+002	7	...........
	239	240	3.82542E+000	1.12663E-006	0.00000E+000	4.30982E-006	0.00000E+000	7.22324E-004	-3.27687E+002	7	...........
	240	241	3.82542E+000	1.12777E-006	0.00000E+000	4.31420E-006	0.00000E+000	7.23590E-004	-3.27687E+002	7	...........
	241	242	3.82540E+000	1.12861E-006	0.00000E+000	4.31738E-006	0.00000E+000	7.21774E-004	-3.27687E+002	7	...........
	242	243	3.82540E+000	1.12721E-006	0.00000E+000	4.31203E-006	0.00000E+000	7.20690E-004	-3.27687E+002	7	...........
	243	244	3.82539E+000	1.12688E-006	0.00000E+000	4.31077E-006	0.00000E+000	7.24390E-004	-3.27687E+002	7	...........
	244	245	3.82538E+000	1.12673E-006	0.00000E+000	4.31018E-006	0.00000E+000	7.21024E-004	-3.27687E+002	7	...........
	245	246	3.82538E+000	1.12630E-006	0.00000E+000	4.30854E-006	0.00000E+000	7.21974E-004	-3.27687E+002	7	...........
	246	247	3.82537E+000	1.12626E-006	0.00000E+000	4.30834E-006	0.00000E+000	7.22040E-004	-3.27687E+002	7	...........
	247	248	3.82536E+000	1.12608E-006	0.00000E+000	4.30767E-006	0.00000E+000	7.22590E-004	-3.27687E+002	7	...........
	248	249	3.82535E+000	1.12611E-006	0.00000E+000	4.30774E-006	0.00000E+000	7.23374E-004	-3.27687E+002	7	...........
	249	250	3.82534E+000	1.12654E-006	0.00000E+000	4.30941E-006	0.00000E+000	7.22174E-004	-3.27687E+002	7	...........
	250	251	3.82532E+000	1.12615E-006	0.00000E+000	4.30789E-006	0.00000E+000	7.18524E-004	-3.27687E+002	7	...........
	251	252	3.82531E+000	1.12637E-006	0.00000E+000	4.30873E-006	0.00000E+000	7.20807E-004	-3.27687E+002	7	...........
	252	253	3.82531E+000	1.12629E-006	0.00000E+000	4.30840E-006	0.00000E+000	7.19440E-004	-3.27687E+002	7	...........
	253	254	3.82530E+000	1.12614E-006	0.00000E+000	4.30782E-006	0.00000E+000	7.18490E-004	-3.27687E+002	7	...........
	254	255	3.82530E+000	1.12597E-006	0.00000E+000	4.30718E-006	0.00000E+000	7.19374E-004	-3.27687E+002	7	...........
	255	256	3.82529E+000	1.12608E-006	0.00000E+000	4.30757E-006	0.00000E+000	7.19740E-004	-3.27687E+002	7	...........
	256	257	3.82528E+000	1.12625E-006	0.00000E+000	4.30823E-006	0.00000E+000	7.18007E-004	-3.27687E+002	7	...........
	257	258	3.82527E+000	1.12658E-006	0.00000E+000	4.30948E-006	0.00000E+000	7.19640E-004	-3.27687E+002	7	...........
	258	259	3.82526E+000	1.12636E-006	0.00000E+000	4.30864E-006	0.00000E+000	7.19757E-004	-3.27687E+002	7	...........
	259	260	3.82525E+000	1.12596E-006	0.00000E+000	4.30708E-006	0.00000E+000	7.19507E-004	-3.27687E+002	7	...........
	260	261	3.82525E+000	1.12629E-006	0.00000E+000	4.30835E-006	0.00000E+000	7.17524E-004	-3.27687E+002	7	...........
	261	262	3.82523E+000	1.12574E-006	0.00000E+000	4.30620E-006	0.00000E+000	7.16907E-004	-3.27687E+002	7	...........
	262	263	3.82523E+000	1.12547E-006	0.00000E+000	4.30519E-006	0.00000E+000	7.16057E-004	-3.27687E+002	7	...........
	263	264	3.82522E+000	1.12531E-006	0.00000E+000	4.30458E-006	0.00000E+000	7.17740E-004	-3.27687E+002	7	...........
	264	265	3.82522E+000	1.12605E-006	0.00000E+000	4.30740E-006	0.00000E+000	7.18890E-004	-3.27687E+002	7	...........
	265	266	3.82521E+000	1.12591E-006	0.00000E+000	4.30686E-006	0.00000E+000	7.17457E-004	-3.27687E+002	7	...........
	266	267	3.82520E+000	1.12557E-006	0.00000E+000	4.30552E-006	0.00000E+000	7.16507E-004	-3.27687E+002	7	...........
	267	268	3.82519E+000	1.12525E-006	0.00000E+000	4.30427E-006	0.00000E+000	7.16107E-004	-3.27687E+002	7	...........
	268	269	3.82518E+000	1.12500E-006	0.00000E+000	4.30334E-006	0.00000E+000	7.15840E-004	-3.27687E+002	7	...........
	269	270	3.82517E+000	1.12500E-006	0.00000E+000	4.30332E-006	0.00000E+000	7.15924E-004	-3.27687E+002	7	...........
	270	271	3.82516E+000	1.12440E-006	0.00000E+000	4.30102E-006	0.00000E+000	7.14274E-004	-3.27687E+002	7	...........
	271	272	3.82516E+000	1.12356E-006	0.00000E+000	4.29780E-006	0.00000E+000	7.14657E-004	-3.27687E+002	7	...........
	272	273	3.82515E+000	1.12402E-006	0.00000E+000	4.29954E-006	0.00000E+000	7.13657E-004	-3.27687E+002	7	...........
	273	274	3.82514E+000	1.12403E-006	0.00000E+000	4.29958E-006	0.00000E+000	7.14807E-004	-3.27687E+002	7	...........
	274	275	3.82513E+000	1.12418E-006	0.00000E+000	4.30016E-006	0.00000E+000	7.12874E-004	-3.27687E+002	7	...........
	275	276	3.82513E+000	1.12442E-006	0.00000E+000	4.30104E-006	0.00000E+000	7.12974E-004	-3.27687E+002	7	...........
	276	277	3.82512E+000	1.12364E-006	0.00000E+000	4.29807E-006	0.00000E+000	7.13340E-004	-3.27687E+002	7	...........
	277	278	3.82510E+000	1.12433E-006	0.00000E+000	4.30069E-006	0.00000E+000	7.11990E-004	-3.27687E+002	7	...........
	278	279	3.82511E+000	1.12478E-006	0.00000E+000	4.30242E-006	0.00000E+000	7.13540E-004	-3.27687E+002	7	...........
	279	280	3.82509E+000	1.12434E-006	0.00000E+000	4.30071E-006	0.00000E+000	7.11407E-004	-3.27687E+002	7	...........
	280	281	3.82509E+000	1.12526E-006	0.00000E+000	4.30423E-006	0.00000E+000	7.09124E-004	-3.27687E+002	7	...........
	281	282	3.82508E+000	1.12522E-006	0.00000E+000	4.30404E-006	0.00000E+000	7.10924E-004	-3.27687E+002	7	...........
	282	283	3.82507E+000	1.12406E-006	0.00000E+000	4.29961E-006	0.00000E+000	7.09807E-004	-3.27687E+002	7	...........
	283	284	3.82507E+000	1.12414E-006	0.00000E+000	4.29990E-006	0.00000E+000	7.09574E-004	-3.27687E+002	7	...........
	284	285	3.82506E+000	1.12445E-006	0.00000E+000	4.30110E-006	0.00000E+000	7.09974E-004	-3.27687E+002	7	...........
	285	286	3.82505E+000	1.12408E-006	0.00000E+000	4.29968E-006	0.00000E+000	7.09424E-004	-3.27687E+002	7	...........
	286	287	3.82504E+000	1.12421E-006	0.00000E+000	4.30015E-006	0.00000E+000	7.09540E-004	-3.27687E+002	7	...........
	287	288	3.82503E+000	1.12445E-006	0.00000E+000	4.30105E-006	0.00000E+000	7.08324E-004	-3.27687E+002	7	...........
	288	289	3.82503E+000	1.12436E-006	0.00000E+000	4.30070E-006	0.00000E+000	7.11490E-004	-3.27687E+002	7	...........
	289	290	3.82502E+000	1.12552E-006	0.00000E+000	4.30515E-006	0.00000E+000	7.07757E-004	-3.27687E+002	7	...........
	290	291	3.82501E+000	1.12536E-006	0.00000E+000	4.30451E-006	0.00000E+000	7.07657E-004	-3.27687E+002	7	...........
	291	292	3.82501E+000	1.12524E-006	0.00000E+000	4.30406E-006	0.00000E+000	7.08424E-004	-3.27687E+002	7	...........
	292	293	3.82500E+000	1.12546E-006	0.00000E+000	4.30487E-006	0.00000E+000	7.08107E-004	-3.27687E+002	7	...........
	293	294	3.82499E+000	1.12550E-006	0.00000E+000	4.30503E-006	0.00000E+000	7.07257E-004	-3.27687E+002	7	...........
	294	295	3.82499E+000	1.12533E-006	0.00000E+000	4.30436E-006	0.00000E+000	7.08424E-004	-3.27687E+002	7	...........
	295	296	3.82498E+000	1.12599E-006	0.00000E+000	4.30690E-006	0.00000E+000	7.07674E-004	-3.27687E+002	7	...........
	296	297	3.82498E+000	1.12634E-006	0.00000E+000	4.30822E-006	0.00000E+000	7.07857E-004	-3.27687E+002	7	...........
	297	298	3.82497E+000	1.12693E-006	0.00000E+000	4.31046E-006	0.00000E+000	7.08290E-004	-3.27687E+002	7	...........
	298	299	3.82496E+000	1.12599E-006	0.00000E+000	4.30688E-006	0.00000E+000	7.06124E-004	-3.27687E+002	7	...........
	299	300	3.82495E+000	1.12593E-006	0.00000E+000	4.30663E-006	0.00000E+000	7.08490E-004	-3.27687E+002	7	...........
	300	301	3.82495E+000	1.12567E-006	0.00000E+000	4.30562E-006	0.00000E+000	7.06807E-004	-3.27687E+002	7	...........
	301	302	3.82494E+000	1.12583E-006	0.00000E+000	4.30624E-006	0.00000E+000	7.06874E-004	-3.27687E+002	7	...........
	302	303	3.82493E+000	1.12535E-006	0.00000E+000	4.30439E-006	0.00000E+000	7.08290E-004	-3.27687E+002	7	...........
	303	304	3.82493E+000	1.12485E-006	0.00000E+000	4.30247E-006	0.00000E+000	7.08674E-004	-3.27687E+002	7	...........
	304	305	3.82491E+000	1.12448E-006	0.00000E+000	4.30104E-006	0.00000E+000	7.05740E-004	-3.27687E+002	7	...........
	305	306	3.82491E+000	1.12533E-006	0.00000E+000	4.30430E-006	0.00000E+000	7.07974E-004	-3.27687E+002	7	...........
	306	307	3.82490E+000	1.12544E-006	0.00000E+000	4.30472E-006	0.00000E+000	7.10424E-004	-3.27687E+002	7	...........
	307	308	3.82490E+000	1.12562E-006	0.00000E+000	4.30539E-006	0.00000E+000	7.05024E-004	-3.27687E+002	7	...........
	308	309	3.82489E+000	1.12532E-006	0.00000E+000	4.30422E-006	0.00000E+000	7.07457E-004	-3.27687E+002	7	...........
	309	310	3.82487E+000	1.12473E-006	0.00000E+000	4.30193E-006	0.00000E+000	7.04790E-004	-3.27687E+002	7	...........
	310	311	3.82487E+000	1.12480E-006	0.00000E+000	4.30223E-006	0.00000E+000	7.05857E-004	-3.27687E+002	7	...........
	311	312	3.82486E+000	1.12495E-006	0.00000E+000	4.30280E-006	0.00000E+000	7.06307E-004	-3.27687E+002	7	...........
	312	313	3.82485E+000	1.12492E-006	0.00000E+000	4.30266E-006	0.00000E+000	7.04840E-004	-3.27687E+002	7	...........
	313	314	3.82485E+000	1.12490E-006	0.00000E+000	4.30257E-006	0.00000E+000	7.05440E-004	-3.27687E+002	7	...........
	314	315	3.82485E+000	1.12536E-006	0.00000E+000	4.30434E-006	0.00000E+000	7.08140E-004	-3.27687E+002	7	...........
	315	316	3.82484E+000	1.12522E-006	0.00000E+000	4.30377E-006	0.00000E+000	7.06190E-004	-3.27687E+002	7	...........
	316	317	3.82484E+000	1.12426E-006	0.00000E+000	4.30011E-006	0.00000E+000	7.06024E-004	-3.27687E+002	7	...........
	317	318	3.82483E+000	1.12393E-006	0.00000E+000	4.29884E-006	0.00000E+000	7.05757E-004	-3.27687E+002	7	...........
	318	319	3.82481E+000	1.12398E-006	0.00000E+000	4.29903E-006	0.00000E+000	7.03240E-004	-3.27687E+002	7	...........
	319	320	3.82482E+000	1.12399E-006	0.00000E+000	4.29905E-006	0.00000E+000	7.02974E-004	-3.27687E+002	7	...........
	320	321	3.82481E+000	1.12403E-006	0.00000E+000	4.29921E-006	0.00000E+000	7.06957E-004	-3.27687E+002	7	...........
	321	322	3.82480E+000	1.12413E-006	0.00000E+000	4.29958E-006	0.00000E+000	7.03940E-004	-3.27687E+002	7	...........
	322	323	3.82480E+000	1.12487E-006	0.00000E+000	4.30239E-006	0.00000E+000	7.05107E-004	-3.27687E+002	7	...........
	323	324	3.82479E+000	1.12557E-006	0.00000E+000	4.30508E-006	0.00000E+000	7.02574E-004	-3.27687E+002	7	...........
	324	325	3.82478E+000	1.12490E-006	0.00000E+000	4.30247E-006	0.00000E+000	7.06357E-004	-3.27687E+002	7	...........
	325	326	3.82478E+000	1.12395E-006	0.00000E+000	4.29886E-006	0.00000E+000	7.06590E-004	-3.27687E+002	7	...........
	326	327	3.82478E+000	1.12419E-006	0.00000E+000	4.29977E-006	0.00000E+000	7.03590E-004	-3.27687E+002	7	...........
	327	328	3.82478E+000	1.12431E-006	0.00000E+000	4.30024E-006	0.00000E+000	7.02290E-004	-3.27687E+002	7	...........
	328	329	3.82477E+000	1.12467E-006	0.00000E+000	4.30159E-006	0.00000E+000	7.02857E-004	-3.27687E+002	7	...........
	329	330	3.82476E+000	1.12436E-006	0.00000E+000	4.30042E-006	0.00000E+000	7.03874E-004	-3.27687E+002	7	...........
	330	331	3.82475E+000	1.12500E-006	0.00000E+000	4.30285E-006	0.00000E+000	7.04990E-004	-3.27687E+002	7	...........
	331	332	3.82474E+000	1.12451E-006	0.00000E+000	4.30095E-006	0.00000E+000	7.02057E-004	-3.27687E+002	7	...........
	332	333	3.82474E+000	1.12486E-006	0.00000E+000	4.30228E-006	0.00000E+000	7.03590E-004	-3.27687E+002	7	...........
	333	334	3.82472E+000	1.12439E-006	0.00000E+000	4.30048E-006	0.00000E+000	7.01540E-004	-3.27687E+002	7	...........
	334	335	3.82472E+000	1.12494E-006	0.00000E+000	4.30259E-006	0.00000E+000	7.03274E-004	-3.27687E+002	7	...........
	335	336	3.82472E+000	1.12385E-006	0.00000E+000	4.29840E-006	0.00000E+000	7.04090E-004	-3.27687E+002	7	...........
	336	337	3.82471E+000	1.12370E-006	0.00000E+000	4.29783E-006	0.00000E+000	7.00940E-004	-3.27687E+002	7	...........
	337	338	3.82471E+000	1.12421E-006	0.00000E+000	4.29978E-006	0.00000E+000	7.02107E-004	-3.27687E+002	7	...........
	338	339	3.82470E+000	1.12420E-006	0.00000E+000	4.29971E-006	0.00000E+000	7.04257E-004	-3.27687E+002	7	...........
	339	340	3.82469E+000	1.12456E-006	0.00000E+000	4.30108E-006	0.00000E+000	7.04624E-004	-3.27687E+002	7	...........
	340	341	3.82469E+000	1.12530E-006	0.00000E+000	4.30393E-006	0.00000E+000	7.03890E-004	-3.27687E+002	7	...........
	341	342	3.82468E+000	1.12490E-006	0.00000E+000	4.30239E-006	0.00000E+000	7.03590E-004	-3.27687E+002	7	...........
	342	343	3.82467E+000	1.12437E-006	0.00000E+000	4.30036E-006	0.00000E+000	7.05307E-004	-3.27687E+002	7	...........
	343	344	3.82467E+000	1.12495E-006	0.00000E+000	4.30255E-006	0.00000E+000	7.05224E-004	-3.27687E+002	7	...........
	344	345	3.82466E+000	1.12429E-006	0.00000E+000	4.30003E-006	0.00000E+000	7.04640E-004	-3.27687E+002	7	...........
	345	346	3.82465E+000	1.12402E-006	0.00000E+000	4.29898E-006	0.00000E+000	7.03140E-004	-3.27687E+002	7	...........
	346	347	3.82465E+000	1.12392E-006	0.00000E+000	4.29862E-006	0.00000E+000	7.02757E-004	-3.27687E+002	7	...........
	347	348	3.82465E+000	1.12442E-006	0.00000E+000	4.30049E-006	0.00000E+000	7.04240E-004	-3.27687E+002	7	...........
	348	349	3.82464E+000	1.12424E-006	0.00000E+000	4.29980E-006	0.00000E+000	7.03840E-004	-3.27687E+002	7	...........
	349	350	3.82462E+000	1.12392E-006	0.00000E+000	4.29856E-006	0.00000E+000	7.04740E-004	-3.27687E+002	7	...........
	350	351	3.82462E+000	1.12412E-006	0.00000E+000	4.29932E-006	0.00000E+000	7.03357E-004	-3.27687E+002	7	...........
	351	352	3.82462E+000	1.12435E-006	0.00000E+000	4.30023E-006	0.00000E+000	7.03024E-004	-3.27687E+002	7	...........
	352	353	3.82461E+000	1.12441E-006	0.00000E+000	4.30043E-006	0.00000E+000	7.06424E-004	-3.27687E+002	7	...........
	353	354	3.82460E+000	1.12393E-006	0.00000E+000	4.29857E-006	0.00000E+000	7.04574E-004	-3.27687E+002	7	...........
	354	355	3.82459E+000	1.12408E-006	0.00000E+000	4.29914E-006	0.00000E+000	7.04324E-004	-3.27687E+002	7	...........
	355	356	3.82459E+000	1.12336E-006	0.00000E+000	4.29638E-006	0.00000E+000	7.06440E-004	-3.27687E+002	7	...........
	356	357	3.82458E+000	1.12390E-006	0.00000E+000	4.29843E-006	0.00000E+000	7.05774E-004	-3.27687E+002	7	...........
	357	358	3.82458E+000	1.12349E-006	0.00000E+000	4.29689E-006	0.00000E+000	7.05424E-004	-3.27687E+002	7	...........
	358	359	3.82457E+000	1.12337E-006	0.00000E+000	4.29641E-006	0.00000E+000	7.04890E-004	-3.27687E+002	7	...........
	359	360	3.82456E+000	1.12366E-006	0.00000E+000	4.29750E-006	0.00000E+000	7.05274E-004	-3.27687E+002	7	...........
	360	361	3.82455E+000	1.12344E-006	0.00000E+000	4.29665E-006	0.00000E+000	7.07024E-004	-3.27687E+002	7	...........
	361	362	3.82454E+000	1.12406E-006	0.00000E+000	4.29901E-006	0.00000E+000	7.07840E-004	-3.27687E+002	7	...........
	362	363	3.82453E+000	1.12321E-006	0.00000E+000	4.29577E-006	0.00000E+000	7.07524E-004	-3.27687E+002	7	...........
	363	364	3.82453E+000	1.12336E-006	0.00000E+000	4.29631E-006	0.00000E+000	7.05457E-004	-3.27687E+002	7	...........
	364	365	3.82453E+000	1.12312E-006	0.00000E+000	4.29540E-006	0.00000E+000	7.07024E-004	-3.27687E+002	7	...........
	365	366	3.82451E+000	1.12333E-006	0.00000E+000	4.29618E-006	0.00000E+000	7.04974E-004	-3.27687E+002	7	...........
	366	367	3.82452E+000	1.12262E-006	0.00000E+000	4.29346E-006	0.00000E+000	7.07174E-004	-3.27687E+002	7	...........
	367	368	3.82451E+000	1.12263E-006	0.00000E+000	4.29351E-006	0.00000E+000	7.07824E-004	-3.27687E+002	7	...........
	368	369	3.82450E+000	1.12286E-006	0.00000E+000	4.29439E-006	0.00000E+000	7.09007E-004	-3.27687E+002	7	...........
	369	370	3.82449E+000	1.12324E-006	0.00000E+000	4.29584E-006	0.00000E+000	7.08490E-004	-3.27687E+002	7	...........
	370	371	3.82449E+000	1.12304E-006	0.00000E+000	4.29506E-006	0.00000E+000	7.07840E-004	-3.27687E+002	7	...........
	371	372	3.82449E+000	1.12258E-006	0.00000E+000	4.29331E-006	0.00000E+000	7.08474E-004	-3.27687E+002	7	...........
	372	373	3.82448E+000	1.12372E-006	0.00000E+000	4.29765E-006	0.00000E+000	7.08024E-004	-3.27687E+002	7	...........
	373	374	3.82448E+000	1.12412E-006	0.00000E+000	4.29916E-006	0.00000E+000	7.05090E-004	-3.27687E+002	7	...........
	374	375	3.82447E+000	1.12358E-006	0.00000E+000	4.29708E-006	0.00000E+000	7.07607E-004	-3.27687E+002	7	...........
	375	376	3.82446E+000	1.12398E-006	0.00000E+000	4.29862E-006	0.00000E+000	7.09457E-004	-3.27687E+002	7	...........
	376	377	3.82446E+000	1.12305E-006	0.00000E+000	4.29506E-006	0.00000E+000	7.08640E-004	-3.27687E+002	7	...........
	377	378	3.82445E+000	1.12376E-006	0.00000E+000	4.29775E-006	0.00000E+000	7.09390E-004	-3.27687E+002	7	...........
	378	379	3.82444E+000	1.12370E-006	0.00000E+000	4.29752E-006	0.00000E+000	7.08224E-004	-3.27687E+002	7	...........
	379	380	3.82444E+000	1.12301E-006	0.00000E+000	4.29486E-006	0.00000E+000	7.08157E-004	-3.27687E+002	7	...........
	380	381	3.82443E+000	1.12302E-006	0.00000E+000	4.29491E-006	0.00000E+000	7.06090E-004	-3.27687E+002	7	...........
	381	382	3.82443E+000	1.12340E-006	0.00000E+000	4.29637E-006	0.00000E+000	7.09157E-004	-3.27687E+002	7	...........
	382	383	3.82443E+000	1.12368E-006	0.00000E+000	4.29744E-006	0.00000E+000	7.08424E-004	-3.27687E+002	7	...........
	383	384	3.82442E+000	1.12258E-006	0.00000E+000	4.29322E-006	0.00000E+000	7.09374E-004	-3.27687E+002	7	...........
	384	385	3.82441E+000	1.12299E-006	0.00000E+000	4.29476E-006	0.00000E+000	7.10840E-004	-3.27687E+002	7	...........
	385	386	3.82441E+000	1.12229E-006	0.00000E+000	4.29207E-006	0.00000E+000	7.11907E-004	-3.27687E+002	7	...........
	386	387	3.82439E+000	1.12213E-006	0.00000E+000	4.29144E-006	0.00000E+000	7.14574E-004	-3.27687E+002	7	...........
	387	388	3.82439E+000	1.12207E-006	0.00000E+000	4.29125E-006	0.00000E+000	7.14174E-004	-3.27687E+002	7	...........
	388	389	3.82438E+000	1.12326E-006	0.00000E+000	4.29578E-006	0.00000E+000	7.14257E-004	-3.27687E+002	7	...........
	389	390	3.82438E+000	1.12359E-006	0.00000E+000	4.29701E-006	0.00000E+000	7.10890E-004	-3.27687E+002	7	...........
	390	391	3.82437E+000	1.12354E-006	0.00000E+000	4.29681E-006	0.00000E+000	7.14757E-004	-3.27687E+002	7	...........
	391	392	3.82436E+000	1.12289E-006	0.00000E+000	4.29435E-006	0.00000E+000	7.12674E-004	-3.27687E+002	7	...........
	392	393	3.82436E+000	1.12337E-006	0.00000E+000	4.29616E-006	0.00000E+000	7.12840E-004	-3.27687E+002	7	...........
	393	394	3.82434E+000	1.12241E-006	0.00000E+000	4.29247E-006	0.00000E+000	7.13890E-004	-3.27687E+002	7	...........
	394	395	3.82434E+000	1.12260E-006	0.00000E+000	4.29321E-006	0.00000E+000	7.14157E-004	-3.27687E+002	7	...........
	395	396	3.82434E+000	1.12274E-006	0.00000E+000	4.29373E-006	0.00000E+000	7.14407E-004	-3.27687E+002	7	...........
	396	397	3.82433E+000	1.12368E-006	0.00000E+000	4.29733E-006	0.00000E+000	7.16757E-004	-3.27687E+002	7	...........
	397	398	3.82432E+000	1.12268E-006	0.00000E+000	4.29349E-006	0.00000E+000	7.13074E-004	-3.27687E+002	7	...........
	398	399	3.82432E+000	1.12326E-006	0.00000E+000	4.29569E-006	0.00000E+000	7.12974E-004	-3.27687E+002	7	...........
	399	400	3.82431E+000	1.12255E-006	0.00000E+000	4.29298E-006	0.00000E+000	7.16224E-004	-3.27687E+002	7	...........
	400	401	3.82431E+000	1.12220E-006	0.00000E+000	4.29165E-006	0.00000E+000	7.14157E-004	-3.27687E+002	7	...........
	401	402	3.82430E+000	1.12249E-006	0.00000E+000	4.29274E-006	0.00000E+000	7.16057E-004	-3.27687E+002	7	...........
	402	403	3.82429E+000	1.12198E-006	0.00000E+000	4.29079E-006	0.00000E+000	7.17624E-004	-3.27687E+002	7	...........
	403	404	3.82428E+000	1.12216E-006	0.00000E+000	4.29144E-006	0.00000E+000	7.17840E-004	-3.27687E+002	7	...........
	404	405	3.82427E+000	1.12178E-006	0.00000E+000	4.29000E-006	0.00000E+000	7.17657E-004	-3.27687E+002	7	...........
	405	406	3.82426E+000	1.12252E-006	0.00000E+000	4.29281E-006	0.00000E+000	7.17724E-004	-3.27687E+002	7	...........
	406	407	3.82425E+000	1.12255E-006	0.00000E+000	4.29291E-006	0.00000E+000	7.18907E-004	-3.27687E+002	7	...........
	407	408	3.82425E+000	1.12219E-006	0.00000E+000	4.29154E-006	0.00000E+000	7.18874E-004	-3.27687E+002	7	...........
	408	409	3.82424E+000	1.12162E-006	0.00000E+000	4.28936E-006	0.00000E+000	7.18107E-004	-3.27687E+002	7	...........
	409	410	3.82423E+000	1.12198E-006	0.00000E+000	4.29070E-006	0.00000E+000	7.19907E-004	-3.27687E+002	7	...........
	410	411	3.82423E+000	1.12203E-006	0.00000E+000	4.29091E-006	0.00000E+000	7.17290E-004	-3.27687E+002	7	...........
	411	412	3.82423E+000	1.12185E-006	0.00000E+000	4.29022E-006	0.00000E+000	7.19740E-004	-3.27687E+002	7	...........
	412	413	3.82421E+000	1.12246E-006	0.00000E+000	4.29254E-006	0.00000E+000	7.22640E-004	-3.27687E+002	7	...........
	413	414	3.82421E+000	1.12352E-006	0.00000E+000	4.29655E-006	0.00000E+000	7.20040E-004	-3.27687E+002	7	...........
	414	415	3.82420E+000	1.12369E-006	0.00000E+000	4.29722E-006	0.00000E+000	7.19807E-004	-3.27687E+002	7	...........
	415	416	3.82420E+000	1.12330E-006	0.00000E+000	4.29572E-006	0.00000E+000	7.23957E-004	-3.27687E+002	7	...........
	416	417	3.82419E+000	1.12260E-006	0.00000E+000	4.29306E-006	0.00000E+000	7.22757E-004	-3.27687E+002	7	...........
	417	418	3.82419E+000	1.12228E-006	0.00000E+000	4.29181E-006	0.00000E+000	7.21107E-004	-3.27687E+002	7	...........
	418	419	3.82418E+000	1.12241E-006	0.00000E+000	4.29230E-006	0.00000E+000	7.22540E-004	-3.27687E+002	7	...........
	419	420	3.82418E+000	1.12155E-006	0.00000E+000	4.28901E-006	0.00000E+000	7.22574E-004	-3.27687E+002	7	...........
	420	421	3.82418E+000	1.12103E-006	0.00000E+000	4.28700E-006	0.00000E+000	7.22057E-004	-3.27687E+002	7	...........
	421	422	3.82417E+000	1.12264E-006	0.00000E+000	4.29317E-006	0.00000E+000	7.23190E-004	-3.27687E+002	7	...........
	422	423	3.82416E+000	1.12302E-006	0.00000E+000	4.29460E-006	0.00000E+000	7.23374E-004	-3.27687E+002	7	...........
	423	424	3.82415E+000	1.12307E-006	0.00000E+000	4.29478E-006	0.00000E+000	7.23090E-004	-3.27687E+002	7	...........
	424	425	3.82415E+000	1.12199E-006	0.00000E+000	4.29067E-006	0.00000E+000	7.22407E-004	-3.27687E+002	7	...........
	425	426	3.82415E+000	1.12183E-006	0.00000E+000	4.29003E-006	0.00000E+000	7.24407E-004	-3.27687E+002	7	...........
	426	427	3.82413E+000	1.12238E-006	0.00000E+000	4.29213E-006	0.00000E+000	7.25757E-004	-3.27687E+002	7	...........
	427	428	3.82413E+000	1.12205E-006	0.00000E+000	4.29088E-006	0.00000E+000	7.25674E-004	-3.27687E+002	7	...........
	428	429	3.82412E+000	1.12267E-006	0.00000E+000	4.29323E-006	0.00000E+000	7.25624E-004	-3.27687E+002	7	...........
	429	430	3.82412E+000	1.12219E-006	0.00000E+000	4.29139E-006	0.00000E+000	7.23474E-004	-3.27687E+002	7	...........
	430	431	3.82411E+000	1.12249E-006	0.00000E+000	4.29252E-006	0.00000E+000	7.24457E-004	-3.27687E+002	7	...........
	431	432	3.82412E+000	1.12249E-006	0.00000E+000	4.29253E-006	0.00000E+000	7.23390E-004	-3.27687E+002	7	...........
	432	433	3.82410E+000	1.12175E-006	0.00000E+000	4.28971E-006	0.00000E+000	7.26590E-004	-3.27687E+002	7	...........
	433	434	3.82409E+000	1.12159E-006	0.00000E+000	4.28906E-006	0.00000E+000	7.25407E-004	-3.27687E+002	7	...........
	434	435	3.82409E+000	1.12067E-006	0.00000E+000	4.28555E-006	0.00000E+000	7.24040E-004	-3.27687E+002	7	...........
	435	436	3.82408E+000	1.12042E-006	0.00000E+000	4.28457E-006	0.00000E+000	7.26640E-004	-3.27687E+002	7	...........
	436	437	3.82408E+000	1.12060E-006	0.00000E+000	4.28527E-006	0.00000E+000	7.29140E-004	-3.27687E+002	7	...........
	437	438	3.82407E+000	1.12087E-006	0.00000E+000	4.28629E-006	0.00000E+000	7.26290E-004	-3.27687E+002	7	...........
	438	439	3.82407E+000	1.12137E-006	0.00000E+000	4.28819E-006	0.00000E+000	7.26640E-004	-3.27687E+002	7	...........
	439	440	3.82407E+000	1.12179E-006	0.00000E+000	4.28980E-006	0.00000E+000	7.25340E-004	-3.27687E+002	7	...........
	440	441	3.82406E+000	1.12161E-006	0.00000E+000	4.28912E-006	0.00000E+000	7.28824E-004	-3.27687E+002	7	...........
	441	442	3.82404E+000	1.12150E-006	0.00000E+000	4.28868E-006	0.00000E+000	7.26640E-004	-3.27687E+002	7	...........
	442	443	3.82404E+000	1.12125E-006	0.00000E+000	4.28770E-006	0.00000E+000	7.26574E-004	-3.27687E+002	7	...........
	443	444	3.82403E+000	1.12140E-006	0.00000E+000	4.28826E-006	0.00000E+000	7.28890E-004	-3.27687E+002	7	...........
	444	445	3.82404E+000	1.12208E-006	0.00000E+000	4.29087E-006	0.00000E+000	7.28457E-004	-3.27687E+002	7	...........
	445	446	3.82403E+000	1.12310E-006	0.00000E+000	4.29476E-006	0.00000E+000	7.29390E-004	-3.27687E+002	7	...........
	446	447	3.82403E+000	1.12344E-006	0.00000E+000	4.29606E-006	0.00000E+000	7.28557E-004	-3.27687E+002	7	...........
	447	448	3.82401E+000	1.12268E-006	0.00000E+000	4.29314E-006	0.00000E+000	7.26790E-004	-3.27687E+002	7	...........
	448	449	3.82401E+000	1.12280E-006	0.00000E+000	4.29361E-006	0.00000E+000	7.27074E-004	-3.27687E+002	7	...........
	449	450	3.82401E+000	1.12297E-006	0.00000E+000	4.29426E-006	0.00000E+000	7.26740E-004	-3.27687E+002	7	...........
	450	451	3.82401E+000	1.12208E-006	0.00000E+000	4.29086E-006	0.00000E+000	7.27357E-004	-3.27687E+002	7	...........
	451	452	3.82400E+000	1.12158E-006	0.00000E+000	4.28894E-006	0.00000E+000	7.27607E-004	-3.27687E+002	7	...........
	452	453	3.82399E+000	1.12092E-006	0.00000E+000	4.28640E-006	0.00000E+000	7.28624E-004	-3.27687E+002	7	...........
	453	454	3.82399E+000	1.12092E-006	0.00000E+000	4.28640E-006	0.00000E+000	7.28340E-004	-3.27687E+002	7	...........
	454	455	3.82399E+000	1.12140E-006	0.00000E+000	4.28822E-006	0.00000E+000	7.31257E-004	-3.27687E+002	7	...........
	455	456	3.82399E+000	1.12169E-006	0.00000E+000	4.28933E-006	0.00000E+000	7.29240E-004	-3.27687E+002	7	...........
	456	457	3.82398E+000	1.12196E-006	0.00000E+000	4.29035E-006	0.00000E+000	7.28540E-004	-3.27687E+002	7	...........
	457	458	3.82397E+000	1.12144E-006	0.00000E+000	4.28836E-006	0.00000E+000	7.29074E-004	-3.27687E+002	7	...........
	458	459	3.82396E+000	1.12189E-006	0.00000E+000	4.29006E-006	0.00000E+000	7.28224E-004	-3.27687E+002	7	...........
	459	460	3.82396E+000	1.12213E-006	0.00000E+000	4.29098E-006	0.00000E+000	7.30640E-004	-3.27687E+002	7	...........
	460	461	3.82395E+000	1.12237E-006	0.00000E+000	4.29190E-006	0.00000E+000	7.30757E-004	-3.27687E+002	7	...........
	461	462	3.82394E+000	1.12277E-006	0.00000E+000	4.29342E-006	0.00000E+000	7.28140E-004	-3.27687E+002	7	...........
	462	463	3.82393E+000	1.12217E-006	0.00000E+000	4.29109E-006	0.00000E+000	7.29257E-004	-3.27687E+002	7	...........
	463	464	3.82393E+000	1.12226E-006	0.00000E+000	4.29145E-006	0.00000E+000	7.29290E-004	-3.27687E+002	7	...........
	464	465	3.82393E+000	1.12201E-006	0.00000E+000	4.29049E-006	0.00000E+000	7.28340E-004	-3.27687E+002	7	...........
	465	466	3.82392E+000	1.12131E-006	0.00000E+000	4.28781E-006	0.00000E+000	7.29324E-004	-3.27687E+002	7	...........
	466	467	3.82391E+000	1.12151E-006	0.00000E+000	4.28855E-006	0.00000E+000	7.29074E-004	-3.27687E+002	7	...........
	467	468	3.82391E+000	1.12066E-006	0.00000E+000	4.28530E-006	0.00000E+000	7.28857E-004	-3.27687E+002	7	...........
	468	469	3.82390E+000	1.12082E-006	0.00000E+000	4.28591E-006	0.00000E+000	7.28540E-004	-3.27687E+002	7	...........
	469	470	3.82389E+000	1.12095E-006	0.00000E+000	4.28638E-006	0.00000E+000	7.27407E-004	-3.27687E+002	7	...........
	470	471	3.82388E+000	1.12030E-006	0.00000E+000	4.28389E-006	0.00000E+000	7.28874E-004	-3.27687E+002	7	...........
	471	472	3.82388E+000	1.12043E-006	0.00000E+000	4.28439E-006	0.00000E+000	7.32674E-004	-3.27687E+002	7	...........
	472	473	3.82388E+000	1.12067E-006	0.00000E+000	4.28530E-006	0.00000E+000	7.29390E-004	-3.27687E+002	7	...........
	473	474	3.82387E+000	1.12071E-006	0.00000E+000	4.28546E-006	0.00000E+000	7.30474E-004	-3.27687E+002	7	...........
	474	475	3.82387E+000	1.12030E-006	0.00000E+000	4.28387E-006	0.00000E+000	7.29357E-004	-3.27687E+002	7	...........
	475	476	3.82386E+000	1.12042E-006	0.00000E+000	4.28432E-006	0.00000E+000	7.32390E-004	-3.27687E+002	7	...........
	476	477	3.82386E+000	1.12046E-006	0.00000E+000	4.28449E-006	0.00000E+000	7.29190E-004	-3.27687E+002	7	...........
	477	478	3.82384E+000	1.12098E-006	0.00000E+000	4.28646E-006	0.00000E+000	7.28824E-004	-3.27687E+002	7	...........
	478	479	3.82384E+000	1.12128E-006	0.00000E+000	4.28760E-006	0.00000E+000	7.29840E-004	-3.27687E+002	7	...........
	479	480	3.82383E+000	1.12047E-006	0.00000E+000	4.28449E-006	0.00000E+000	7.30524E-004	-3.27687E+002	7	...........
	480	481	3.82383E+000	1.12151E-006	0.00000E+000	4.28845E-006	0.00000E+000	7.30807E-004	-3.27687E+002	7	...........
	481	482	3.82381E+000	1.12119E-006	0.00000E+000	4.28723E-006	0.00000E+000	7.31290E-004	-3.27687E+002	7	...........
	482	483	3.82381E+000	1.12140E-006	0.00000E+000	4.28802E-006	0.00000E+000	7.31324E-004	-3.27687E+002	7	...........
	483	484	3.82381E+000	1.12195E-006	0.00000E+000	4.29012E-006	0.00000E+000	7.30357E-004	-3.27687E+002	7	...........
	484	485	3.82382E+000	1.12171E-006	0.00000E+000	4.28922E-006	0.00000E+000	7.30590E-004	-3.27687E+002	7	...........
	485	486	3.82380E+000	1.12160E-006	0.00000E+000	4.28878E-006	0.00000E+000	7.30624E-004	-3.27687E+002	7	...........
	486	487	3.82379E+000	1.12203E-006	0.00000E+000	4.29040E-006	0.00000E+000	7.32390E-004	-3.27687E+002	7	...........
	487	488	3.82379E+000	1.12196E-006	0.00000E+000	4.29012E-006	0.00000E+000	7.31757E-004	-3.27687E+002	7	...........
	488	489	3.82378E+000	1.12219E-006	0.00000E+000	4.29102E-006	0.00000E+000	7.30124E-004	-3.27687E+002	7	...........
	489	490	3.82378E+000	1.12245E-006	0.00000E+000	4.29201E-006	0.00000E+000	7.30824E-004	-3.27687E+002	7	...........
	490	491	3.82378E+000	1.12156E-006	0.00000E+000	4.28860E-006	0.00000E+000	7.28224E-004	-3.27687E+002	7	...........
	491	492	3.82378E+000	1.12077E-006	0.00000E+000	4.28556E-006	0.00000E+000	7.30990E-004	-3.27687E+002	7	...........
	492	493	3.82377E+000	1.12117E-006	0.00000E+000	4.28708E-006	0.00000E+000	7.29524E-004	-3.27687E+002	7	...........
	493	494	3.82375E+000	1.12203E-006	0.00000E+000	4.29037E-006	0.00000E+000	7.30924E-004	-3.27687E+002	7	...........
	494	495	3.82376E+000	1.12194E-006	0.00000E+000	4.29002E-006	0.00000E+000	7.29140E-004	-3.27687E+002	7	...........
	495	496	3.82374E+000	1.12172E-006	0.00000E+000	4.28917E-006	0.00000E+000	7.32940E-004	-3.27687E+002	7	...........
	496	497	3.82373E+000	1.12146E-006	0.00000E+000	4.28816E-006	0.00000E+000	7.29474E-004	-3.27687E+002	7	...........
	497	498	3.82373E+000	1.12106E-006	0.00000E+000	4.28662E-006	0.00000E+000	7.30290E-004	-3.27687E+002	7	...........
	498	499	3.82373E+000	1.12056E-006	0.00000E+000	4.28471E-006	0.00000E+000	7.31690E-004	-3.27687E+002	7	...........
	499	500	3.82372E+000	1.12089E-006	0.00000E+000	4.28598E-006	0.00000E+000	7.33007E-004	-3.27687E+002	7	...........
	500	501	3.82372E+000	1.12035E-006	0.00000E+000	4.28390E-006	0.00000E+000	7.32307E-004	-3.27687E+002	7	...........
	501	502	3.82371E+000	1.12124E-006	0.00000E+000	4.28731E-006	0.00000E+000	7.30457E-004	-3.27687E+002	7	...........
	502	503	3.82371E+000	1.12140E-006	0.00000E+000	4.28792E-006	0.00000E+000	7.29974E-004	-3.27687E+002	7	...........
	503	504	3.82370E+000	1.12093E-006	0.00000E+000	4.28609E-006	0.00000E+000	7.30640E-004	-3.27687E+002	7	...........
	504	505	3.82370E+000	1.12133E-006	0.00000E+000	4.28763E-006	0.00000E+000	7.29790E-004	-3.27687E+002	7	...........
	505	506	3.82370E+000	1.12139E-006	0.00000E+000	4.28786E-006	0.00000E+000	7.30957E-004	-3.27687E+002	7	...........
	506	507	3.82369E+000	1.12155E-006	0.00000E+000	4.28848E-006	0.00000E+000	7.31774E-004	-3.27687E+002	7	...........
	507	508	3.82368E+000	1.12130E-006	0.00000E+000	4.28749E-006	0.00000E+000	7.28890E-004	-3.27687E+002	7	...........
	508	509	3.82367E+000	1.12190E-006	0.00000E+000	4.28979E-006	0.00000E+000	7.29707E-004	-3.27687E+002	7	...........
	509	510	3.82368E+000	1.12177E-006	0.00000E+000	4.28927E-006	0.00000E+000	7.30607E-004	-3.27687E+002	7	...........
	510	511	3.82367E+000	1.12156E-006	0.00000E+000	4.28848E-006	0.00000E+000	7.31924E-004	-3.27687E+002	7	...........
	511	512	3.82367E+000	1.12190E-006	0.00000E+000	4.28978E-006	0.00000E+000	7.29824E-004	-3.27687E+002	7	...........
	512	513	3.82366E+000	1.12133E-006	0.00000E+000	4.28760E-006	0.00000E+000	7.31074E-004	-3.27687E+002	7	...........
	513	514	3.82365E+000	1.12129E-006	0.00000E+000	4.28741E-006	0.00000E+000	7.29290E-004	-3.27687E+002	7	...........
	514	515	3.82365E+000	1.12239E-006	0.00000E+000	4.29163E-006	0.00000E+000	7.31224E-004	-3.27687E+002	7	...........
	515	516	3.82365E+000	1.12163E-006	0.00000E+000	4.28872E-006	0.00000E+000	7.32457E-004	-3.27687E+002	7	...........
	516	517	3.82365E+000	1.12108E-006	0.00000E+000	4.28661E-006	0.00000E+000	7.31707E-004	-3.27687E+002	7	...........
	517	518	3.82363E+000	1.12088E-006	0.00000E+000	4.28581E-006	0.00000E+000	7.31974E-004	-3.27687E+002	7	...........
	518	519	3.82363E+000	1.12047E-006	0.00000E+000	4.28425E-006	0.00000E+000	7.35224E-004	-3.27687E+002	7	...........
	519	520	3.82362E+000	1.12069E-006	0.00000E+000	4.28511E-006	0.00000E+000	7.31240E-004	-3.27687E+002	7	...........
	520	521	3.82363E+000	1.12109E-006	0.00000E+000	4.28664E-006	0.00000E+000	7.31557E-004	-3.27687E+002	7	...........
	521	522	3.82363E+000	1.12195E-006	0.00000E+000	4.28991E-006	0.00000E+000	7.32774E-004	-3.27687E+002	7	...........
	522	523	3.82361E+000	1.12255E-006	0.00000E+000	4.29221E-006	0.00000E+000	7.30724E-004	-3.27687E+002	7	...........
	523	524	3.82361E+000	1.12135E-006	0.00000E+000	4.28761E-006	0.00000E+000	7.27957E-004	-3.27687E+002	7	...........
	524	525	3.82361E+000	1.12087E-006	0.00000E+000	4.28578E-006	0.00000E+000	7.31357E-004	-3.27687E+002	7	...........
	525	526	3.82360E+000	1.12039E-006	0.00000E+000	4.28391E-006	0.00000E+000	7.30374E-004	-3.27687E+002	7	...........
	526	527	3.82360E+000	1.12097E-006	0.00000E+000	4.28614E-006	0.00000E+000	7.31657E-004	-3.27687E+002	7	...........
	527	528	3.82359E+000	1.12090E-006	0.00000E+000	4.28588E-006	0.00000E+000	7.28240E-004	-3.27687E+002	7	...........
	528	529	3.82358E+000	1.12072E-006	0.00000E+000	4.28515E-006	0.00000E+000	7.30857E-004	-3.27687E+002	7	...........
	529	530	3.82359E+000	1.12104E-006	0.00000E+000	4.28639E-006	0.00000E+000	7.31124E-004	-3.27687E+002	7	...........
	530	531	3.82358E+000	1.12000E-006	0.00000E+000	4.28243E-006	0.00000E+000	7.30090E-004	-3.27687E+002	7	...........
	531	532	3.82357E+000	1.12084E-006	0.00000E+000	4.28563E-006	0.00000E+000	7.30657E-004	-3.27687E+002	7	...........
	532	533	3.82357E+000	1.12070E-006	0.00000E+000	4.28506E-006	0.00000E+000	7.30507E-004	-3.27687E+002	7	...........
	533	534	3.82358E+000	1.12001E-006	0.00000E+000	4.28244E-006	0.00000E+000	7.29157E-004	-3.27687E+002	7	...........
	534	535	3.82356E+000	1.11975E-006	0.00000E+000	4.28142E-006	0.00000E+000	7.31724E-004	-3.27687E+002	7	...........
	535	536	3.82357E+000	1.12102E-006	0.00000E+000	4.28630E-006	0.00000E+000	7.30724E-004	-3.27687E+002	7	...........
	536	537	3.82356E+000	1.12078E-006	0.00000E+000	4.28536E-006	0.00000E+000	7.30574E-004	-3.27687E+002	7	...........
	537	538	3.82355E+000	1.12066E-006	0.00000E+000	4.28488E-006	0.00000E+000	7.30324E-004	-3.27687E+002	7	...........
	538	539	3.82354E+000	1.12099E-006	0.00000E+000	4.28614E-006	0.00000E+000	7.31357E-004	-3.27687E+002	7	...........
	539	540	3.82354E+000	1.12125E-006	0.00000E+000	4.28712E-006	0.00000E+000	7.31490E-004	-3.27687E+002	7	...........
	540	541	3.82354E+000	1.12094E-006	0.00000E+000	4.28596E-006	0.00000E+000	7.31407E-004	-3.27687E+002	7	...........
	541	542	3.82354E+000	1.12050E-006	0.00000E+000	4.28428E-006	0.00000E+000	7.30274E-004	-3.27687E+002	7	...........
	542	543	3.82354E+000	1.12095E-006	0.00000E+000	4.28599E-006	0.00000E+000	7.33324E-004	-3.27687E+002	7	...........
	543	544	3.82352E+000	1.12109E-006	0.00000E+000	4.28653E-006	0.00000E+000	7.32074E-004	-3.27687E+002	7	...........
	544	545	3.82352E+000	1.12045E-006	0.00000E+000	4.28406E-006	0.00000E+000	7.33407E-004	-3.27687E+002	7	...........
	545	546	3.82352E+000	1.12100E-006	0.00000E+000	4.28618E-006	0.00000E+000	7.29224E-004	-3.27687E+002	7	...........
	546	547	3.82352E+000	1.12024E-006	0.00000E+000	4.28324E-006	0.00000E+000	7.31040E-004	-3.27687E+002	7	...........
	547	548	3.82351E+000	1.12076E-006	0.00000E+000	4.28525E-006	0.00000E+000	7.30090E-004	-3.27687E+002	7	...........
	548	549	3.82350E+000	1.12025E-006	0.00000E+000	4.28327E-006	0.00000E+000	7.28307E-004	-3.27687E+002	7	...........
	549	550	3.82350E+000	1.12085E-006	0.00000E+000	4.28558E-006	0.00000E+000	7.28807E-004	-3.27687E+002	7	...........
	550	551	3.82350E+000	1.12008E-006	0.00000E+000	4.28261E-006	0.00000E+000	7.31640E-004	-3.27687E+002	7	...........
	551	552	3.82349E+000	1.11997E-006	0.00000E+000	4.28221E-006	0.00000E+000	7.31357E-004	-3.27687E+002	7	...........
	552	553	3.82349E+000	1.12055E-006	0.00000E+000	4.28441E-006	0.00000E+000	7.29240E-004	-3.27687E+002	7	...........
	553	554	3.82348E+000	1.12061E-006	0.00000E+000	4.28464E-006	0.00000E+000	7.32890E-004	-3.27687E+002	7	...........
	554	555	3.82348E+000	1.12034E-006	0.00000E+000	4.28358E-006	0.00000E+000	7.30374E-004	-3.27687E+002	7	...........
	555	556	3.82348E+000	1.12049E-006	0.00000E+000	4.28417E-006	0.00000E+000	7.27574E-004	-3.27687E+002	7	...........
	556	557	3.82347E+000	1.12104E-006	0.00000E+000	4.28626E-006	0.00000E+000	7.27924E-004	-3.27687E+002	7	...........
	557	558	3.82346E+000	1.12077E-006	0.00000E+000	4.28522E-006	0.00000E+000	7.28507E-004	-3.27687E+002	7	...........
	558	559	3.82346E+000	1.12095E-006	0.00000E+000	4.28590E-006	0.00000E+000	7.30457E-004	-3.27687E+002	7	...........
	559	560	3.82345E+000	1.12061E-006	0.00000E+000	4.28460E-006	0.00000E+000	7.30057E-004	-3.27687E+002	7	...........
	560	561	3.82344E+000	1.12021E-006	0.00000E+000	4.28307E-006	0.00000E+000	7.29857E-004	-3.27687E+002	7	...........
	561	562	3.82344E+000	1.12085E-006	0.00000E+000	4.28551E-006	0.00000E+000	7.28607E-004	-3.27687E+002	7	...........
	562	563	3.82343E+000	1.12064E-006	0.00000E+000	4.28470E-006	0.00000E+000	7.29090E-004	-3.27687E+002	7	...........
	563	564	3.82343E+000	1.12041E-006	0.00000E+000	4.28380E-006	0.00000E+000	7.29490E-004	-3.27687E+002	7	...........
	564	565	3.82342E+000	1.12012E-006	0.00000E+000	4.28268E-006	0.00000E+000	7.30074E-004	-3.27687E+002	7	...........
	565	566	3.82343E+000	1.11953E-006	0.00000E+000	4.28044E-006	0.00000E+000	7.28990E-004	-3.27687E+002	7	...........
	566	567	3.82341E+000	1.11973E-006	0.00000E+000	4.28119E-006	0.00000E+000	7.29274E-004	-3.27687E+002	7	...........
	567	568	3.82341E+000	1.11966E-006	0.00000E+000	4.28091E-006	0.00000E+000	7.28757E-004	-3.27687E+002	7	...........
	568	569	3.82340E+000	1.12052E-006	0.00000E+000	4.28418E-006	0.00000E+000	7.28907E-004	-3.27687E+002	7	...........
	569	570	3.82339E+000	1.12049E-006	0.00000E+000	4.28406E-006	0.00000E+000	7.31157E-004	-3.27687E+002	7	...........
	570	571	3.82339E+000	1.11991E-006	0.00000E+000	4.28185E-006	0.00000E+000	7.31240E-004	-3.27687E+002	7	...........
	571	572	3.82338E+000	1.12137E-006	0.00000E+000	4.28743E-006	0.00000E+000	7.29657E-004	-3.27687E+002	7	...........
	572	573	3.82338E+000	1.12208E-006	0.00000E+000	4.29014E-006	0.00000E+000	7.29374E-004	-3.27687E+002	7	...........
	573	574	3.82338E+000	1.12089E-006	0.00000E+000	4.28558E-006	0.00000E+000	7.28324E-004	-3.27687E+002	7	...........
	574	575	3.82338E+000	1.12111E-006	0.00000E+000	4.28641E-006	0.00000E+000	7.29874E-004	-3.27687E+002	7	...........
	575	576	3.82337E+000	1.12076E-006	0.00000E+000	4.28508E-006	0.00000E+000	7.29307E-004	-3.27687E+002	7	...........
	576	577	3.82335E+000	1.12103E-006	0.00000E+000	4.28608E-006	0.00000E+000	7.28874E-004	-3.27687E+002	7	...........
	577	578	3.82336E+000	1.12108E-006	0.00000E+000	4.28631E-006	0.00000E+000	7.28107E-004	-3.27687E+002	7	...........
	578	579	3.82335E+000	1.12099E-006	0.00000E+000	4.28593E-006	0.00000E+000	7.30040E-004	-3.27687E+002	7	...........
	579	580	3.82335E+000	1.12133E-006	0.00000E+000	4.28724E-006	0.00000E+000	7.28174E-004	-3.27687E+002	7	...........
	580	581	3.82335E+000	1.12126E-006	0.00000E+000	4.28696E-006	0.00000E+000	7.31374E-004	-3.27687E+002	7	...........
	581	582	3.82334E+000	1.12112E-006	0.00000E+000	4.28642E-006	0.00000E+000	7.29757E-004	-3.27687E+002	7	...........
	582	583	3.82334E+000	1.12108E-006	0.00000E+000	4.28628E-006	0.00000E+000	7.29974E-004	-3.27687E+002	7	...........
	583	584	3.82335E+000	1.12139E-006	0.00000E+000	4.28744E-006	0.00000E+000	7.30324E-004	-3.27687E+002	7	...........
	584	585	3.82334E+000	1.12097E-006	0.00000E+000	4.28586E-006	0.00000E+000	7.27940E-004	-3.27687E+002	7	...........
	585	586	3.82333E+000	1.12104E-006	0.00000E+000	4.28609E-006	0.00000E+000	7.29140E-004	-3.27687E+002	7	...........
	586	587	3.82332E+000	1.12096E-006	0.00000E+000	4.28578E-006	0.00000E+000	7.28890E-004	-3.27687E+002	7	...........
	587	588	3.82332E+000	1.12146E-006	0.00000E+000	4.28768E-006	0.00000E+000	7.28190E-004	-3.27687E+002	7	...........
	588	589	3.82330E+000	1.12160E-006	0.00000E+000	4.28822E-006	0.00000E+000	7.28490E-004	-3.27687E+002	7	...........
	589	590	3.82330E+000	1.12065E-006	0.00000E+000	4.28460E-006	0.00000E+000	7.27157E-004	-3.27687E+002	7	...........
	590	591	3.82331E+000	1.12032E-006	0.00000E+000	4.28335E-006	0.00000E+000	7.28924E-004	-3.27687E+002	7	...........
	591	592	3.82330E+000	1.12025E-006	0.00000E+000	4.28305E-006	0.00000E+000	7.28224E-004	-3.27687E+002	7	...........
	592	593	3.82330E+000	1.12042E-006	0.00000E+000	4.28369E-006	0.00000E+000	7.27307E-004	-3.27687E+002	7	...........
	593	594	3.82329E+000	1.12071E-006	0.00000E+000	4.28478E-006	0.00000E+000	7.27107E-004	-3.27687E+002	7	...........
	594	595	3.82328E+000	1.12061E-006	0.00000E+000	4.28442E-006	0.00000E+000	7.28990E-004	-3.27687E+002	7	...........
	595	596	3.82327E+000	1.12077E-006	0.00000E+000	4.28502E-006	0.00000E+000	7.29340E-004	-3.27687E+002	7	...........
	596	597	3.82327E+000	1.11994E-006	0.00000E+000	4.28183E-006	0.00000E+000	7.25874E-004	-3.27687E+002	7	...........
	597	598	3.82327E+000	1.11963E-006	0.00000E+000	4.28065E-006	0.00000E+000	7.25540E-004	-3.27687E+002	7	...........
	598	599	3.82328E+000	1.11943E-006	0.00000E+000	4.27988E-006	0.00000E+000	7.26924E-004	-3.27687E+002	7	...........
	599	600	3.82325E+000	1.11887E-006	0.00000E+000	4.27771E-006	0.00000E+000	7.28074E-004	-3.27687E+002	7	...........
