EXPLAIN
TAG	PWR800_READVOLTAGE
TITLE	LABEL	PWR Read Voltage	Test Identifier
DATE	LABEL	22.4.2024	Date
TIME	LABEL	16:33:23	Time
NOTES	NOTES	1	Notes...
	
PSTAT	PSTAT	REF600-12055	Potentiostat
CAPACITY	QUANT	1.00000E+000	Capacity (A-hr)
CELLTYPE	SELECTOR	1	Cell Type
WORKINGCONNECTION	SELECTOR	0	Working Connection
MAXTIME	VARIABLEANDUNITS	6.00000E+002	s	6.00000E+002	second(s)	Max Time
SAMPLETIME	QUANT	1.00000E+000	Sample Period (s)
STOPAT1	MULTIPARAM	0	0.00000E+000	Stop At 1	None	N/A
STOPAT2	MULTIPARAM	0	0.00000E+000	Stop At 2	None	N/A
AESBHCSELECTOR	TOGGLE	F	Save Both Half Cells
EOC	QUANT	3.63495	Open Circuit (V)
SEQUENCER	TOGGLE	TRUE	Run as Sequence
PSTATMODEL	IQUANT	4	Pstat Model
PSTATSECTION	LABEL	REF600-12055	Pstat Section
PSTATSERIALNO	LABEL	12055	Pstat Serial Number
CTRLMODE	IQUANT	0	Control Mode
ELECTROMETER	IQUANT	0	RE=0 or CS=1
IESTAB	IQUANT	0	I/E Stability
CASPEED	IQUANT	4	Control Amp Speed
CONVENTION	IQUANT	1	Current Convention
ICHRANGE	IQUANT	2	Ich Range
ICHRANGEMODE	TOGGLE	T	Ich Auto Range
ICHOFFSETENABLE	TOGGLE	F	Ich Offset Enable
ICHOFFSET	QUANT	0	Ich Offset (V)
ICHFILTER	IQUANT	1	Ich Filter
VCHRANGE	IQUANT	3	Vch Range
VCHRANGEMODE	TOGGLE	T	Vch Auto Range
VCHOFFSETENABLE	TOGGLE	F	Vch Offset Enable
VCHOFFSET	QUANT	0	Vch Offset (V)
VCHFILTER	IQUANT	1	Vch Filter
ACHRANGE	IQUANT	2	Ach Range
ACHOFFSETENABLE	TOGGLE	F	Ach Offset Enable
ACHOFFSET	QUANT	0	Ach Offset (V)
ACHFILTER	IQUANT	1	Ach Filter
IERANGELOWERLIMIT	IQUANT	7	I/E Range Lower Limit
IERANGEMODE	TOGGLE	F	I/E AutoRange
IERANGE	IQUANT	11	I/E Range
POSFEEDENABLE	TOGGLE	F	Positive Feedback IR Comp
POSFEEDRESISTANCE	QUANT	0	Positive Feedback Resistance (ohm)
ACHSELECT	IQUANT	4	Ach Select
SENSECABLEID	IQUANT	14	Sense Cable ID
PWRCABLEID	IQUANT	14	Power Cable ID
DCCALDATE	LABEL	2/12/2024	DC Calibration Date
ACCALDATE	LABEL	2/12/2024	AC Calibration Date
THERMOSELECT	IQUANT	1	Thermo Select
FRAMEWORKVERSION	LABEL	7.10.3	Framework Version
INSTRUMENTVERSION	LABEL	4.91	Instrument Version
COMMVERSION	LABEL	2.24	Communications Version
CPUPLDVERSION	LABEL	0.00	CPU PLD Version
CTRLPLDVERSION	LABEL	0.00	CTRL PLD Version
PSTATPLDVERSION	LABEL	0.00	PSTAT PLD Version
CURVE	TABLE	600
	Pt	T	Vf	Im	Vu	Pwr	Sig	Ach	Temp	IERange	Over
	#	s	V	A	V	W	V	V	deg C	#	bits
	0	1	3.73011E+000	-8.51653E-007	0.00000E+000	-3.17676E-006	0.00000E+000	9.44524E-004	-3.27687E+002	7	...........
	1	2	3.72982E+000	-8.49996E-007	0.00000E+000	-3.17033E-006	0.00000E+000	9.43374E-004	-3.27687E+002	7	...........
	2	3	3.72960E+000	-8.48764E-007	0.00000E+000	-3.16555E-006	0.00000E+000	9.47290E-004	-3.27687E+002	7	...........
	3	4	3.72940E+000	-8.49386E-007	0.00000E+000	-3.16770E-006	0.00000E+000	9.47090E-004	-3.27687E+002	7	...........
	4	5	3.72923E+000	-8.49518E-007	0.00000E+000	-3.16805E-006	0.00000E+000	9.42740E-004	-3.27687E+002	7	...........
	5	6	3.72909E+000	-8.49151E-007	0.00000E+000	-3.16656E-006	0.00000E+000	9.39724E-004	-3.27687E+002	7	...........
	6	7	3.72896E+000	-8.49163E-007	0.00000E+000	-3.16650E-006	0.00000E+000	9.39624E-004	-3.27687E+002	7	...........
	7	8	3.72885E+000	-8.48995E-007	0.00000E+000	-3.16578E-006	0.00000E+000	9.37707E-004	-3.27687E+002	7	...........
	8	9	3.72875E+000	-8.48037E-007	0.00000E+000	-3.16211E-006	0.00000E+000	9.35807E-004	-3.27687E+002	7	...........
	9	10	3.72864E+000	-8.48113E-007	0.00000E+000	-3.16231E-006	0.00000E+000	9.35507E-004	-3.27687E+002	7	...........
	10	11	3.72853E+000	-8.48105E-007	0.00000E+000	-3.16219E-006	0.00000E+000	9.38257E-004	-3.27687E+002	7	...........
	11	12	3.72843E+000	-8.48015E-007	0.00000E+000	-3.16176E-006	0.00000E+000	9.40807E-004	-3.27687E+002	7	...........
	12	13	3.72832E+000	-8.48026E-007	0.00000E+000	-3.16172E-006	0.00000E+000	9.41890E-004	-3.27687E+002	7	...........
	13	14	3.72822E+000	-8.48046E-007	0.00000E+000	-3.16170E-006	0.00000E+000	9.47807E-004	-3.27687E+002	7	...........
	14	15	3.72812E+000	-8.47500E-007	0.00000E+000	-3.15958E-006	0.00000E+000	9.48657E-004	-3.27687E+002	7	...........
	15	16	3.72801E+000	-8.47631E-007	0.00000E+000	-3.15998E-006	0.00000E+000	9.49007E-004	-3.27687E+002	7	...........
	16	17	3.72793E+000	-8.47557E-007	0.00000E+000	-3.15963E-006	0.00000E+000	9.51107E-004	-3.27687E+002	7	...........
	17	18	3.72782E+000	-8.47940E-007	0.00000E+000	-3.16097E-006	0.00000E+000	9.51574E-004	-3.27687E+002	7	...........
	18	19	3.72773E+000	-8.47536E-007	0.00000E+000	-3.15938E-006	0.00000E+000	9.53007E-004	-3.27687E+002	7	...........
	19	20	3.72764E+000	-8.47185E-007	0.00000E+000	-3.15800E-006	0.00000E+000	9.51774E-004	-3.27687E+002	7	...........
	20	21	3.72756E+000	-8.47148E-007	0.00000E+000	-3.15780E-006	0.00000E+000	7.78124E-004	-3.27687E+002	7	...........
	21	22	3.72749E+000	-8.47530E-007	0.00000E+000	-3.15916E-006	0.00000E+000	6.96790E-004	-3.27687E+002	7	...........
	22	23	3.72741E+000	-8.47856E-007	0.00000E+000	-3.16031E-006	0.00000E+000	6.94957E-004	-3.27687E+002	7	...........
	23	24	3.72734E+000	-8.47119E-007	0.00000E+000	-3.15750E-006	0.00000E+000	6.94974E-004	-3.27687E+002	7	...........
	24	25	3.72727E+000	-8.47395E-007	0.00000E+000	-3.15848E-006	0.00000E+000	6.90240E-004	-3.27687E+002	7	...........
	25	26	3.72721E+000	-8.47478E-007	0.00000E+000	-3.15873E-006	0.00000E+000	6.92340E-004	-3.27687E+002	7	...........
	26	27	3.72714E+000	-8.47747E-007	0.00000E+000	-3.15967E-006	0.00000E+000	6.91574E-004	-3.27687E+002	7	...........
	27	28	3.72707E+000	-8.47499E-007	0.00000E+000	-3.15869E-006	0.00000E+000	6.88824E-004	-3.27687E+002	7	...........
	28	29	3.72700E+000	-8.47614E-007	0.00000E+000	-3.15906E-006	0.00000E+000	6.90874E-004	-3.27687E+002	7	...........
	29	30	3.72694E+000	-8.47374E-007	0.00000E+000	-3.15811E-006	0.00000E+000	6.90790E-004	-3.27687E+002	7	...........
	30	31	3.72687E+000	-8.47555E-007	0.00000E+000	-3.15873E-006	0.00000E+000	6.89357E-004	-3.27687E+002	7	...........
	31	32	3.72680E+000	-8.47157E-007	0.00000E+000	-3.15719E-006	0.00000E+000	6.92390E-004	-3.27687E+002	7	...........
	32	33	3.72674E+000	-8.47382E-007	0.00000E+000	-3.15798E-006	0.00000E+000	6.93757E-004	-3.27687E+002	7	...........
	33	34	3.72668E+000	-8.47451E-007	0.00000E+000	-3.15818E-006	0.00000E+000	6.97274E-004	-3.27687E+002	7	...........
	34	35	3.72661E+000	-8.46793E-007	0.00000E+000	-3.15567E-006	0.00000E+000	6.96624E-004	-3.27687E+002	7	...........
	35	36	3.72655E+000	-8.46363E-007	0.00000E+000	-3.15402E-006	0.00000E+000	6.96690E-004	-3.27687E+002	7	...........
	36	37	3.72649E+000	-8.46956E-007	0.00000E+000	-3.15617E-006	0.00000E+000	6.98590E-004	-3.27687E+002	7	...........
	37	38	3.72641E+000	-8.46994E-007	0.00000E+000	-3.15625E-006	0.00000E+000	6.96624E-004	-3.27687E+002	7	...........
	38	39	3.72636E+000	-8.47024E-007	0.00000E+000	-3.15632E-006	0.00000E+000	6.98857E-004	-3.27687E+002	7	...........
	39	40	3.72631E+000	-8.46838E-007	0.00000E+000	-3.15558E-006	0.00000E+000	6.98840E-004	-3.27687E+002	7	...........
	40	41	3.72624E+000	-8.47129E-007	0.00000E+000	-3.15661E-006	0.00000E+000	6.99757E-004	-3.27687E+002	7	...........
	41	42	3.72619E+000	-8.46624E-007	0.00000E+000	-3.15468E-006	0.00000E+000	6.99090E-004	-3.27687E+002	7	...........
	42	43	3.72613E+000	-8.46696E-007	0.00000E+000	-3.15490E-006	0.00000E+000	7.00857E-004	-3.27687E+002	7	...........
	43	44	3.72608E+000	-8.47145E-007	0.00000E+000	-3.15653E-006	0.00000E+000	6.97090E-004	-3.27687E+002	7	...........
	44	45	3.72602E+000	-8.47009E-007	0.00000E+000	-3.15597E-006	0.00000E+000	6.97407E-004	-3.27687E+002	7	...........
	45	46	3.72597E+000	-8.46778E-007	0.00000E+000	-3.15507E-006	0.00000E+000	6.97774E-004	-3.27687E+002	7	...........
	46	47	3.72592E+000	-8.46633E-007	0.00000E+000	-3.15449E-006	0.00000E+000	6.97807E-004	-3.27687E+002	7	...........
	47	48	3.72587E+000	-8.47065E-007	0.00000E+000	-3.15605E-006	0.00000E+000	6.97807E-004	-3.27687E+002	7	...........
	48	49	3.72582E+000	-8.46279E-007	0.00000E+000	-3.15308E-006	0.00000E+000	6.95807E-004	-3.27687E+002	7	...........
	49	50	3.72578E+000	-8.46464E-007	0.00000E+000	-3.15374E-006	0.00000E+000	6.95257E-004	-3.27687E+002	7	...........
	50	51	3.72572E+000	-8.46623E-007	0.00000E+000	-3.15428E-006	0.00000E+000	6.94574E-004	-3.27687E+002	7	...........
	51	52	3.72568E+000	-8.45475E-007	0.00000E+000	-3.14997E-006	0.00000E+000	6.93890E-004	-3.27687E+002	7	...........
	52	53	3.72563E+000	-8.46309E-007	0.00000E+000	-3.15303E-006	0.00000E+000	6.93540E-004	-3.27687E+002	7	...........
	53	54	3.72558E+000	-8.46473E-007	0.00000E+000	-3.15360E-006	0.00000E+000	6.94490E-004	-3.27687E+002	7	...........
	54	55	3.72554E+000	-8.46036E-007	0.00000E+000	-3.15194E-006	0.00000E+000	6.92774E-004	-3.27687E+002	7	...........
	55	56	3.72549E+000	-8.45463E-007	0.00000E+000	-3.14976E-006	0.00000E+000	6.92924E-004	-3.27687E+002	7	...........
	56	57	3.72545E+000	-8.45805E-007	0.00000E+000	-3.15100E-006	0.00000E+000	6.92574E-004	-3.27687E+002	7	...........
	57	58	3.72541E+000	-8.45939E-007	0.00000E+000	-3.15147E-006	0.00000E+000	6.95207E-004	-3.27687E+002	7	...........
	58	59	3.72536E+000	-8.44590E-007	0.00000E+000	-3.14640E-006	0.00000E+000	6.94240E-004	-3.27687E+002	7	...........
	59	60	3.72532E+000	-8.45066E-007	0.00000E+000	-3.14814E-006	0.00000E+000	6.92024E-004	-3.27687E+002	7	...........
	60	61	3.72528E+000	-8.45198E-007	0.00000E+000	-3.14860E-006	0.00000E+000	6.93307E-004	-3.27687E+002	7	...........
	61	62	3.72524E+000	-8.44752E-007	0.00000E+000	-3.14690E-006	0.00000E+000	6.94540E-004	-3.27687E+002	7	...........
	62	63	3.72520E+000	-8.45082E-007	0.00000E+000	-3.14810E-006	0.00000E+000	6.94140E-004	-3.27687E+002	7	...........
	63	64	3.72515E+000	-8.44682E-007	0.00000E+000	-3.14657E-006	0.00000E+000	6.96690E-004	-3.27687E+002	7	...........
	64	65	3.72511E+000	-8.45170E-007	0.00000E+000	-3.14835E-006	0.00000E+000	6.96224E-004	-3.27687E+002	7	...........
	65	66	3.72506E+000	-8.44548E-007	0.00000E+000	-3.14599E-006	0.00000E+000	6.98140E-004	-3.27687E+002	7	...........
	66	67	3.72501E+000	-8.44014E-007	0.00000E+000	-3.14396E-006	0.00000E+000	6.98174E-004	-3.27687E+002	7	...........
	67	68	3.72497E+000	-8.43758E-007	0.00000E+000	-3.14297E-006	0.00000E+000	6.99574E-004	-3.27687E+002	7	...........
	68	69	3.72492E+000	-8.43369E-007	0.00000E+000	-3.14148E-006	0.00000E+000	7.00374E-004	-3.27687E+002	7	...........
	69	70	3.72488E+000	-8.43781E-007	0.00000E+000	-3.14298E-006	0.00000E+000	7.00757E-004	-3.27687E+002	7	...........
	70	71	3.72483E+000	-8.43515E-007	0.00000E+000	-3.14195E-006	0.00000E+000	7.03307E-004	-3.27687E+002	7	...........
	71	72	3.72479E+000	-8.43600E-007	0.00000E+000	-3.14223E-006	0.00000E+000	7.00957E-004	-3.27687E+002	7	...........
	72	73	3.72474E+000	-8.44045E-007	0.00000E+000	-3.14384E-006	0.00000E+000	7.02140E-004	-3.27687E+002	7	...........
	73	74	3.72468E+000	-8.44121E-007	0.00000E+000	-3.14409E-006	0.00000E+000	7.02540E-004	-3.27687E+002	7	...........
	74	75	3.72463E+000	-8.43885E-007	0.00000E+000	-3.14316E-006	0.00000E+000	7.02824E-004	-3.27687E+002	7	...........
	75	76	3.72459E+000	-8.44045E-007	0.00000E+000	-3.14372E-006	0.00000E+000	6.99574E-004	-3.27687E+002	7	...........
	76	77	3.72456E+000	-8.43576E-007	0.00000E+000	-3.14195E-006	0.00000E+000	7.02957E-004	-3.27687E+002	7	...........
	77	78	3.72451E+000	-8.43518E-007	0.00000E+000	-3.14169E-006	0.00000E+000	7.03357E-004	-3.27687E+002	7	...........
	78	79	3.72447E+000	-8.43858E-007	0.00000E+000	-3.14292E-006	0.00000E+000	7.02340E-004	-3.27687E+002	7	...........
	79	80	3.72443E+000	-8.43929E-007	0.00000E+000	-3.14315E-006	0.00000E+000	7.00440E-004	-3.27687E+002	7	...........
	80	81	3.72438E+000	-8.43469E-007	0.00000E+000	-3.14140E-006	0.00000E+000	7.01824E-004	-3.27687E+002	7	...........
	81	82	3.72434E+000	-8.43819E-007	0.00000E+000	-3.14267E-006	0.00000E+000	6.98390E-004	-3.27687E+002	7	...........
	82	83	3.72431E+000	-8.42690E-007	0.00000E+000	-3.13844E-006	0.00000E+000	7.02890E-004	-3.27687E+002	7	...........
	83	84	3.72428E+000	-8.42390E-007	0.00000E+000	-3.13729E-006	0.00000E+000	7.03040E-004	-3.27687E+002	7	...........
	84	85	3.72424E+000	-8.41751E-007	0.00000E+000	-3.13489E-006	0.00000E+000	7.00924E-004	-3.27687E+002	7	...........
	85	86	3.72421E+000	-8.41509E-007	0.00000E+000	-3.13396E-006	0.00000E+000	7.00224E-004	-3.27687E+002	7	...........
	86	87	3.72418E+000	-8.42183E-007	0.00000E+000	-3.13644E-006	0.00000E+000	7.00357E-004	-3.27687E+002	7	...........
	87	88	3.72416E+000	-8.42118E-007	0.00000E+000	-3.13619E-006	0.00000E+000	6.97757E-004	-3.27687E+002	7	...........
	88	89	3.72413E+000	-8.41857E-007	0.00000E+000	-3.13518E-006	0.00000E+000	6.97490E-004	-3.27687E+002	7	...........
	89	90	3.72410E+000	-8.41429E-007	0.00000E+000	-3.13357E-006	0.00000E+000	6.98657E-004	-3.27687E+002	7	...........
	90	91	3.72407E+000	-8.42063E-007	0.00000E+000	-3.13590E-006	0.00000E+000	6.96074E-004	-3.27687E+002	7	...........
	91	92	3.72405E+000	-8.42072E-007	0.00000E+000	-3.13592E-006	0.00000E+000	6.96990E-004	-3.27687E+002	7	...........
	92	93	3.72403E+000	-8.42076E-007	0.00000E+000	-3.13592E-006	0.00000E+000	6.96324E-004	-3.27687E+002	7	...........
	93	94	3.72401E+000	-8.42452E-007	0.00000E+000	-3.13730E-006	0.00000E+000	6.96557E-004	-3.27687E+002	7	...........
	94	95	3.72399E+000	-8.42207E-007	0.00000E+000	-3.13637E-006	0.00000E+000	6.94490E-004	-3.27687E+002	7	...........
	95	96	3.72396E+000	-8.41645E-007	0.00000E+000	-3.13425E-006	0.00000E+000	6.96740E-004	-3.27687E+002	7	...........
	96	97	3.72394E+000	-8.41538E-007	0.00000E+000	-3.13384E-006	0.00000E+000	6.95940E-004	-3.27687E+002	7	...........
	97	98	3.72392E+000	-8.41283E-007	0.00000E+000	-3.13287E-006	0.00000E+000	6.91974E-004	-3.27687E+002	7	...........
	98	99	3.72390E+000	-8.40814E-007	0.00000E+000	-3.13111E-006	0.00000E+000	6.93440E-004	-3.27687E+002	7	...........
	99	100	3.72388E+000	-8.40822E-007	0.00000E+000	-3.13112E-006	0.00000E+000	6.92757E-004	-3.27687E+002	7	...........
	100	101	3.72385E+000	-8.40303E-007	0.00000E+000	-3.12916E-006	0.00000E+000	6.92557E-004	-3.27687E+002	7	...........
	101	102	3.72383E+000	-8.40410E-007	0.00000E+000	-3.12954E-006	0.00000E+000	6.91274E-004	-3.27687E+002	7	...........
	102	103	3.72381E+000	-8.40960E-007	0.00000E+000	-3.13157E-006	0.00000E+000	6.92540E-004	-3.27687E+002	7	...........
	103	104	3.72378E+000	-8.41030E-007	0.00000E+000	-3.13181E-006	0.00000E+000	6.93290E-004	-3.27687E+002	7	...........
	104	105	3.72377E+000	-8.40783E-007	0.00000E+000	-3.13088E-006	0.00000E+000	6.91790E-004	-3.27687E+002	7	...........
	105	106	3.72375E+000	-8.40547E-007	0.00000E+000	-3.12999E-006	0.00000E+000	6.93524E-004	-3.27687E+002	7	...........
	106	107	3.72372E+000	-8.40261E-007	0.00000E+000	-3.12890E-006	0.00000E+000	6.91207E-004	-3.27687E+002	7	...........
	107	108	3.72369E+000	-8.40349E-007	0.00000E+000	-3.12920E-006	0.00000E+000	6.88857E-004	-3.27687E+002	7	...........
	108	109	3.72367E+000	-8.40062E-007	0.00000E+000	-3.12811E-006	0.00000E+000	6.91274E-004	-3.27687E+002	7	...........
	109	110	3.72365E+000	-8.40522E-007	0.00000E+000	-3.12981E-006	0.00000E+000	6.93040E-004	-3.27687E+002	7	...........
	110	111	3.72362E+000	-8.40326E-007	0.00000E+000	-3.12905E-006	0.00000E+000	6.92874E-004	-3.27687E+002	7	...........
	111	112	3.72360E+000	-8.40638E-007	0.00000E+000	-3.13020E-006	0.00000E+000	6.92607E-004	-3.27687E+002	7	...........
	112	113	3.72359E+000	-8.40993E-007	0.00000E+000	-3.13151E-006	0.00000E+000	6.92274E-004	-3.27687E+002	7	...........
	113	114	3.72356E+000	-8.40786E-007	0.00000E+000	-3.13072E-006	0.00000E+000	6.91890E-004	-3.27687E+002	7	...........
	114	115	3.72355E+000	-8.40206E-007	0.00000E+000	-3.12855E-006	0.00000E+000	6.91457E-004	-3.27687E+002	7	...........
	115	116	3.72352E+000	-8.39925E-007	0.00000E+000	-3.12748E-006	0.00000E+000	6.92424E-004	-3.27687E+002	7	...........
	116	117	3.72350E+000	-8.39902E-007	0.00000E+000	-3.12738E-006	0.00000E+000	6.90374E-004	-3.27687E+002	7	...........
	117	118	3.72347E+000	-8.38900E-007	0.00000E+000	-3.12362E-006	0.00000E+000	6.94357E-004	-3.27687E+002	7	...........
	118	119	3.72345E+000	-8.38682E-007	0.00000E+000	-3.12279E-006	0.00000E+000	6.93090E-004	-3.27687E+002	7	...........
	119	120	3.72342E+000	-8.39388E-007	0.00000E+000	-3.12540E-006	0.00000E+000	6.93990E-004	-3.27687E+002	7	...........
	120	121	3.72341E+000	-8.39438E-007	0.00000E+000	-3.12557E-006	0.00000E+000	6.94390E-004	-3.27687E+002	7	...........
	121	122	3.72338E+000	-8.39468E-007	0.00000E+000	-3.12566E-006	0.00000E+000	6.94740E-004	-3.27687E+002	7	...........
	122	123	3.72337E+000	-8.38762E-007	0.00000E+000	-3.12302E-006	0.00000E+000	6.94440E-004	-3.27687E+002	7	...........
	123	124	3.72335E+000	-8.38669E-007	0.00000E+000	-3.12266E-006	0.00000E+000	6.93724E-004	-3.27687E+002	7	...........
	124	125	3.72332E+000	-8.39203E-007	0.00000E+000	-3.12462E-006	0.00000E+000	6.95974E-004	-3.27687E+002	7	...........
	125	126	3.72330E+000	-8.39052E-007	0.00000E+000	-3.12404E-006	0.00000E+000	6.96840E-004	-3.27687E+002	7	...........
	126	127	3.72328E+000	-8.38944E-007	0.00000E+000	-3.12363E-006	0.00000E+000	6.94490E-004	-3.27687E+002	7	...........
	127	128	3.72326E+000	-8.38886E-007	0.00000E+000	-3.12339E-006	0.00000E+000	6.94040E-004	-3.27687E+002	7	...........
	128	129	3.72323E+000	-8.37972E-007	0.00000E+000	-3.11996E-006	0.00000E+000	6.97040E-004	-3.27687E+002	7	...........
	129	130	3.72321E+000	-8.38522E-007	0.00000E+000	-3.12199E-006	0.00000E+000	6.94974E-004	-3.27687E+002	7	...........
	130	131	3.72319E+000	-8.38067E-007	0.00000E+000	-3.12028E-006	0.00000E+000	6.96990E-004	-3.27687E+002	7	...........
	131	132	3.72317E+000	-8.38433E-007	0.00000E+000	-3.12162E-006	0.00000E+000	6.94507E-004	-3.27687E+002	7	...........
	132	133	3.72315E+000	-8.38032E-007	0.00000E+000	-3.12011E-006	0.00000E+000	6.96674E-004	-3.27687E+002	7	...........
	133	134	3.72313E+000	-8.37548E-007	0.00000E+000	-3.11830E-006	0.00000E+000	6.94074E-004	-3.27687E+002	7	...........
	134	135	3.72310E+000	-8.37102E-007	0.00000E+000	-3.11661E-006	0.00000E+000	6.95257E-004	-3.27687E+002	7	...........
	135	136	3.72308E+000	-8.37334E-007	0.00000E+000	-3.11747E-006	0.00000E+000	6.97440E-004	-3.27687E+002	7	...........
	136	137	3.72306E+000	-8.37884E-007	0.00000E+000	-3.11949E-006	0.00000E+000	6.95007E-004	-3.27687E+002	7	...........
	137	138	3.72304E+000	-8.37591E-007	0.00000E+000	-3.11839E-006	0.00000E+000	6.93490E-004	-3.27687E+002	7	...........
	138	139	3.72301E+000	-8.37027E-007	0.00000E+000	-3.11626E-006	0.00000E+000	6.95174E-004	-3.27687E+002	7	...........
	139	140	3.72299E+000	-8.37224E-007	0.00000E+000	-3.11698E-006	0.00000E+000	6.95674E-004	-3.27687E+002	7	...........
	140	141	3.72298E+000	-8.37117E-007	0.00000E+000	-3.11657E-006	0.00000E+000	6.94624E-004	-3.27687E+002	7	...........
	141	142	3.72296E+000	-8.37202E-007	0.00000E+000	-3.11687E-006	0.00000E+000	6.94524E-004	-3.27687E+002	7	...........
	142	143	3.72294E+000	-8.36878E-007	0.00000E+000	-3.11565E-006	0.00000E+000	6.93190E-004	-3.27687E+002	7	...........
	143	144	3.72292E+000	-8.37332E-007	0.00000E+000	-3.11732E-006	0.00000E+000	6.92640E-004	-3.27687E+002	7	...........
	144	145	3.72290E+000	-8.37285E-007	0.00000E+000	-3.11713E-006	0.00000E+000	6.93540E-004	-3.27687E+002	7	...........
	145	146	3.72288E+000	-8.37513E-007	0.00000E+000	-3.11796E-006	0.00000E+000	6.90257E-004	-3.27687E+002	7	...........
	146	147	3.72286E+000	-8.37814E-007	0.00000E+000	-3.11906E-006	0.00000E+000	6.89657E-004	-3.27687E+002	7	...........
	147	148	3.72283E+000	-8.39295E-007	0.00000E+000	-3.12455E-006	0.00000E+000	6.89824E-004	-3.27687E+002	7	...........
	148	149	3.72282E+000	-8.38220E-007	0.00000E+000	-3.12055E-006	0.00000E+000	6.91074E-004	-3.27687E+002	7	...........
	149	150	3.72280E+000	-8.38308E-007	0.00000E+000	-3.12086E-006	0.00000E+000	6.90657E-004	-3.27687E+002	7	...........
	150	151	3.72279E+000	-8.37800E-007	0.00000E+000	-3.11895E-006	0.00000E+000	6.89157E-004	-3.27687E+002	7	...........
	151	152	3.72276E+000	-8.37281E-007	0.00000E+000	-3.11700E-006	0.00000E+000	6.90957E-004	-3.27687E+002	7	...........
	152	153	3.72275E+000	-8.38211E-007	0.00000E+000	-3.12045E-006	0.00000E+000	6.88457E-004	-3.27687E+002	7	...........
	153	154	3.72273E+000	-8.38307E-007	0.00000E+000	-3.12079E-006	0.00000E+000	6.89090E-004	-3.27687E+002	7	...........
	154	155	3.72272E+000	-8.37439E-007	0.00000E+000	-3.11755E-006	0.00000E+000	6.89390E-004	-3.27687E+002	7	...........
	155	156	3.72270E+000	-8.37195E-007	0.00000E+000	-3.11662E-006	0.00000E+000	6.88890E-004	-3.27687E+002	7	...........
	156	157	3.72268E+000	-8.37839E-007	0.00000E+000	-3.11901E-006	0.00000E+000	6.86957E-004	-3.27687E+002	7	...........
	157	158	3.72267E+000	-8.36842E-007	0.00000E+000	-3.11529E-006	0.00000E+000	6.87790E-004	-3.27687E+002	7	...........
	158	159	3.72264E+000	-8.37498E-007	0.00000E+000	-3.11771E-006	0.00000E+000	6.86290E-004	-3.27687E+002	7	...........
	159	160	3.72264E+000	-8.37612E-007	0.00000E+000	-3.11812E-006	0.00000E+000	6.86224E-004	-3.27687E+002	7	...........
	160	161	3.72262E+000	-8.38090E-007	0.00000E+000	-3.11989E-006	0.00000E+000	6.86040E-004	-3.27687E+002	7	...........
	161	162	3.72260E+000	-8.37537E-007	0.00000E+000	-3.11782E-006	0.00000E+000	6.84974E-004	-3.27687E+002	7	...........
	162	163	3.72260E+000	-8.37976E-007	0.00000E+000	-3.11945E-006	0.00000E+000	6.84757E-004	-3.27687E+002	7	...........
	163	164	3.72257E+000	-8.38543E-007	0.00000E+000	-3.12154E-006	0.00000E+000	6.84307E-004	-3.27687E+002	7	...........
	164	165	3.72256E+000	-8.38445E-007	0.00000E+000	-3.12116E-006	0.00000E+000	6.83857E-004	-3.27687E+002	7	...........
	165	166	3.72255E+000	-8.38486E-007	0.00000E+000	-3.12130E-006	0.00000E+000	6.86790E-004	-3.27687E+002	7	...........
	166	167	3.72253E+000	-8.37214E-007	0.00000E+000	-3.11655E-006	0.00000E+000	6.82640E-004	-3.27687E+002	7	...........
	167	168	3.72251E+000	-8.37055E-007	0.00000E+000	-3.11595E-006	0.00000E+000	6.82774E-004	-3.27687E+002	7	...........
	168	169	3.72250E+000	-8.36288E-007	0.00000E+000	-3.11308E-006	0.00000E+000	6.81590E-004	-3.27687E+002	7	...........
	169	170	3.72249E+000	-8.36896E-007	0.00000E+000	-3.11533E-006	0.00000E+000	6.82474E-004	-3.27687E+002	7	...........
	170	171	3.72248E+000	-8.37095E-007	0.00000E+000	-3.11607E-006	0.00000E+000	6.84590E-004	-3.27687E+002	7	...........
	171	172	3.72246E+000	-8.36304E-007	0.00000E+000	-3.11311E-006	0.00000E+000	6.80674E-004	-3.27687E+002	7	...........
	172	173	3.72244E+000	-8.36024E-007	0.00000E+000	-3.11205E-006	0.00000E+000	6.81624E-004	-3.27687E+002	7	...........
	173	174	3.72243E+000	-8.36552E-007	0.00000E+000	-3.11400E-006	0.00000E+000	6.81607E-004	-3.27687E+002	7	...........
	174	175	3.72242E+000	-8.36106E-007	0.00000E+000	-3.11234E-006	0.00000E+000	6.83607E-004	-3.27687E+002	7	...........
	175	176	3.72239E+000	-8.36360E-007	0.00000E+000	-3.11326E-006	0.00000E+000	6.80040E-004	-3.27687E+002	7	...........
	176	177	3.72238E+000	-8.37050E-007	0.00000E+000	-3.11582E-006	0.00000E+000	6.79190E-004	-3.27687E+002	7	...........
	177	178	3.72237E+000	-8.37284E-007	0.00000E+000	-3.11668E-006	0.00000E+000	6.80024E-004	-3.27687E+002	7	...........
	178	179	3.72237E+000	-8.36934E-007	0.00000E+000	-3.11538E-006	0.00000E+000	6.78674E-004	-3.27687E+002	7	...........
	179	180	3.72236E+000	-8.37342E-007	0.00000E+000	-3.11689E-006	0.00000E+000	6.78774E-004	-3.27687E+002	7	...........
	180	181	3.72233E+000	-8.36730E-007	0.00000E+000	-3.11459E-006	0.00000E+000	6.79090E-004	-3.27687E+002	7	...........
	181	182	3.72233E+000	-8.36897E-007	0.00000E+000	-3.11520E-006	0.00000E+000	6.80340E-004	-3.27687E+002	7	...........
	182	183	3.72231E+000	-8.36855E-007	0.00000E+000	-3.11503E-006	0.00000E+000	6.78540E-004	-3.27687E+002	7	...........
	183	184	3.72230E+000	-8.35964E-007	0.00000E+000	-3.11171E-006	0.00000E+000	6.80624E-004	-3.27687E+002	7	...........
	184	185	3.72228E+000	-8.35777E-007	0.00000E+000	-3.11100E-006	0.00000E+000	6.78840E-004	-3.27687E+002	7	...........
	185	186	3.72227E+000	-8.35495E-007	0.00000E+000	-3.10994E-006	0.00000E+000	6.81107E-004	-3.27687E+002	7	...........
	186	187	3.72226E+000	-8.36374E-007	0.00000E+000	-3.11320E-006	0.00000E+000	6.80307E-004	-3.27687E+002	7	...........
	187	188	3.72225E+000	-8.36343E-007	0.00000E+000	-3.11308E-006	0.00000E+000	6.80924E-004	-3.27687E+002	7	...........
	188	189	3.72223E+000	-8.36342E-007	0.00000E+000	-3.11306E-006	0.00000E+000	6.82457E-004	-3.27687E+002	7	...........
	189	190	3.72222E+000	-8.36164E-007	0.00000E+000	-3.11239E-006	0.00000E+000	6.81107E-004	-3.27687E+002	7	...........
	190	191	3.72221E+000	-8.36026E-007	0.00000E+000	-3.11186E-006	0.00000E+000	6.81140E-004	-3.27687E+002	7	...........
	191	192	3.72220E+000	-8.35400E-007	0.00000E+000	-3.10952E-006	0.00000E+000	6.81274E-004	-3.27687E+002	7	...........
	192	193	3.72217E+000	-8.35443E-007	0.00000E+000	-3.10966E-006	0.00000E+000	6.79574E-004	-3.27687E+002	7	...........
	193	194	3.72217E+000	-8.35446E-007	0.00000E+000	-3.10967E-006	0.00000E+000	6.82124E-004	-3.27687E+002	7	...........
	194	195	3.72216E+000	-8.35146E-007	0.00000E+000	-3.10855E-006	0.00000E+000	6.80190E-004	-3.27687E+002	7	...........
	195	196	3.72215E+000	-8.35447E-007	0.00000E+000	-3.10966E-006	0.00000E+000	6.84074E-004	-3.27687E+002	7	...........
	196	197	3.72213E+000	-8.36302E-007	0.00000E+000	-3.11282E-006	0.00000E+000	6.84607E-004	-3.27687E+002	7	...........
	197	198	3.72212E+000	-8.36382E-007	0.00000E+000	-3.11311E-006	0.00000E+000	6.83357E-004	-3.27687E+002	7	...........
	198	199	3.72210E+000	-8.35988E-007	0.00000E+000	-3.11163E-006	0.00000E+000	6.82440E-004	-3.27687E+002	7	...........
	199	200	3.72209E+000	-8.35378E-007	0.00000E+000	-3.10935E-006	0.00000E+000	6.83607E-004	-3.27687E+002	7	...........
	200	201	3.72208E+000	-8.35035E-007	0.00000E+000	-3.10806E-006	0.00000E+000	6.83240E-004	-3.27687E+002	7	...........
	201	202	3.72206E+000	-8.35444E-007	0.00000E+000	-3.10957E-006	0.00000E+000	6.85240E-004	-3.27687E+002	7	...........
	202	203	3.72206E+000	-8.35385E-007	0.00000E+000	-3.10935E-006	0.00000E+000	6.86624E-004	-3.27687E+002	7	...........
	203	204	3.72204E+000	-8.35498E-007	0.00000E+000	-3.10976E-006	0.00000E+000	6.84040E-004	-3.27687E+002	7	...........
	204	205	3.72202E+000	-8.35782E-007	0.00000E+000	-3.11080E-006	0.00000E+000	6.86090E-004	-3.27687E+002	7	...........
	205	206	3.72201E+000	-8.35137E-007	0.00000E+000	-3.10839E-006	0.00000E+000	6.86857E-004	-3.27687E+002	7	...........
	206	207	3.72200E+000	-8.35476E-007	0.00000E+000	-3.10964E-006	0.00000E+000	6.85607E-004	-3.27687E+002	7	...........
	207	208	3.72199E+000	-8.34570E-007	0.00000E+000	-3.10626E-006	0.00000E+000	6.87357E-004	-3.27687E+002	7	...........
	208	209	3.72197E+000	-8.34311E-007	0.00000E+000	-3.10528E-006	0.00000E+000	6.87057E-004	-3.27687E+002	7	...........
	209	210	3.72197E+000	-8.35151E-007	0.00000E+000	-3.10841E-006	0.00000E+000	6.84507E-004	-3.27687E+002	7	...........
	210	211	3.72195E+000	-8.34795E-007	0.00000E+000	-3.10707E-006	0.00000E+000	6.88090E-004	-3.27687E+002	7	...........
	211	212	3.72194E+000	-8.33825E-007	0.00000E+000	-3.10344E-006	0.00000E+000	6.87440E-004	-3.27687E+002	7	...........
	212	213	3.72192E+000	-8.34171E-007	0.00000E+000	-3.10472E-006	0.00000E+000	6.87924E-004	-3.27687E+002	7	...........
	213	214	3.72191E+000	-8.34590E-007	0.00000E+000	-3.10627E-006	0.00000E+000	6.88624E-004	-3.27687E+002	7	...........
	214	215	3.72191E+000	-8.34235E-007	0.00000E+000	-3.10495E-006	0.00000E+000	6.89290E-004	-3.27687E+002	7	...........
	215	216	3.72189E+000	-8.33768E-007	0.00000E+000	-3.10319E-006	0.00000E+000	6.89657E-004	-3.27687E+002	7	...........
	216	217	3.72188E+000	-8.33496E-007	0.00000E+000	-3.10217E-006	0.00000E+000	6.91324E-004	-3.27687E+002	7	...........
	217	218	3.72187E+000	-8.33625E-007	0.00000E+000	-3.10264E-006	0.00000E+000	6.90874E-004	-3.27687E+002	7	...........
	218	219	3.72185E+000	-8.32889E-007	0.00000E+000	-3.09989E-006	0.00000E+000	6.93690E-004	-3.27687E+002	7	...........
	219	220	3.72184E+000	-8.33452E-007	0.00000E+000	-3.10197E-006	0.00000E+000	6.94240E-004	-3.27687E+002	7	...........
	220	221	3.72182E+000	-8.33648E-007	0.00000E+000	-3.10269E-006	0.00000E+000	6.89057E-004	-3.27687E+002	7	...........
	221	222	3.72181E+000	-8.33145E-007	0.00000E+000	-3.10081E-006	0.00000E+000	6.91824E-004	-3.27687E+002	7	...........
	222	223	3.72180E+000	-8.32885E-007	0.00000E+000	-3.09983E-006	0.00000E+000	6.92990E-004	-3.27687E+002	7	...........
	223	224	3.72179E+000	-8.33065E-007	0.00000E+000	-3.10049E-006	0.00000E+000	6.92224E-004	-3.27687E+002	7	...........
	224	225	3.72177E+000	-8.33360E-007	0.00000E+000	-3.10158E-006	0.00000E+000	6.94790E-004	-3.27687E+002	7	...........
	225	226	3.72177E+000	-8.33263E-007	0.00000E+000	-3.10121E-006	0.00000E+000	6.92340E-004	-3.27687E+002	7	...........
	226	227	3.72176E+000	-8.32827E-007	0.00000E+000	-3.09958E-006	0.00000E+000	6.95140E-004	-3.27687E+002	7	...........
	227	228	3.72174E+000	-8.33158E-007	0.00000E+000	-3.10080E-006	0.00000E+000	6.93407E-004	-3.27687E+002	7	...........
	228	229	3.72173E+000	-8.33742E-007	0.00000E+000	-3.10296E-006	0.00000E+000	6.93224E-004	-3.27687E+002	7	...........
	229	230	3.72172E+000	-8.34058E-007	0.00000E+000	-3.10413E-006	0.00000E+000	6.94690E-004	-3.27687E+002	7	...........
	230	231	3.72172E+000	-8.33968E-007	0.00000E+000	-3.10379E-006	0.00000E+000	6.92840E-004	-3.27687E+002	7	...........
	231	232	3.72169E+000	-8.34573E-007	0.00000E+000	-3.10602E-006	0.00000E+000	6.95440E-004	-3.27687E+002	7	...........
	232	233	3.72170E+000	-8.33762E-007	0.00000E+000	-3.10301E-006	0.00000E+000	6.96124E-004	-3.27687E+002	7	...........
	233	234	3.72168E+000	-8.33091E-007	0.00000E+000	-3.10050E-006	0.00000E+000	6.97274E-004	-3.27687E+002	7	...........
	234	235	3.72167E+000	-8.32149E-007	0.00000E+000	-3.09698E-006	0.00000E+000	6.97774E-004	-3.27687E+002	7	...........
	235	236	3.72165E+000	-8.32094E-007	0.00000E+000	-3.09677E-006	0.00000E+000	6.98424E-004	-3.27687E+002	7	...........
	236	237	3.72164E+000	-8.33322E-007	0.00000E+000	-3.10132E-006	0.00000E+000	6.97174E-004	-3.27687E+002	7	...........
	237	238	3.72162E+000	-8.33720E-007	0.00000E+000	-3.10279E-006	0.00000E+000	6.97774E-004	-3.27687E+002	7	...........
	238	239	3.72161E+000	-8.33004E-007	0.00000E+000	-3.10012E-006	0.00000E+000	6.98757E-004	-3.27687E+002	7	...........
	239	240	3.72161E+000	-8.33685E-007	0.00000E+000	-3.10265E-006	0.00000E+000	6.95974E-004	-3.27687E+002	7	...........
	240	241	3.72160E+000	-8.33166E-007	0.00000E+000	-3.10071E-006	0.00000E+000	6.98524E-004	-3.27687E+002	7	...........
	241	242	3.72158E+000	-8.33111E-007	0.00000E+000	-3.10049E-006	0.00000E+000	6.98040E-004	-3.27687E+002	7	...........
	242	243	3.72158E+000	-8.32840E-007	0.00000E+000	-3.09948E-006	0.00000E+000	7.00857E-004	-3.27687E+002	7	...........
	243	244	3.72157E+000	-8.32259E-007	0.00000E+000	-3.09731E-006	0.00000E+000	6.98657E-004	-3.27687E+002	7	...........
	244	245	3.72155E+000	-8.32354E-007	0.00000E+000	-3.09765E-006	0.00000E+000	7.00940E-004	-3.27687E+002	7	...........
	245	246	3.72154E+000	-8.32644E-007	0.00000E+000	-3.09872E-006	0.00000E+000	7.00807E-004	-3.27687E+002	7	...........
	246	247	3.72153E+000	-8.32524E-007	0.00000E+000	-3.09826E-006	0.00000E+000	7.02224E-004	-3.27687E+002	7	...........
	247	248	3.72151E+000	-8.33341E-007	0.00000E+000	-3.10129E-006	0.00000E+000	7.01640E-004	-3.27687E+002	7	...........
	248	249	3.72150E+000	-8.33503E-007	0.00000E+000	-3.10189E-006	0.00000E+000	7.00074E-004	-3.27687E+002	7	...........
	249	250	3.72150E+000	-8.33082E-007	0.00000E+000	-3.10031E-006	0.00000E+000	7.00424E-004	-3.27687E+002	7	...........
	250	251	3.72148E+000	-8.33031E-007	0.00000E+000	-3.10011E-006	0.00000E+000	7.02607E-004	-3.27687E+002	7	...........
	251	252	3.72147E+000	-8.32512E-007	0.00000E+000	-3.09817E-006	0.00000E+000	6.99990E-004	-3.27687E+002	7	...........
	252	253	3.72146E+000	-8.33053E-007	0.00000E+000	-3.10018E-006	0.00000E+000	7.03574E-004	-3.27687E+002	7	...........
	253	254	3.72145E+000	-8.33595E-007	0.00000E+000	-3.10218E-006	0.00000E+000	7.02574E-004	-3.27687E+002	7	...........
	254	255	3.72144E+000	-8.33295E-007	0.00000E+000	-3.10106E-006	0.00000E+000	7.02690E-004	-3.27687E+002	7	...........
	255	256	3.72142E+000	-8.32927E-007	0.00000E+000	-3.09967E-006	0.00000E+000	7.04040E-004	-3.27687E+002	7	...........
	256	257	3.72142E+000	-8.32795E-007	0.00000E+000	-3.09918E-006	0.00000E+000	6.99774E-004	-3.27687E+002	7	...........
	257	258	3.72140E+000	-8.33340E-007	0.00000E+000	-3.10119E-006	0.00000E+000	7.02507E-004	-3.27687E+002	7	...........
	258	259	3.72140E+000	-8.33011E-007	0.00000E+000	-3.09996E-006	0.00000E+000	7.03440E-004	-3.27687E+002	7	...........
	259	260	3.72139E+000	-8.33380E-007	0.00000E+000	-3.10133E-006	0.00000E+000	7.02074E-004	-3.27687E+002	7	...........
	260	261	3.72138E+000	-8.33355E-007	0.00000E+000	-3.10123E-006	0.00000E+000	6.99007E-004	-3.27687E+002	7	...........
	261	262	3.72137E+000	-8.33378E-007	0.00000E+000	-3.10131E-006	0.00000E+000	7.02990E-004	-3.27687E+002	7	...........
	262	263	3.72137E+000	-8.33269E-007	0.00000E+000	-3.10090E-006	0.00000E+000	7.02790E-004	-3.27687E+002	7	...........
	263	264	3.72135E+000	-8.32911E-007	0.00000E+000	-3.09956E-006	0.00000E+000	7.01907E-004	-3.27687E+002	7	...........
	264	265	3.72135E+000	-8.33619E-007	0.00000E+000	-3.10218E-006	0.00000E+000	7.00240E-004	-3.27687E+002	7	...........
	265	266	3.72134E+000	-8.33090E-007	0.00000E+000	-3.10021E-006	0.00000E+000	7.03590E-004	-3.27687E+002	7	...........
	266	267	3.72133E+000	-8.33215E-007	0.00000E+000	-3.10066E-006	0.00000E+000	7.00074E-004	-3.27687E+002	7	...........
	267	268	3.72132E+000	-8.32489E-007	0.00000E+000	-3.09796E-006	0.00000E+000	7.01540E-004	-3.27687E+002	7	...........
	268	269	3.72131E+000	-8.32164E-007	0.00000E+000	-3.09674E-006	0.00000E+000	7.03274E-004	-3.27687E+002	7	...........
	269	270	3.72130E+000	-8.33066E-007	0.00000E+000	-3.10009E-006	0.00000E+000	7.02774E-004	-3.27687E+002	7	...........
	270	271	3.72129E+000	-8.33300E-007	0.00000E+000	-3.10095E-006	0.00000E+000	7.02690E-004	-3.27687E+002	7	...........
	271	272	3.72128E+000	-8.33067E-007	0.00000E+000	-3.10008E-006	0.00000E+000	7.03374E-004	-3.27687E+002	7	...........
	272	273	3.72127E+000	-8.32679E-007	0.00000E+000	-3.09862E-006	0.00000E+000	7.04290E-004	-3.27687E+002	7	...........
	273	274	3.72126E+000	-8.32482E-007	0.00000E+000	-3.09788E-006	0.00000E+000	7.01907E-004	-3.27687E+002	7	...........
	274	275	3.72125E+000	-8.32491E-007	0.00000E+000	-3.09790E-006	0.00000E+000	7.01324E-004	-3.27687E+002	7	...........
	275	276	3.72124E+000	-8.32317E-007	0.00000E+000	-3.09725E-006	0.00000E+000	7.03090E-004	-3.27687E+002	7	...........
	276	277	3.72124E+000	-8.32538E-007	0.00000E+000	-3.09808E-006	0.00000E+000	7.03290E-004	-3.27687E+002	7	...........
	277	278	3.72123E+000	-8.31860E-007	0.00000E+000	-3.09554E-006	0.00000E+000	7.01740E-004	-3.27687E+002	7	...........
	278	279	3.72122E+000	-8.32252E-007	0.00000E+000	-3.09699E-006	0.00000E+000	7.04290E-004	-3.27687E+002	7	...........
	279	280	3.72121E+000	-8.32731E-007	0.00000E+000	-3.09877E-006	0.00000E+000	7.03957E-004	-3.27687E+002	7	...........
	280	281	3.72121E+000	-8.32269E-007	0.00000E+000	-3.09705E-006	0.00000E+000	7.05774E-004	-3.27687E+002	7	...........
	281	282	3.72120E+000	-8.33215E-007	0.00000E+000	-3.10056E-006	0.00000E+000	7.03124E-004	-3.27687E+002	7	...........
	282	283	3.72118E+000	-8.32557E-007	0.00000E+000	-3.09810E-006	0.00000E+000	7.01640E-004	-3.27687E+002	7	...........
	283	284	3.72118E+000	-8.31714E-007	0.00000E+000	-3.09496E-006	0.00000E+000	7.03807E-004	-3.27687E+002	7	...........
	284	285	3.72118E+000	-8.31148E-007	0.00000E+000	-3.09285E-006	0.00000E+000	7.03990E-004	-3.27687E+002	7	...........
	285	286	3.72116E+000	-8.31040E-007	0.00000E+000	-3.09243E-006	0.00000E+000	7.01407E-004	-3.27687E+002	7	...........
	286	287	3.72115E+000	-8.30958E-007	0.00000E+000	-3.09212E-006	0.00000E+000	7.01607E-004	-3.27687E+002	7	...........
	287	288	3.72114E+000	-8.30957E-007	0.00000E+000	-3.09211E-006	0.00000E+000	7.01390E-004	-3.27687E+002	7	...........
	288	289	3.72114E+000	-8.30835E-007	0.00000E+000	-3.09165E-006	0.00000E+000	7.02507E-004	-3.27687E+002	7	...........
	289	290	3.72113E+000	-8.30525E-007	0.00000E+000	-3.09049E-006	0.00000E+000	7.02990E-004	-3.27687E+002	7	...........
	290	291	3.72113E+000	-8.30693E-007	0.00000E+000	-3.09111E-006	0.00000E+000	6.98157E-004	-3.27687E+002	7	...........
	291	292	3.72111E+000	-8.31338E-007	0.00000E+000	-3.09350E-006	0.00000E+000	7.01440E-004	-3.27687E+002	7	...........
	292	293	3.72110E+000	-8.30799E-007	0.00000E+000	-3.09149E-006	0.00000E+000	6.99474E-004	-3.27687E+002	7	...........
	293	294	3.72110E+000	-8.30938E-007	0.00000E+000	-3.09200E-006	0.00000E+000	6.98857E-004	-3.27687E+002	7	...........
	294	295	3.72109E+000	-8.30642E-007	0.00000E+000	-3.09089E-006	0.00000E+000	7.02124E-004	-3.27687E+002	7	...........
	295	296	3.72109E+000	-8.30989E-007	0.00000E+000	-3.09218E-006	0.00000E+000	7.00007E-004	-3.27687E+002	7	...........
	296	297	3.72107E+000	-8.31342E-007	0.00000E+000	-3.09348E-006	0.00000E+000	7.02824E-004	-3.27687E+002	7	...........
	297	298	3.72107E+000	-8.31060E-007	0.00000E+000	-3.09243E-006	0.00000E+000	6.97874E-004	-3.27687E+002	7	...........
	298	299	3.72106E+000	-8.31670E-007	0.00000E+000	-3.09470E-006	0.00000E+000	6.99490E-004	-3.27687E+002	7	...........
	299	300	3.72106E+000	-8.31235E-007	0.00000E+000	-3.09307E-006	0.00000E+000	6.99307E-004	-3.27687E+002	7	...........
	300	301	3.72104E+000	-8.30821E-007	0.00000E+000	-3.09152E-006	0.00000E+000	7.01090E-004	-3.27687E+002	7	...........
	301	302	3.72104E+000	-8.29862E-007	0.00000E+000	-3.08795E-006	0.00000E+000	6.98424E-004	-3.27687E+002	7	...........
	302	303	3.72104E+000	-8.29514E-007	0.00000E+000	-3.08665E-006	0.00000E+000	7.00524E-004	-3.27687E+002	7	...........
	303	304	3.72103E+000	-8.31184E-007	0.00000E+000	-3.09286E-006	0.00000E+000	7.01757E-004	-3.27687E+002	7	...........
	304	305	3.72102E+000	-8.30849E-007	0.00000E+000	-3.09160E-006	0.00000E+000	7.01424E-004	-3.27687E+002	7	...........
	305	306	3.72101E+000	-8.31241E-007	0.00000E+000	-3.09306E-006	0.00000E+000	6.98640E-004	-3.27687E+002	7	...........
	306	307	3.72101E+000	-8.31226E-007	0.00000E+000	-3.09300E-006	0.00000E+000	7.01674E-004	-3.27687E+002	7	...........
	307	308	3.72101E+000	-8.30752E-007	0.00000E+000	-3.09123E-006	0.00000E+000	6.99540E-004	-3.27687E+002	7	...........
	308	309	3.72099E+000	-8.30556E-007	0.00000E+000	-3.09049E-006	0.00000E+000	6.99690E-004	-3.27687E+002	7	...........
	309	310	3.72099E+000	-8.31038E-007	0.00000E+000	-3.09228E-006	0.00000E+000	7.00324E-004	-3.27687E+002	7	...........
	310	311	3.72098E+000	-8.31077E-007	0.00000E+000	-3.09242E-006	0.00000E+000	7.00290E-004	-3.27687E+002	7	...........
	311	312	3.72097E+000	-8.30915E-007	0.00000E+000	-3.09181E-006	0.00000E+000	7.02857E-004	-3.27687E+002	7	...........
	312	313	3.72097E+000	-8.31104E-007	0.00000E+000	-3.09251E-006	0.00000E+000	7.00424E-004	-3.27687E+002	7	...........
	313	314	3.72096E+000	-8.30721E-007	0.00000E+000	-3.09107E-006	0.00000E+000	7.00524E-004	-3.27687E+002	7	...........
	314	315	3.72095E+000	-8.30787E-007	0.00000E+000	-3.09132E-006	0.00000E+000	7.00707E-004	-3.27687E+002	7	...........
	315	316	3.72093E+000	-8.31006E-007	0.00000E+000	-3.09212E-006	0.00000E+000	6.99074E-004	-3.27687E+002	7	...........
	316	317	3.72093E+000	-8.30244E-007	0.00000E+000	-3.08928E-006	0.00000E+000	6.99940E-004	-3.27687E+002	7	...........
	317	318	3.72092E+000	-8.30303E-007	0.00000E+000	-3.08949E-006	0.00000E+000	6.98890E-004	-3.27687E+002	7	...........
	318	319	3.72091E+000	-8.29700E-007	0.00000E+000	-3.08724E-006	0.00000E+000	6.99307E-004	-3.27687E+002	7	...........
	319	320	3.72091E+000	-8.29582E-007	0.00000E+000	-3.08680E-006	0.00000E+000	6.98824E-004	-3.27687E+002	7	...........
	320	321	3.72091E+000	-8.29633E-007	0.00000E+000	-3.08699E-006	0.00000E+000	6.99724E-004	-3.27687E+002	7	...........
	321	322	3.72090E+000	-8.29858E-007	0.00000E+000	-3.08782E-006	0.00000E+000	6.97990E-004	-3.27687E+002	7	...........
	322	323	3.72089E+000	-8.29242E-007	0.00000E+000	-3.08552E-006	0.00000E+000	6.99174E-004	-3.27687E+002	7	...........
	323	324	3.72088E+000	-8.29518E-007	0.00000E+000	-3.08653E-006	0.00000E+000	6.98740E-004	-3.27687E+002	7	...........
	324	325	3.72088E+000	-8.29724E-007	0.00000E+000	-3.08730E-006	0.00000E+000	6.97074E-004	-3.27687E+002	7	...........
	325	326	3.72086E+000	-8.29257E-007	0.00000E+000	-3.08555E-006	0.00000E+000	6.96840E-004	-3.27687E+002	7	...........
	326	327	3.72086E+000	-8.29599E-007	0.00000E+000	-3.08682E-006	0.00000E+000	6.97624E-004	-3.27687E+002	7	...........
	327	328	3.72086E+000	-8.29232E-007	0.00000E+000	-3.08546E-006	0.00000E+000	6.94807E-004	-3.27687E+002	7	...........
	328	329	3.72085E+000	-8.29846E-007	0.00000E+000	-3.08773E-006	0.00000E+000	6.96590E-004	-3.27687E+002	7	...........
	329	330	3.72084E+000	-8.30257E-007	0.00000E+000	-3.08926E-006	0.00000E+000	6.96474E-004	-3.27687E+002	7	...........
	330	331	3.72083E+000	-8.30325E-007	0.00000E+000	-3.08950E-006	0.00000E+000	6.93640E-004	-3.27687E+002	7	...........
	331	332	3.72083E+000	-8.30426E-007	0.00000E+000	-3.08987E-006	0.00000E+000	6.97457E-004	-3.27687E+002	7	...........
	332	333	3.72082E+000	-8.30098E-007	0.00000E+000	-3.08865E-006	0.00000E+000	6.96207E-004	-3.27687E+002	7	...........
	333	334	3.72082E+000	-8.29573E-007	0.00000E+000	-3.08669E-006	0.00000E+000	6.96424E-004	-3.27687E+002	7	...........
	334	335	3.72081E+000	-8.29439E-007	0.00000E+000	-3.08618E-006	0.00000E+000	6.97307E-004	-3.27687E+002	7	...........
	335	336	3.72081E+000	-8.28754E-007	0.00000E+000	-3.08363E-006	0.00000E+000	6.96990E-004	-3.27687E+002	7	...........
	336	337	3.72080E+000	-8.29050E-007	0.00000E+000	-3.08473E-006	0.00000E+000	6.97340E-004	-3.27687E+002	7	...........
	337	338	3.72079E+000	-8.29186E-007	0.00000E+000	-3.08523E-006	0.00000E+000	6.97590E-004	-3.27687E+002	7	...........
	338	339	3.72079E+000	-8.29674E-007	0.00000E+000	-3.08705E-006	0.00000E+000	6.96840E-004	-3.27687E+002	7	...........
	339	340	3.72079E+000	-8.29357E-007	0.00000E+000	-3.08586E-006	0.00000E+000	6.96974E-004	-3.27687E+002	7	...........
	340	341	3.72077E+000	-8.29734E-007	0.00000E+000	-3.08725E-006	0.00000E+000	6.97474E-004	-3.27687E+002	7	...........
	341	342	3.72077E+000	-8.29144E-007	0.00000E+000	-3.08505E-006	0.00000E+000	6.97140E-004	-3.27687E+002	7	...........
	342	343	3.72076E+000	-8.29425E-007	0.00000E+000	-3.08609E-006	0.00000E+000	6.96907E-004	-3.27687E+002	7	...........
	343	344	3.72074E+000	-8.29421E-007	0.00000E+000	-3.08606E-006	0.00000E+000	6.97840E-004	-3.27687E+002	7	...........
	344	345	3.72074E+000	-8.30304E-007	0.00000E+000	-3.08935E-006	0.00000E+000	6.95840E-004	-3.27687E+002	7	...........
	345	346	3.72074E+000	-8.29793E-007	0.00000E+000	-3.08745E-006	0.00000E+000	6.95490E-004	-3.27687E+002	7	...........
	346	347	3.72074E+000	-8.29391E-007	0.00000E+000	-3.08595E-006	0.00000E+000	6.97357E-004	-3.27687E+002	7	...........
	347	348	3.72073E+000	-8.30291E-007	0.00000E+000	-3.08929E-006	0.00000E+000	6.94707E-004	-3.27687E+002	7	...........
	348	349	3.72072E+000	-8.29838E-007	0.00000E+000	-3.08759E-006	0.00000E+000	6.94540E-004	-3.27687E+002	7	...........
	349	350	3.72071E+000	-8.29926E-007	0.00000E+000	-3.08792E-006	0.00000E+000	6.96490E-004	-3.27687E+002	7	...........
	350	351	3.72070E+000	-8.29465E-007	0.00000E+000	-3.08619E-006	0.00000E+000	6.97490E-004	-3.27687E+002	7	...........
	351	352	3.72070E+000	-8.28695E-007	0.00000E+000	-3.08333E-006	0.00000E+000	6.95940E-004	-3.27687E+002	7	...........
	352	353	3.72068E+000	-8.28833E-007	0.00000E+000	-3.08382E-006	0.00000E+000	6.95890E-004	-3.27687E+002	7	...........
	353	354	3.72068E+000	-8.29034E-007	0.00000E+000	-3.08457E-006	0.00000E+000	6.96057E-004	-3.27687E+002	7	...........
	354	355	3.72068E+000	-8.28776E-007	0.00000E+000	-3.08361E-006	0.00000E+000	6.94357E-004	-3.27687E+002	7	...........
	355	356	3.72068E+000	-8.28676E-007	0.00000E+000	-3.08323E-006	0.00000E+000	6.98557E-004	-3.27687E+002	7	...........
	356	357	3.72068E+000	-8.28749E-007	0.00000E+000	-3.08351E-006	0.00000E+000	6.96874E-004	-3.27687E+002	7	...........
	357	358	3.72067E+000	-8.28357E-007	0.00000E+000	-3.08204E-006	0.00000E+000	6.95357E-004	-3.27687E+002	7	...........
	358	359	3.72066E+000	-8.28979E-007	0.00000E+000	-3.08435E-006	0.00000E+000	6.92774E-004	-3.27687E+002	7	...........
	359	360	3.72066E+000	-8.28915E-007	0.00000E+000	-3.08411E-006	0.00000E+000	6.95740E-004	-3.27687E+002	7	...........
	360	361	3.72065E+000	-8.29210E-007	0.00000E+000	-3.08520E-006	0.00000E+000	6.96490E-004	-3.27687E+002	7	...........
	361	362	3.72065E+000	-8.29022E-007	0.00000E+000	-3.08450E-006	0.00000E+000	6.96140E-004	-3.27687E+002	7	...........
	362	363	3.72064E+000	-8.28525E-007	0.00000E+000	-3.08264E-006	0.00000E+000	6.95557E-004	-3.27687E+002	7	...........
	363	364	3.72063E+000	-8.28645E-007	0.00000E+000	-3.08308E-006	0.00000E+000	6.94607E-004	-3.27687E+002	7	...........
	364	365	3.72062E+000	-8.28317E-007	0.00000E+000	-3.08185E-006	0.00000E+000	6.94807E-004	-3.27687E+002	7	...........
	365	366	3.72062E+000	-8.27597E-007	0.00000E+000	-3.07917E-006	0.00000E+000	6.92557E-004	-3.27687E+002	7	...........
	366	367	3.72060E+000	-8.28049E-007	0.00000E+000	-3.08084E-006	0.00000E+000	6.96724E-004	-3.27687E+002	7	...........
	367	368	3.72061E+000	-8.28110E-007	0.00000E+000	-3.08107E-006	0.00000E+000	6.96240E-004	-3.27687E+002	7	...........
	368	369	3.72059E+000	-8.28664E-007	0.00000E+000	-3.08312E-006	0.00000E+000	6.97107E-004	-3.27687E+002	7	...........
	369	370	3.72059E+000	-8.27258E-007	0.00000E+000	-3.07789E-006	0.00000E+000	6.96974E-004	-3.27687E+002	7	...........
	370	371	3.72059E+000	-8.28790E-007	0.00000E+000	-3.08359E-006	0.00000E+000	6.97890E-004	-3.27687E+002	7	...........
	371	372	3.72058E+000	-8.28580E-007	0.00000E+000	-3.08280E-006	0.00000E+000	6.96340E-004	-3.27687E+002	7	...........
	372	373	3.72058E+000	-8.27919E-007	0.00000E+000	-3.08033E-006	0.00000E+000	6.95124E-004	-3.27687E+002	7	...........
	373	374	3.72057E+000	-8.27614E-007	0.00000E+000	-3.07920E-006	0.00000E+000	6.94990E-004	-3.27687E+002	7	...........
	374	375	3.72056E+000	-8.27680E-007	0.00000E+000	-3.07944E-006	0.00000E+000	6.94540E-004	-3.27687E+002	7	...........
	375	376	3.72056E+000	-8.27392E-007	0.00000E+000	-3.07836E-006	0.00000E+000	6.95257E-004	-3.27687E+002	7	...........
	376	377	3.72056E+000	-8.27449E-007	0.00000E+000	-3.07857E-006	0.00000E+000	6.94707E-004	-3.27687E+002	7	...........
	377	378	3.72055E+000	-8.27914E-007	0.00000E+000	-3.08030E-006	0.00000E+000	6.95457E-004	-3.27687E+002	7	...........
	378	379	3.72054E+000	-8.28155E-007	0.00000E+000	-3.08119E-006	0.00000E+000	6.96707E-004	-3.27687E+002	7	...........
	379	380	3.72054E+000	-8.27566E-007	0.00000E+000	-3.07899E-006	0.00000E+000	6.94824E-004	-3.27687E+002	7	...........
	380	381	3.72054E+000	-8.27873E-007	0.00000E+000	-3.08013E-006	0.00000E+000	6.95790E-004	-3.27687E+002	7	...........
	381	382	3.72053E+000	-8.27549E-007	0.00000E+000	-3.07892E-006	0.00000E+000	6.96407E-004	-3.27687E+002	7	...........
	382	383	3.72053E+000	-8.28332E-007	0.00000E+000	-3.08183E-006	0.00000E+000	6.94990E-004	-3.27687E+002	7	...........
	383	384	3.72052E+000	-8.28700E-007	0.00000E+000	-3.08319E-006	0.00000E+000	6.94857E-004	-3.27687E+002	7	...........
	384	385	3.72051E+000	-8.27901E-007	0.00000E+000	-3.08021E-006	0.00000E+000	6.94357E-004	-3.27687E+002	7	...........
	385	386	3.72051E+000	-8.26768E-007	0.00000E+000	-3.07600E-006	0.00000E+000	6.94740E-004	-3.27687E+002	7	...........
	386	387	3.72050E+000	-8.27144E-007	0.00000E+000	-3.07739E-006	0.00000E+000	6.95007E-004	-3.27687E+002	7	...........
	387	388	3.72049E+000	-8.27917E-007	0.00000E+000	-3.08025E-006	0.00000E+000	6.97057E-004	-3.27687E+002	7	...........
	388	389	3.72049E+000	-8.27320E-007	0.00000E+000	-3.07803E-006	0.00000E+000	6.97924E-004	-3.27687E+002	7	...........
	389	390	3.72048E+000	-8.27471E-007	0.00000E+000	-3.07860E-006	0.00000E+000	6.96307E-004	-3.27687E+002	7	...........
	390	391	3.72047E+000	-8.27242E-007	0.00000E+000	-3.07773E-006	0.00000E+000	6.98490E-004	-3.27687E+002	7	...........
	391	392	3.72046E+000	-8.27461E-007	0.00000E+000	-3.07854E-006	0.00000E+000	6.95490E-004	-3.27687E+002	7	...........
	392	393	3.72046E+000	-8.26965E-007	0.00000E+000	-3.07669E-006	0.00000E+000	6.96090E-004	-3.27687E+002	7	...........
	393	394	3.72045E+000	-8.26524E-007	0.00000E+000	-3.07504E-006	0.00000E+000	6.96274E-004	-3.27687E+002	7	...........
	394	395	3.72046E+000	-8.26783E-007	0.00000E+000	-3.07601E-006	0.00000E+000	6.98107E-004	-3.27687E+002	7	...........
	395	396	3.72045E+000	-8.27143E-007	0.00000E+000	-3.07735E-006	0.00000E+000	6.96407E-004	-3.27687E+002	7	...........
	396	397	3.72044E+000	-8.26738E-007	0.00000E+000	-3.07583E-006	0.00000E+000	6.97907E-004	-3.27687E+002	7	...........
	397	398	3.72043E+000	-8.26904E-007	0.00000E+000	-3.07644E-006	0.00000E+000	6.96524E-004	-3.27687E+002	7	...........
	398	399	3.72043E+000	-8.26961E-007	0.00000E+000	-3.07665E-006	0.00000E+000	6.95507E-004	-3.27687E+002	7	...........
	399	400	3.72043E+000	-8.26620E-007	0.00000E+000	-3.07538E-006	0.00000E+000	6.98857E-004	-3.27687E+002	7	...........
	400	401	3.72042E+000	-8.26851E-007	0.00000E+000	-3.07623E-006	0.00000E+000	6.96390E-004	-3.27687E+002	7	...........
	401	402	3.72042E+000	-8.26599E-007	0.00000E+000	-3.07529E-006	0.00000E+000	6.95574E-004	-3.27687E+002	7	...........
	402	403	3.72040E+000	-8.26152E-007	0.00000E+000	-3.07362E-006	0.00000E+000	6.96990E-004	-3.27687E+002	7	...........
	403	404	3.72039E+000	-8.26447E-007	0.00000E+000	-3.07471E-006	0.00000E+000	6.99057E-004	-3.27687E+002	7	...........
	404	405	3.72039E+000	-8.27058E-007	0.00000E+000	-3.07698E-006	0.00000E+000	6.99640E-004	-3.27687E+002	7	...........
	405	406	3.72039E+000	-8.26610E-007	0.00000E+000	-3.07531E-006	0.00000E+000	6.98424E-004	-3.27687E+002	7	...........
	406	407	3.72039E+000	-8.26648E-007	0.00000E+000	-3.07545E-006	0.00000E+000	6.98107E-004	-3.27687E+002	7	...........
	407	408	3.72037E+000	-8.26448E-007	0.00000E+000	-3.07469E-006	0.00000E+000	6.96440E-004	-3.27687E+002	7	...........
	408	409	3.72038E+000	-8.27457E-007	0.00000E+000	-3.07845E-006	0.00000E+000	6.96590E-004	-3.27687E+002	7	...........
	409	410	3.72036E+000	-8.26637E-007	0.00000E+000	-3.07539E-006	0.00000E+000	6.99440E-004	-3.27687E+002	7	...........
	410	411	3.72036E+000	-8.26217E-007	0.00000E+000	-3.07383E-006	0.00000E+000	6.97257E-004	-3.27687E+002	7	...........
	411	412	3.72036E+000	-8.26786E-007	0.00000E+000	-3.07594E-006	0.00000E+000	6.97490E-004	-3.27687E+002	7	...........
	412	413	3.72036E+000	-8.26987E-007	0.00000E+000	-3.07668E-006	0.00000E+000	6.99390E-004	-3.27687E+002	7	...........
	413	414	3.72035E+000	-8.27565E-007	0.00000E+000	-3.07883E-006	0.00000E+000	7.00924E-004	-3.27687E+002	7	...........
	414	415	3.72035E+000	-8.27134E-007	0.00000E+000	-3.07723E-006	0.00000E+000	6.99207E-004	-3.27687E+002	7	...........
	415	416	3.72035E+000	-8.27469E-007	0.00000E+000	-3.07847E-006	0.00000E+000	6.97007E-004	-3.27687E+002	7	...........
	416	417	3.72033E+000	-8.27203E-007	0.00000E+000	-3.07747E-006	0.00000E+000	6.98190E-004	-3.27687E+002	7	...........
	417	418	3.72033E+000	-8.27164E-007	0.00000E+000	-3.07732E-006	0.00000E+000	6.99440E-004	-3.27687E+002	7	...........
	418	419	3.72032E+000	-8.26881E-007	0.00000E+000	-3.07626E-006	0.00000E+000	6.97040E-004	-3.27687E+002	7	...........
	419	420	3.72031E+000	-8.26709E-007	0.00000E+000	-3.07561E-006	0.00000E+000	6.99157E-004	-3.27687E+002	7	...........
	420	421	3.72031E+000	-8.26356E-007	0.00000E+000	-3.07430E-006	0.00000E+000	7.00324E-004	-3.27687E+002	7	...........
	421	422	3.72030E+000	-8.27140E-007	0.00000E+000	-3.07721E-006	0.00000E+000	7.00624E-004	-3.27687E+002	7	...........
	422	423	3.72030E+000	-8.26455E-007	0.00000E+000	-3.07466E-006	0.00000E+000	7.00507E-004	-3.27687E+002	7	...........
	423	424	3.72030E+000	-8.26615E-007	0.00000E+000	-3.07525E-006	0.00000E+000	6.97207E-004	-3.27687E+002	7	...........
	424	425	3.72028E+000	-8.27094E-007	0.00000E+000	-3.07702E-006	0.00000E+000	6.99807E-004	-3.27687E+002	7	...........
	425	426	3.72029E+000	-8.27183E-007	0.00000E+000	-3.07736E-006	0.00000E+000	6.98790E-004	-3.27687E+002	7	...........
	426	427	3.72027E+000	-8.25960E-007	0.00000E+000	-3.07280E-006	0.00000E+000	6.99924E-004	-3.27687E+002	7	...........
	427	428	3.72028E+000	-8.26415E-007	0.00000E+000	-3.07449E-006	0.00000E+000	6.98740E-004	-3.27687E+002	7	...........
	428	429	3.72027E+000	-8.26414E-007	0.00000E+000	-3.07448E-006	0.00000E+000	7.01257E-004	-3.27687E+002	7	...........
	429	430	3.72027E+000	-8.26881E-007	0.00000E+000	-3.07622E-006	0.00000E+000	6.99607E-004	-3.27687E+002	7	...........
	430	431	3.72026E+000	-8.26994E-007	0.00000E+000	-3.07663E-006	0.00000E+000	7.00907E-004	-3.27687E+002	7	...........
	431	432	3.72025E+000	-8.26712E-007	0.00000E+000	-3.07557E-006	0.00000E+000	7.00707E-004	-3.27687E+002	7	...........
	432	433	3.72025E+000	-8.26775E-007	0.00000E+000	-3.07581E-006	0.00000E+000	7.01607E-004	-3.27687E+002	7	...........
	433	434	3.72024E+000	-8.27178E-007	0.00000E+000	-3.07730E-006	0.00000E+000	7.01207E-004	-3.27687E+002	7	...........
	434	435	3.72023E+000	-8.27699E-007	0.00000E+000	-3.07923E-006	0.00000E+000	7.02207E-004	-3.27687E+002	7	...........
	435	436	3.72024E+000	-8.26738E-007	0.00000E+000	-3.07566E-006	0.00000E+000	7.02890E-004	-3.27687E+002	7	...........
	436	437	3.72022E+000	-8.26167E-007	0.00000E+000	-3.07352E-006	0.00000E+000	7.03540E-004	-3.27687E+002	7	...........
	437	438	3.72022E+000	-8.26369E-007	0.00000E+000	-3.07427E-006	0.00000E+000	7.02440E-004	-3.27687E+002	7	...........
	438	439	3.72021E+000	-8.26470E-007	0.00000E+000	-3.07464E-006	0.00000E+000	7.01707E-004	-3.27687E+002	7	...........
	439	440	3.72021E+000	-8.26677E-007	0.00000E+000	-3.07541E-006	0.00000E+000	7.04424E-004	-3.27687E+002	7	...........
	440	441	3.72020E+000	-8.26756E-007	0.00000E+000	-3.07570E-006	0.00000E+000	7.01807E-004	-3.27687E+002	7	...........
	441	442	3.72021E+000	-8.27163E-007	0.00000E+000	-3.07722E-006	0.00000E+000	6.99357E-004	-3.27687E+002	7	...........
	442	443	3.72021E+000	-8.26854E-007	0.00000E+000	-3.07607E-006	0.00000E+000	7.00840E-004	-3.27687E+002	7	...........
	443	444	3.72019E+000	-8.27193E-007	0.00000E+000	-3.07731E-006	0.00000E+000	7.00757E-004	-3.27687E+002	7	...........
	444	445	3.72019E+000	-8.26324E-007	0.00000E+000	-3.07408E-006	0.00000E+000	7.03307E-004	-3.27687E+002	7	...........
	445	446	3.72019E+000	-8.26131E-007	0.00000E+000	-3.07336E-006	0.00000E+000	7.02424E-004	-3.27687E+002	7	...........
	446	447	3.72019E+000	-8.26027E-007	0.00000E+000	-3.07298E-006	0.00000E+000	7.01890E-004	-3.27687E+002	7	...........
	447	448	3.72019E+000	-8.25891E-007	0.00000E+000	-3.07247E-006	0.00000E+000	7.01057E-004	-3.27687E+002	7	...........
	448	449	3.72018E+000	-8.26039E-007	0.00000E+000	-3.07301E-006	0.00000E+000	7.01390E-004	-3.27687E+002	7	...........
	449	450	3.72016E+000	-8.26044E-007	0.00000E+000	-3.07302E-006	0.00000E+000	7.01924E-004	-3.27687E+002	7	...........
	450	451	3.72016E+000	-8.26430E-007	0.00000E+000	-3.07445E-006	0.00000E+000	7.04407E-004	-3.27687E+002	7	...........
	451	452	3.72017E+000	-8.25299E-007	0.00000E+000	-3.07025E-006	0.00000E+000	7.03357E-004	-3.27687E+002	7	...........
	452	453	3.72015E+000	-8.24833E-007	0.00000E+000	-3.06850E-006	0.00000E+000	7.04457E-004	-3.27687E+002	7	...........
	453	454	3.72015E+000	-8.25523E-007	0.00000E+000	-3.07107E-006	0.00000E+000	7.02674E-004	-3.27687E+002	7	...........
	454	455	3.72015E+000	-8.26648E-007	0.00000E+000	-3.07525E-006	0.00000E+000	7.03590E-004	-3.27687E+002	7	...........
	455	456	3.72015E+000	-8.26497E-007	0.00000E+000	-3.07469E-006	0.00000E+000	7.02207E-004	-3.27687E+002	7	...........
	456	457	3.72014E+000	-8.25589E-007	0.00000E+000	-3.07131E-006	0.00000E+000	7.01107E-004	-3.27687E+002	7	...........
	457	458	3.72012E+000	-8.25803E-007	0.00000E+000	-3.07208E-006	0.00000E+000	7.03974E-004	-3.27687E+002	7	...........
	458	459	3.72012E+000	-8.25908E-007	0.00000E+000	-3.07248E-006	0.00000E+000	7.03707E-004	-3.27687E+002	7	...........
	459	460	3.72012E+000	-8.25281E-007	0.00000E+000	-3.07014E-006	0.00000E+000	7.01757E-004	-3.27687E+002	7	...........
	460	461	3.72012E+000	-8.25061E-007	0.00000E+000	-3.06932E-006	0.00000E+000	7.03707E-004	-3.27687E+002	7	...........
	461	462	3.72011E+000	-8.26013E-007	0.00000E+000	-3.07286E-006	0.00000E+000	7.03690E-004	-3.27687E+002	7	...........
	462	463	3.72010E+000	-8.25670E-007	0.00000E+000	-3.07158E-006	0.00000E+000	7.00590E-004	-3.27687E+002	7	...........
	463	464	3.72010E+000	-8.25527E-007	0.00000E+000	-3.07105E-006	0.00000E+000	7.02324E-004	-3.27687E+002	7	...........
	464	465	3.72009E+000	-8.25845E-007	0.00000E+000	-3.07222E-006	0.00000E+000	7.02824E-004	-3.27687E+002	7	...........
	465	466	3.72009E+000	-8.25897E-007	0.00000E+000	-3.07241E-006	0.00000E+000	7.00674E-004	-3.27687E+002	7	...........
	466	467	3.72008E+000	-8.26380E-007	0.00000E+000	-3.07420E-006	0.00000E+000	7.01240E-004	-3.27687E+002	7	...........
	467	468	3.72008E+000	-8.26164E-007	0.00000E+000	-3.07340E-006	0.00000E+000	7.00340E-004	-3.27687E+002	7	...........
	468	469	3.72007E+000	-8.25318E-007	0.00000E+000	-3.07024E-006	0.00000E+000	7.01974E-004	-3.27687E+002	7	...........
	469	470	3.72007E+000	-8.25715E-007	0.00000E+000	-3.07172E-006	0.00000E+000	7.02474E-004	-3.27687E+002	7	...........
	470	471	3.72006E+000	-8.24982E-007	0.00000E+000	-3.06899E-006	0.00000E+000	7.03607E-004	-3.27687E+002	7	...........
	471	472	3.72006E+000	-8.25510E-007	0.00000E+000	-3.07095E-006	0.00000E+000	7.05274E-004	-3.27687E+002	7	...........
	472	473	3.72005E+000	-8.25257E-007	0.00000E+000	-3.07000E-006	0.00000E+000	7.02990E-004	-3.27687E+002	7	...........
	473	474	3.72005E+000	-8.25322E-007	0.00000E+000	-3.07023E-006	0.00000E+000	7.01440E-004	-3.27687E+002	7	...........
	474	475	3.72005E+000	-8.25086E-007	0.00000E+000	-3.06936E-006	0.00000E+000	7.02424E-004	-3.27687E+002	7	...........
	475	476	3.72004E+000	-8.24963E-007	0.00000E+000	-3.06890E-006	0.00000E+000	7.05524E-004	-3.27687E+002	7	...........
	476	477	3.72004E+000	-8.24658E-007	0.00000E+000	-3.06776E-006	0.00000E+000	7.03840E-004	-3.27687E+002	7	...........
	477	478	3.72004E+000	-8.25531E-007	0.00000E+000	-3.07101E-006	0.00000E+000	7.03607E-004	-3.27687E+002	7	...........
	478	479	3.72003E+000	-8.25741E-007	0.00000E+000	-3.07178E-006	0.00000E+000	7.02840E-004	-3.27687E+002	7	...........
	479	480	3.72003E+000	-8.26492E-007	0.00000E+000	-3.07457E-006	0.00000E+000	7.03674E-004	-3.27687E+002	7	...........
	480	481	3.72002E+000	-8.26307E-007	0.00000E+000	-3.07388E-006	0.00000E+000	7.05107E-004	-3.27687E+002	7	...........
	481	482	3.72002E+000	-8.25895E-007	0.00000E+000	-3.07234E-006	0.00000E+000	7.03290E-004	-3.27687E+002	7	...........
	482	483	3.72001E+000	-8.25534E-007	0.00000E+000	-3.07100E-006	0.00000E+000	7.03957E-004	-3.27687E+002	7	...........
	483	484	3.72002E+000	-8.25558E-007	0.00000E+000	-3.07109E-006	0.00000E+000	7.02190E-004	-3.27687E+002	7	...........
	484	485	3.72002E+000	-8.25044E-007	0.00000E+000	-3.06918E-006	0.00000E+000	7.03324E-004	-3.27687E+002	7	...........
	485	486	3.72001E+000	-8.25664E-007	0.00000E+000	-3.07148E-006	0.00000E+000	7.06174E-004	-3.27687E+002	7	...........
	486	487	3.72000E+000	-8.25424E-007	0.00000E+000	-3.07057E-006	0.00000E+000	7.03857E-004	-3.27687E+002	7	...........
	487	488	3.71999E+000	-8.24534E-007	0.00000E+000	-3.06726E-006	0.00000E+000	7.05974E-004	-3.27687E+002	7	...........
	488	489	3.71998E+000	-8.25603E-007	0.00000E+000	-3.07123E-006	0.00000E+000	7.01990E-004	-3.27687E+002	7	...........
	489	490	3.71998E+000	-8.25961E-007	0.00000E+000	-3.07256E-006	0.00000E+000	7.02740E-004	-3.27687E+002	7	...........
	490	491	3.71998E+000	-8.26161E-007	0.00000E+000	-3.07330E-006	0.00000E+000	7.04324E-004	-3.27687E+002	7	...........
	491	492	3.71997E+000	-8.26189E-007	0.00000E+000	-3.07340E-006	0.00000E+000	7.04457E-004	-3.27687E+002	7	...........
	492	493	3.71997E+000	-8.25905E-007	0.00000E+000	-3.07234E-006	0.00000E+000	7.04340E-004	-3.27687E+002	7	...........
	493	494	3.71996E+000	-8.25977E-007	0.00000E+000	-3.07260E-006	0.00000E+000	7.04474E-004	-3.27687E+002	7	...........
	494	495	3.71996E+000	-8.26130E-007	0.00000E+000	-3.07317E-006	0.00000E+000	7.05007E-004	-3.27687E+002	7	...........
	495	496	3.71995E+000	-8.26000E-007	0.00000E+000	-3.07268E-006	0.00000E+000	7.05340E-004	-3.27687E+002	7	...........
	496	497	3.71996E+000	-8.26460E-007	0.00000E+000	-3.07439E-006	0.00000E+000	7.03874E-004	-3.27687E+002	7	...........
	497	498	3.71995E+000	-8.26182E-007	0.00000E+000	-3.07336E-006	0.00000E+000	7.04174E-004	-3.27687E+002	7	...........
	498	499	3.71995E+000	-8.26736E-007	0.00000E+000	-3.07542E-006	0.00000E+000	7.03707E-004	-3.27687E+002	7	...........
	499	500	3.71995E+000	-8.26497E-007	0.00000E+000	-3.07453E-006	0.00000E+000	7.04774E-004	-3.27687E+002	7	...........
	500	501	3.71994E+000	-8.26604E-007	0.00000E+000	-3.07492E-006	0.00000E+000	7.05507E-004	-3.27687E+002	7	...........
	501	502	3.71993E+000	-8.26711E-007	0.00000E+000	-3.07531E-006	0.00000E+000	7.05374E-004	-3.27687E+002	7	...........
	502	503	3.71992E+000	-8.26413E-007	0.00000E+000	-3.07419E-006	0.00000E+000	7.04290E-004	-3.27687E+002	7	...........
	503	504	3.71992E+000	-8.26116E-007	0.00000E+000	-3.07309E-006	0.00000E+000	7.05640E-004	-3.27687E+002	7	...........
	504	505	3.71992E+000	-8.25997E-007	0.00000E+000	-3.07264E-006	0.00000E+000	7.06574E-004	-3.27687E+002	7	...........
	505	506	3.71991E+000	-8.26790E-007	0.00000E+000	-3.07558E-006	0.00000E+000	7.05590E-004	-3.27687E+002	7	...........
	506	507	3.71990E+000	-8.25753E-007	0.00000E+000	-3.07172E-006	0.00000E+000	7.06707E-004	-3.27687E+002	7	...........
	507	508	3.71989E+000	-8.26014E-007	0.00000E+000	-3.07268E-006	0.00000E+000	7.04024E-004	-3.27687E+002	7	...........
	508	509	3.71990E+000	-8.26340E-007	0.00000E+000	-3.07390E-006	0.00000E+000	7.05790E-004	-3.27687E+002	7	...........
	509	510	3.71989E+000	-8.25771E-007	0.00000E+000	-3.07178E-006	0.00000E+000	7.04574E-004	-3.27687E+002	7	...........
	510	511	3.71989E+000	-8.26044E-007	0.00000E+000	-3.07279E-006	0.00000E+000	7.07590E-004	-3.27687E+002	7	...........
	511	512	3.71989E+000	-8.26754E-007	0.00000E+000	-3.07543E-006	0.00000E+000	7.05657E-004	-3.27687E+002	7	...........
	512	513	3.71988E+000	-8.26710E-007	0.00000E+000	-3.07527E-006	0.00000E+000	7.05757E-004	-3.27687E+002	7	...........
	513	514	3.71988E+000	-8.27203E-007	0.00000E+000	-3.07709E-006	0.00000E+000	7.06874E-004	-3.27687E+002	7	...........
	514	515	3.71987E+000	-8.27243E-007	0.00000E+000	-3.07724E-006	0.00000E+000	7.05590E-004	-3.27687E+002	7	...........
	515	516	3.71987E+000	-8.27161E-007	0.00000E+000	-3.07693E-006	0.00000E+000	7.03624E-004	-3.27687E+002	7	...........
	516	517	3.71987E+000	-8.26849E-007	0.00000E+000	-3.07577E-006	0.00000E+000	7.05840E-004	-3.27687E+002	7	...........
	517	518	3.71986E+000	-8.26501E-007	0.00000E+000	-3.07447E-006	0.00000E+000	7.05907E-004	-3.27687E+002	7	...........
	518	519	3.71986E+000	-8.27118E-007	0.00000E+000	-3.07677E-006	0.00000E+000	7.05440E-004	-3.27687E+002	7	...........
	519	520	3.71986E+000	-8.26442E-007	0.00000E+000	-3.07424E-006	0.00000E+000	7.05407E-004	-3.27687E+002	7	...........
	520	521	3.71985E+000	-8.26489E-007	0.00000E+000	-3.07441E-006	0.00000E+000	7.05340E-004	-3.27687E+002	7	...........
	521	522	3.71984E+000	-8.26707E-007	0.00000E+000	-3.07522E-006	0.00000E+000	7.05890E-004	-3.27687E+002	7	...........
	522	523	3.71985E+000	-8.27576E-007	0.00000E+000	-3.07846E-006	0.00000E+000	7.06507E-004	-3.27687E+002	7	...........
	523	524	3.71984E+000	-8.27782E-007	0.00000E+000	-3.07922E-006	0.00000E+000	7.07590E-004	-3.27687E+002	7	...........
	524	525	3.71984E+000	-8.27351E-007	0.00000E+000	-3.07761E-006	0.00000E+000	7.06624E-004	-3.27687E+002	7	...........
	525	526	3.71983E+000	-8.28019E-007	0.00000E+000	-3.08009E-006	0.00000E+000	7.06490E-004	-3.27687E+002	7	...........
	526	527	3.71983E+000	-8.27492E-007	0.00000E+000	-3.07813E-006	0.00000E+000	7.05774E-004	-3.27687E+002	7	...........
	527	528	3.71982E+000	-8.28080E-007	0.00000E+000	-3.08031E-006	0.00000E+000	7.06157E-004	-3.27687E+002	7	...........
	528	529	3.71982E+000	-8.27811E-007	0.00000E+000	-3.07931E-006	0.00000E+000	7.05207E-004	-3.27687E+002	7	...........
	529	530	3.71982E+000	-8.27282E-007	0.00000E+000	-3.07734E-006	0.00000E+000	7.02107E-004	-3.27687E+002	7	...........
	530	531	3.71981E+000	-8.27253E-007	0.00000E+000	-3.07723E-006	0.00000E+000	7.06157E-004	-3.27687E+002	7	...........
	531	532	3.71981E+000	-8.27395E-007	0.00000E+000	-3.07775E-006	0.00000E+000	7.06974E-004	-3.27687E+002	7	...........
	532	533	3.71981E+000	-8.27195E-007	0.00000E+000	-3.07701E-006	0.00000E+000	7.04924E-004	-3.27687E+002	7	...........
	533	534	3.71980E+000	-8.27889E-007	0.00000E+000	-3.07958E-006	0.00000E+000	7.03207E-004	-3.27687E+002	7	...........
	534	535	3.71980E+000	-8.26959E-007	0.00000E+000	-3.07612E-006	0.00000E+000	7.04390E-004	-3.27687E+002	7	...........
	535	536	3.71980E+000	-8.27834E-007	0.00000E+000	-3.07937E-006	0.00000E+000	7.05140E-004	-3.27687E+002	7	...........
	536	537	3.71980E+000	-8.27582E-007	0.00000E+000	-3.07844E-006	0.00000E+000	7.03840E-004	-3.27687E+002	7	...........
	537	538	3.71979E+000	-8.26043E-007	0.00000E+000	-3.07271E-006	0.00000E+000	7.05590E-004	-3.27687E+002	7	...........
	538	539	3.71979E+000	-8.26170E-007	0.00000E+000	-3.07318E-006	0.00000E+000	7.03974E-004	-3.27687E+002	7	...........
	539	540	3.71979E+000	-8.26585E-007	0.00000E+000	-3.07472E-006	0.00000E+000	7.03507E-004	-3.27687E+002	7	...........
	540	541	3.71978E+000	-8.26594E-007	0.00000E+000	-3.07475E-006	0.00000E+000	7.01840E-004	-3.27687E+002	7	...........
	541	542	3.71978E+000	-8.25677E-007	0.00000E+000	-3.07133E-006	0.00000E+000	7.04307E-004	-3.27687E+002	7	...........
	542	543	3.71978E+000	-8.25586E-007	0.00000E+000	-3.07100E-006	0.00000E+000	7.04407E-004	-3.27687E+002	7	...........
	543	544	3.71977E+000	-8.26515E-007	0.00000E+000	-3.07444E-006	0.00000E+000	7.03890E-004	-3.27687E+002	7	...........
	544	545	3.71977E+000	-8.25822E-007	0.00000E+000	-3.07187E-006	0.00000E+000	7.03974E-004	-3.27687E+002	7	...........
	545	546	3.71976E+000	-8.25517E-007	0.00000E+000	-3.07073E-006	0.00000E+000	7.04090E-004	-3.27687E+002	7	...........
	546	547	3.71976E+000	-8.26088E-007	0.00000E+000	-3.07285E-006	0.00000E+000	7.04924E-004	-3.27687E+002	7	...........
	547	548	3.71976E+000	-8.25614E-007	0.00000E+000	-3.07108E-006	0.00000E+000	7.03890E-004	-3.27687E+002	7	...........
	548	549	3.71975E+000	-8.25958E-007	0.00000E+000	-3.07236E-006	0.00000E+000	7.04124E-004	-3.27687E+002	7	...........
	549	550	3.71974E+000	-8.26014E-007	0.00000E+000	-3.07256E-006	0.00000E+000	7.04407E-004	-3.27687E+002	7	...........
	550	551	3.71974E+000	-8.25667E-007	0.00000E+000	-3.07127E-006	0.00000E+000	7.05024E-004	-3.27687E+002	7	...........
	551	552	3.71974E+000	-8.26223E-007	0.00000E+000	-3.07333E-006	0.00000E+000	7.04374E-004	-3.27687E+002	7	...........
	552	553	3.71974E+000	-8.26079E-007	0.00000E+000	-3.07280E-006	0.00000E+000	7.03840E-004	-3.27687E+002	7	...........
	553	554	3.71973E+000	-8.25881E-007	0.00000E+000	-3.07205E-006	0.00000E+000	7.02890E-004	-3.27687E+002	7	...........
	554	555	3.71972E+000	-8.25266E-007	0.00000E+000	-3.06976E-006	0.00000E+000	7.05640E-004	-3.27687E+002	7	...........
	555	556	3.71973E+000	-8.25495E-007	0.00000E+000	-3.07062E-006	0.00000E+000	7.03040E-004	-3.27687E+002	7	...........
	556	557	3.71972E+000	-8.25638E-007	0.00000E+000	-3.07115E-006	0.00000E+000	7.05540E-004	-3.27687E+002	7	...........
	557	558	3.71972E+000	-8.25504E-007	0.00000E+000	-3.07064E-006	0.00000E+000	7.05840E-004	-3.27687E+002	7	...........
	558	559	3.71972E+000	-8.25579E-007	0.00000E+000	-3.07092E-006	0.00000E+000	7.04924E-004	-3.27687E+002	7	...........
	559	560	3.71971E+000	-8.25235E-007	0.00000E+000	-3.06963E-006	0.00000E+000	7.04624E-004	-3.27687E+002	7	...........
	560	561	3.71971E+000	-8.24914E-007	0.00000E+000	-3.06844E-006	0.00000E+000	7.05424E-004	-3.27687E+002	7	...........
	561	562	3.71970E+000	-8.25061E-007	0.00000E+000	-3.06898E-006	0.00000E+000	7.05674E-004	-3.27687E+002	7	...........
	562	563	3.71969E+000	-8.24635E-007	0.00000E+000	-3.06739E-006	0.00000E+000	7.03974E-004	-3.27687E+002	7	...........
	563	564	3.71969E+000	-8.24922E-007	0.00000E+000	-3.06845E-006	0.00000E+000	7.04640E-004	-3.27687E+002	7	...........
	564	565	3.71969E+000	-8.25399E-007	0.00000E+000	-3.07023E-006	0.00000E+000	7.03757E-004	-3.27687E+002	7	...........
	565	566	3.71969E+000	-8.25419E-007	0.00000E+000	-3.07030E-006	0.00000E+000	7.05240E-004	-3.27687E+002	7	...........
	566	567	3.71969E+000	-8.25358E-007	0.00000E+000	-3.07007E-006	0.00000E+000	7.04774E-004	-3.27687E+002	7	...........
	567	568	3.71969E+000	-8.24871E-007	0.00000E+000	-3.06826E-006	0.00000E+000	7.04257E-004	-3.27687E+002	7	...........
	568	569	3.71969E+000	-8.24851E-007	0.00000E+000	-3.06819E-006	0.00000E+000	7.01274E-004	-3.27687E+002	7	...........
	569	570	3.71968E+000	-8.25038E-007	0.00000E+000	-3.06888E-006	0.00000E+000	7.02807E-004	-3.27687E+002	7	...........
	570	571	3.71968E+000	-8.24504E-007	0.00000E+000	-3.06689E-006	0.00000E+000	7.05507E-004	-3.27687E+002	7	...........
	571	572	3.71967E+000	-8.24883E-007	0.00000E+000	-3.06830E-006	0.00000E+000	7.03290E-004	-3.27687E+002	7	...........
	572	573	3.71968E+000	-8.24300E-007	0.00000E+000	-3.06613E-006	0.00000E+000	7.04657E-004	-3.27687E+002	7	...........
	573	574	3.71967E+000	-8.24926E-007	0.00000E+000	-3.06845E-006	0.00000E+000	7.06757E-004	-3.27687E+002	7	...........
	574	575	3.71967E+000	-8.25333E-007	0.00000E+000	-3.06997E-006	0.00000E+000	7.04357E-004	-3.27687E+002	7	...........
	575	576	3.71967E+000	-8.25530E-007	0.00000E+000	-3.07070E-006	0.00000E+000	7.05674E-004	-3.27687E+002	7	...........
	576	577	3.71966E+000	-8.25343E-007	0.00000E+000	-3.07000E-006	0.00000E+000	7.05174E-004	-3.27687E+002	7	...........
	577	578	3.71967E+000	-8.25242E-007	0.00000E+000	-3.06963E-006	0.00000E+000	7.05574E-004	-3.27687E+002	7	...........
	578	579	3.71967E+000	-8.25267E-007	0.00000E+000	-3.06972E-006	0.00000E+000	7.04624E-004	-3.27687E+002	7	...........
	579	580	3.71967E+000	-8.24514E-007	0.00000E+000	-3.06692E-006	0.00000E+000	7.03590E-004	-3.27687E+002	7	...........
	580	581	3.71966E+000	-8.24488E-007	0.00000E+000	-3.06681E-006	0.00000E+000	7.05757E-004	-3.27687E+002	7	...........
	581	582	3.71965E+000	-8.24574E-007	0.00000E+000	-3.06712E-006	0.00000E+000	7.03974E-004	-3.27687E+002	7	...........
	582	583	3.71964E+000	-8.24523E-007	0.00000E+000	-3.06693E-006	0.00000E+000	7.03240E-004	-3.27687E+002	7	...........
	583	584	3.71964E+000	-8.24609E-007	0.00000E+000	-3.06725E-006	0.00000E+000	7.03157E-004	-3.27687E+002	7	...........
	584	585	3.71963E+000	-8.24850E-007	0.00000E+000	-3.06813E-006	0.00000E+000	7.01774E-004	-3.27687E+002	7	...........
	585	586	3.71963E+000	-8.24497E-007	0.00000E+000	-3.06682E-006	0.00000E+000	7.03957E-004	-3.27687E+002	7	...........
	586	587	3.71962E+000	-8.24908E-007	0.00000E+000	-3.06835E-006	0.00000E+000	7.02024E-004	-3.27687E+002	7	...........
	587	588	3.71962E+000	-8.23924E-007	0.00000E+000	-3.06468E-006	0.00000E+000	7.03657E-004	-3.27687E+002	7	...........
	588	589	3.71962E+000	-8.23398E-007	0.00000E+000	-3.06273E-006	0.00000E+000	7.02840E-004	-3.27687E+002	7	...........
	589	590	3.71961E+000	-8.24193E-007	0.00000E+000	-3.06568E-006	0.00000E+000	7.02874E-004	-3.27687E+002	7	...........
	590	591	3.71961E+000	-8.24861E-007	0.00000E+000	-3.06816E-006	0.00000E+000	7.03224E-004	-3.27687E+002	7	...........
	591	592	3.71960E+000	-8.25606E-007	0.00000E+000	-3.07093E-006	0.00000E+000	7.02224E-004	-3.27687E+002	7	...........
	592	593	3.71960E+000	-8.24515E-007	0.00000E+000	-3.06687E-006	0.00000E+000	7.02824E-004	-3.27687E+002	7	...........
	593	594	3.71960E+000	-8.24744E-007	0.00000E+000	-3.06772E-006	0.00000E+000	7.04990E-004	-3.27687E+002	7	...........
	594	595	3.71959E+000	-8.24402E-007	0.00000E+000	-3.06644E-006	0.00000E+000	7.01374E-004	-3.27687E+002	7	...........
	595	596	3.71959E+000	-8.24541E-007	0.00000E+000	-3.06696E-006	0.00000E+000	7.03040E-004	-3.27687E+002	7	...........
	596	597	3.71959E+000	-8.24660E-007	0.00000E+000	-3.06740E-006	0.00000E+000	7.04724E-004	-3.27687E+002	7	...........
	597	598	3.71958E+000	-8.24441E-007	0.00000E+000	-3.06658E-006	0.00000E+000	7.03324E-004	-3.27687E+002	7	...........
	598	599	3.71958E+000	-8.23834E-007	0.00000E+000	-3.06432E-006	0.00000E+000	7.02757E-004	-3.27687E+002	7	...........
	599	600	3.71958E+000	-8.23801E-007	0.00000E+000	-3.06419E-006	0.00000E+000	7.03157E-004	-3.27687E+002	7	...........
